1-Time,2-VGERA,3-VGERB,4-VGERC,5-VN,6-IGERAN,7-IGERBN,8-IGERCN,9-IGERAT,10-IGERBT,11-IGERCT,12-IN,13-IFD,14-IFAULT,15-VFAULT,16-Speed (rad/s),17-FAULT 
0.000000,158.978939,-168.936469,-8.150000,2.758398,-5.118486,5.050513,0.464752,5.142504,-5.110339,-0.375028,-0.190541,0.441292,-0.095440,63.824667,188.495721,0
0.001043,182.741477,-109.607150,-65.775947,1.717878,-5.658128,3.320211,2.606558,5.778409,-3.456842,-2.399443,-0.110175,0.443448,-0.087972,76.163877,188.495716,0
0.002083,192.223808,-33.606183,-126.381061,0.541638,-5.814340,1.320045,4.468512,5.929114,-1.467610,-4.292217,-0.048074,0.410132,-0.065566,83.945157,188.495740,0
0.003125,155.269941,31.981045,-169.455872,-0.261372,-4.809612,-0.739650,5.367772,4.999150,0.601360,-5.153216,-0.029809,0.463372,-0.043161,67.195047,188.269579,0
0.004167,82.666595,82.213444,-203.088448,-0.917352,-3.077076,-3.295418,5.860313,3.249493,3.106785,-5.715356,-0.051727,0.463111,-0.087972,39.621268,188.420254,0
0.005208,22.279123,143.246171,-180.560038,-0.498882,-1.007264,-4.684423,5.076725,1.202100,4.533661,-4.968208,-0.069992,0.462523,-0.073035,14.580928,188.420193,0
0.006250,-39.843752,191.763081,-131.182197,0.417228,1.374973,-5.736097,3.722238,-1.194489,5.691948,-3.708731,-0.069992,0.452463,-0.054364,-10.957051,188.495781,0
0.007292,-94.922935,196.667928,-56.986174,1.819668,3.551294,-5.664663,1.483416,-3.377885,5.641588,-1.620275,-0.113828,0.441292,-0.065566,-33.271681,188.269453,0
0.008333,-159.268940,169.534218,8.432386,3.063768,5.173771,-4.997941,-0.703167,-4.947430,5.033067,0.496644,-0.154011,0.436719,-0.050629,-59.737080,188.495671,0
0.009375,-183.042821,109.890795,65.812121,4.160838,5.724064,-3.180329,-2.830048,-5.568632,3.304030,2.581543,-0.172276,0.442795,-0.046895,-71.691750,188.419600,0
0.010417,-192.615892,33.865666,126.207955,5.325768,5.816371,-1.196037,-4.654688,-5.708310,1.348371,4.428065,-0.248989,0.468598,-0.073035,-78.986700,188.495756,0
0.011458,-154.743282,-32.132313,169.590531,6.151398,4.818743,0.863658,-5.576336,-4.785697,-0.749975,5.292622,-0.270907,0.455141,-0.073035,-65.188500,188.269458,0
0.012500,-82.173964,-81.772747,203.333902,6.796068,3.096858,3.292431,-6.031563,-3.039716,-3.179861,5.819183,-0.281866,0.449392,-0.039427,-35.171761,188.344865,0
0.013542,-22.024684,-142.600099,180.633144,6.354978,1.023496,4.748901,-5.203199,-1.018053,-4.606736,5.072035,-0.274560,0.458538,-0.013287,-10.301071,188.420368,0
0.014583,39.508381,-191.394870,131.932387,5.450178,-1.301937,5.745016,-3.871100,1.345454,-5.702073,3.794768,-0.248989,0.454684,-0.084238,15.938128,188.495794,0
0.015625,94.735016,-196.106423,58.081061,4.025118,-3.474707,5.681518,-1.677055,3.558256,-5.702073,1.699197,-0.208806,0.446649,-0.069301,38.490268,188.269501,0
0.016667,159.069679,-169.117683,-7.522159,2.803638,-5.086533,5.030671,0.483408,5.153531,-5.143913,-0.392817,-0.135746,0.440900,-0.039427,63.575847,188.344824,0
0.017708,182.650737,-110.114548,-65.554356,1.729188,-5.626176,3.284494,2.599095,5.760030,-3.440056,-2.424348,-0.080951,0.441945,-0.073035,77.204397,188.420350,0
0.018750,192.133068,-33.340403,-125.925569,0.552948,-5.757536,1.324013,4.431198,5.848248,-1.442430,-4.281544,-0.077298,0.442337,-0.076769,83.899917,188.495734,0
0.019792,155.167859,32.911275,-168.828031,-0.283992,-4.788310,-0.735682,5.311801,4.932986,0.588770,-5.114080,-0.073645,0.450307,-0.050629,69.049887,188.269337,0
0.020833,81.713825,82.406738,-202.842235,-0.917352,-3.080626,-3.208109,5.815536,3.289926,3.069015,-5.619294,-0.055380,0.423001,-0.073035,40.503448,188.269557,0
0.021875,21.258298,142.545479,-180.793940,-0.510192,-1.032116,-4.585208,5.017023,1.246209,4.441334,-4.946861,-0.037115,0.444428,-0.076769,14.501758,188.420406,0
0.022917,-39.571532,191.340250,-131.600758,0.405918,1.325269,-5.704349,3.688655,-1.135677,5.566047,-3.683826,-0.040768,0.453181,-0.069301,-9.927841,188.420240,0
0.023958,-94.809510,196.450472,-58.204924,1.774428,3.455436,-5.609103,1.516998,-3.263937,5.612211,-1.638064,-0.132093,0.442337,-0.058098,-33.226441,188.269440,0
0.025000,-159.314310,169.075144,7.090530,3.052458,5.092114,-4.950318,-0.613614,-4.859212,5.007887,0.461066,-0.157664,0.443317,-0.084238,-58.402500,188.269360,0
0.026042,-182.918054,111.292180,65.615152,4.160838,5.617556,-3.208109,-2.721838,-5.491441,3.329210,2.478365,-0.205153,0.439594,-0.073035,-71.284590,188.420316,0
0.027083,-192.094137,34.844219,125.838637,5.314458,5.745366,-1.263503,-4.561404,-5.583335,1.348371,4.317772,-0.252642,0.441292,-0.039427,-78.862290,188.420244,0
0.028125,-155.832163,-32.071908,168.630304,6.106158,4.783240,0.823972,-5.419619,-4.715858,-0.640861,5.160981,-0.267254,0.437111,-0.069301,-63.424140,188.269527,0
0.029167,-82.049197,-81.953961,202.841478,6.796068,3.079107,3.205122,-5.927085,-2.973552,-3.079140,5.716006,-0.281866,0.411243,-0.054364,-34.086001,188.269568,0
0.030208,-20.901777,-141.718193,181.285607,6.388908,1.105152,4.574283,-5.147229,-1.065838,-4.497622,5.011552,-0.278213,0.466507,-0.069301,-8.480161,188.420330,0
0.031250,40.007451,-190.887472,131.723106,5.427558,-1.191878,5.681518,-3.904683,1.268263,-5.647516,3.794768,-0.245336,0.447694,-0.058098,15.169048,188.344925,0
0.032292,94.304001,-196.480931,58.548864,4.092978,-3.357548,5.586272,-1.695712,3.436956,-5.655909,1.759680,-0.234377,0.447629,-0.043161,38.433718,188.269525,0
0.033333,158.944911,-168.767337,-6.155682,2.848878,-4.976475,4.998922,0.390124,5.021204,-5.068372,-0.307429,-0.172276,0.449066,-0.069301,63.937767,188.269485,0
0.034375,182.820875,-112.071654,-65.258902,1.695258,-5.519667,3.288462,2.483423,5.704894,-3.469432,-2.306939,-0.139399,0.445016,-0.065566,76.039467,188.420283,0
0.035417,191.736080,-35.055891,-125.777841,0.541638,-5.675880,1.331950,4.330451,5.778409,-1.484397,-4.114325,-0.051727,0.449392,-0.087972,83.718957,188.344889,0
0.036458,156.234054,32.138097,-168.581819,-0.306612,-4.745707,-0.743619,5.211054,4.944013,0.542606,-5.046481,-0.073645,0.450895,-0.054364,67.455177,188.269476,0
0.037500,82.609883,82.455062,-202.152842,-0.951282,-3.059324,-3.144612,5.714789,3.216411,2.972491,-5.565927,-0.033462,0.455664,-0.043161,39.338518,188.194201,0
0.038542,20.804598,142.110566,-181.372538,-0.555432,-1.003713,-4.501868,4.975978,1.235182,4.424547,-4.904167,-0.040768,0.437438,-0.069301,14.151148,188.420260,0
0.039583,-40.320137,190.651638,-131.440720,0.428538,1.282666,-5.621008,3.684924,-1.065838,5.566047,-3.673152,-0.077298,0.452724,-0.073035,-10.855261,188.269447,0
0.040625,-94.491920,196.969951,-57.540152,1.853598,3.356028,-5.569417,1.584163,-3.230855,5.524080,-1.670084,-0.135746,0.441423,-0.065566,-33.373471,188.269581,0
0.041667,-158.747185,169.135548,6.758144,3.007218,4.985606,-4.930475,-0.572569,-4.782021,4.953330,0.414814,-0.161317,0.440769,-0.054364,-59.669220,188.194087,0
0.042708,-183.020136,112.572756,65.393561,4.104288,5.564301,-3.216047,-2.639748,-5.432629,3.371177,2.392977,-0.212459,0.443448,-0.069301,-71.669130,188.420254,0
0.043750,-192.048767,36.233523,125.912500,5.280528,5.667259,-1.267472,-4.453194,-5.542902,1.381944,4.214594,-0.248989,0.437111,-0.080503,-78.545610,188.269471,0
0.044792,-156.694193,-31.141678,168.864205,6.094848,4.754838,0.736663,-5.344991,-4.723209,-0.603091,5.125403,-0.281866,0.456317,-0.058098,-65.787930,188.269516,0
0.045833,-83.909367,-81.966042,202.016667,6.728208,3.089757,3.117813,-5.904697,-3.065446,-3.049763,5.623501,-0.289172,0.456774,-0.091706,-35.307481,188.194116,0
0.046875,-21.582327,-141.440332,181.667235,6.366288,1.130004,4.490943,-5.121109,-1.069514,-4.438868,4.965300,-0.274560,0.451417,-0.058098,-9.837361,188.418236,0
0.047917,40.404439,-190.078052,131.907766,5.472798,-1.206079,5.586272,-3.859906,1.202100,-5.525812,3.784095,-0.263601,0.449000,-0.054364,16.028608,188.269283,0
0.048958,94.224603,-196.601740,57.711743,4.081668,-3.275891,5.526744,-1.744219,3.370792,-5.542599,1.795258,-0.212459,0.437764,-0.069301,38.671228,188.269279,0
0.050000,157.867374,-168.465314,-6.537311,2.837568,-4.869966,4.943362,0.326691,4.955041,-5.005422,-0.275408,-0.190541,0.437569,-0.031958,63.236547,188.193966,0
0.051042,182.355832,-112.107897,-65.332765,1.695258,-5.427360,3.284494,2.382676,5.579918,-3.440056,-2.214435,-0.132093,0.440182,-0.076769,77.159157,188.420010,0
0.052083,191.282380,-35.514966,-125.531629,0.552948,-5.569371,1.371636,4.214778,5.671812,-1.530560,-4.028937,-0.066339,0.440769,-0.054364,83.357037,188.344847,0
0.053125,157.334276,31.316595,-168.150947,-0.238752,-4.713754,-0.612656,5.054337,4.896229,0.441885,-4.882820,-0.073645,0.458603,-0.061832,69.818967,188.269265,0
0.054167,84.980466,82.491305,-200.921781,-0.894732,-3.048674,-2.993806,5.632699,3.231114,2.838197,-5.441402,-0.044421,0.458146,-0.073035,41.091568,188.193940,0
0.055208,22.177040,141.421954,-181.815720,-0.521502,-1.120873,-4.351062,4.886425,1.301345,4.277663,-4.833010,-0.051727,0.458930,-0.091706,14.286868,188.420126,0
0.056250,-40.036575,189.455629,-131.883902,0.417228,1.186808,-5.442422,3.617759,-0.955566,5.385589,-3.662479,-0.062686,0.445995,-0.054364,-10.154041,188.344717,0
0.057292,-94.367152,197.320297,-57.675568,1.808358,3.217567,-5.382893,1.576700,-3.120582,5.440146,-1.673642,-0.139399,0.440443,-0.065566,-33.169891,188.269270,0
0.058333,-157.556223,168.301966,6.930492,3.052458,4.811642,-4.855072,-0.430777,-4.638667,4.865200,0.322310,-0.172276,0.437960,-0.061832,-58.040580,188.193848,0
0.059375,-182.895369,112.814374,65.627462,4.160838,5.429391,-3.259701,-2.535270,-5.326032,3.320817,2.286241,-0.219765,0.440443,-0.073035,-70.967910,188.419967,0
0.060417,-191.073312,35.460345,125.260038,5.337078,5.582053,-1.311126,-4.292745,-5.451008,1.407125,4.065165,-0.267254,0.449458,-0.087972,-78.466440,188.270132,0
0.061458,-157.703675,-31.093355,168.002463,6.117468,4.733536,0.637448,-5.177080,-4.671749,-0.519157,5.007994,-0.278213,0.451679,-0.073035,-64.261080,188.269259,0
0.062500,-85.860277,-82.111012,200.305493,6.716898,3.103959,2.986850,-5.747979,-3.010310,-2.877699,5.502535,-0.270907,0.454945,-0.061832,-35.386651,188.193951,0
0.063542,-22.727919,-140.981258,182.282766,6.445458,1.211660,4.371886,-5.042750,-1.139353,-4.325558,4.908374,-0.259948,0.455206,-0.084238,-8.898631,188.420160,0
0.064583,39.871341,-188.519615,132.658713,5.472798,-1.071169,5.419592,-3.837518,1.077124,-5.429288,3.759190,-0.281866,0.458473,-0.076769,15.236908,188.344659,0
0.065625,94.201918,-197.109138,58.671970,4.036428,-3.169383,5.435466,-1.800190,3.216411,-5.504828,1.823721,-0.186888,0.439790,-0.061832,38.478958,188.269277,0
0.066667,157.186824,-167.849188,-6.155682,2.837568,-4.752807,4.887802,0.255795,4.782280,-4.862734,-0.175789,-0.164970,0.434825,-0.080503,63.451437,188.193912,0
0.067708,182.696107,-112.470324,-65.480493,1.729188,-5.335053,3.316242,2.270735,5.495376,-3.419072,-2.182414,-0.106522,0.436001,-0.065566,75.801957,188.420090,0
0.068750,190.374980,-34.331037,-124.657576,0.575568,-5.509016,1.427196,4.080449,5.635054,-1.572527,-3.943548,-0.073645,0.424373,-0.061832,83.108217,188.344708,0
0.069792,157.549784,32.138097,-167.683144,-0.250062,-4.717304,-0.533284,4.998366,4.866823,0.362148,-4.879262,-0.077298,0.442795,-0.095440,68.235567,188.269312,0
0.070833,85.570276,82.793327,-199.703031,-0.838182,-3.052224,-2.926340,5.561803,3.253168,2.729083,-5.373803,-0.059033,0.446191,-0.043161,40.820128,188.193915,0
0.071875,22.744165,141.180336,-182.345076,-0.521502,-1.184778,-4.307407,4.856574,1.349130,4.189532,-4.840126,-0.029809,0.455794,-0.076769,15.044638,188.420124,0
0.072916,-39.673615,188.295862,-133.004167,0.383298,1.094501,-5.410673,3.655073,-0.893078,5.305852,-3.634016,-0.102869,0.456121,-0.095440,-10.448101,188.344782,0
0.073958,-94.525947,197.489430,-58.955871,1.774428,3.143012,-5.422579,1.621476,-2.995607,5.427556,-1.719894,-0.132093,0.440182,-0.054364,-33.577051,188.269359,0
0.075000,-157.352058,168.120752,6.093371,3.018528,4.751288,-4.839197,-0.427046,-4.539422,4.810643,0.265384,-0.175929,0.435805,-0.073035,-59.013240,188.193861,0
0.076041,-183.008794,113.502985,65.713637,4.160838,5.390338,-3.220015,-2.423329,-5.248842,3.333407,2.222200,-0.194194,0.435674,-0.073035,-71.567340,188.420016,0
0.077083,-190.789749,35.049595,124.792235,5.280528,5.518148,-1.406372,-4.274088,-5.388520,1.444895,4.015355,-0.245336,0.455402,-0.069301,-77.708670,188.420235,0
0.078125,-157.669648,-32.144393,167.620834,6.106158,4.655430,0.558077,-5.117378,-4.664397,-0.481387,4.943953,-0.300131,0.450242,-0.065566,-66.364740,188.269321,0
0.079166,-85.293152,-82.582168,199.689963,6.773448,3.096858,2.943195,-5.729322,-2.969877,-2.785371,5.459841,-0.307437,0.404645,-0.095440,-36.427171,188.269261,0
0.080208,-21.979314,-140.618830,182.787501,6.377598,1.204560,4.288545,-5.050213,-1.161408,-4.250017,4.922606,-0.278213,0.448870,-0.069301,-10.549891,188.419958,0
0.081250,39.939396,-187.637709,133.766667,5.484108,-1.003713,5.368000,-3.818861,1.040367,-5.336961,3.776979,-0.278213,0.450764,-0.099175,15.440488,188.420077,0
0.082291,94.338028,-197.012490,60.100000,4.092978,-3.073526,5.411655,-1.822578,3.223762,-5.509025,1.845068,-0.194194,0.441227,-0.076769,38.976598,188.269286,0
0.083333,157.084741,-167.957916,-4.887689,2.837568,-4.667600,4.879864,0.199824,4.708765,-4.925685,-0.122421,-0.139399,0.440573,-0.035692,62.716287,188.269301,0
0.084375,182.662080,-113.871709,-65.431250,1.695258,-5.320852,3.324180,2.214764,5.462294,-3.461039,-2.072121,-0.084604,0.438352,-0.054364,76.989507,188.420083,0
0.085416,190.148130,-35.007568,-124.423675,0.575568,-5.448662,1.462914,4.031941,5.557864,-1.597707,-3.840371,-0.073645,0.432408,-0.087972,82.825467,188.420128,0
0.086458,157.878716,32.633414,-167.153788,-0.250062,-4.653399,-0.485661,4.908813,4.888877,0.345361,-4.800990,-0.066339,0.409544,-0.050629,70.248747,188.269310,0
0.087500,85.468193,83.336968,-198.902842,-0.894732,-3.073526,-2.858874,5.502101,3.242141,2.645149,-5.302646,-0.051727,0.441815,-0.061832,41.690998,188.269349,0
0.088541,21.246955,140.588372,-183.059091,-0.532812,-1.216730,-4.192318,4.860305,1.389563,4.164352,-4.772527,-0.066339,0.450764,-0.050629,14.637478,188.420017,0
0.089583,-40.320137,187.148176,-133.508902,0.383298,1.005744,-5.299553,3.673730,-0.790157,5.158968,-3.634016,-0.088257,0.441945,-0.065566,-9.701641,188.420057,0
0.090625,-94.548632,197.634401,-59.854546,1.797048,3.089757,-5.343208,1.692372,-2.922092,5.435950,-1.766146,-0.106522,0.445538,-0.065566,-33.384781,188.344585,0
0.091666,-156.909700,167.879134,4.714583,3.007218,4.644779,-4.811417,-0.356150,-4.425474,4.751889,0.162207,-0.146705,0.441880,-0.031958,-58.108440,188.269340,0
0.092708,-183.349069,115.194312,65.467424,4.149528,5.308681,-3.267638,-2.374821,-5.182678,3.371177,2.129696,-0.219765,0.439986,-0.043161,-70.820880,188.420093,0
0.093750,-190.131884,36.608031,124.509091,5.269218,5.468444,-1.414310,-4.128565,-5.256193,1.537222,3.901504,-0.274560,0.438875,-0.069301,-78.036660,188.420065,0
0.094791,-158.577048,-31.504106,167.436175,6.117468,4.687383,0.498548,-5.027825,-4.634991,-0.452010,4.862122,-0.256295,0.442925,-0.054364,-64.600380,188.344789,0
0.095833,-86.506799,-82.944595,198.446592,6.728208,3.128811,2.836044,-5.654695,-3.039716,-2.709831,5.381568,-0.296478,0.429991,-0.058098,-35.499751,188.269319,0
0.096875,-21.117284,-140.195999,183.673864,6.377598,1.282666,4.221079,-5.039019,-1.201841,-4.161887,4.890585,-0.292825,0.443448,-0.028224,-8.615881,188.420200,0
0.097916,40.971564,-186.381295,133.815909,5.518038,-0.907856,5.352126,-3.856175,0.959500,-5.257224,3.759190,-0.256295,0.435282,-0.061832,15.180358,188.419963,0
0.098958,94.167891,-197.761506,59.804546,4.138218,-3.013171,5.407686,-1.908400,3.124517,-5.458665,1.941130,-0.208806,0.445277,-0.054364,38.569438,188.420016,0
0.100000,156.358821,-167.510923,-4.346023,2.894118,-4.585944,4.863990,0.136391,4.605844,-4.904701,-0.058380,-0.175929,0.440769,-0.050629,63.587157,188.269340,0
0.101041,183.183835,-115.345579,-65.111174,1.729188,-5.274698,3.336085,2.151331,5.421861,-3.536579,-1.983175,-0.124787,0.441619,-0.076769,75.835887,188.420075,0
0.102083,189.558320,-36.698894,-124.571402,0.575568,-5.462863,1.518474,3.975971,5.510079,-1.631281,-3.772772,-0.073645,0.449980,-0.058098,82.587957,188.420224,0
0.103125,158.854171,31.509890,-167.449243,-0.227442,-4.713754,-0.418195,4.886425,4.844768,0.265624,-4.722717,-0.080951,0.461804,-0.054364,68.608797,188.420155,0
0.104166,87.169568,83.385292,-198.139584,-0.838182,-3.133880,-2.807282,5.520758,3.249493,2.611575,-5.302646,-0.091910,0.455272,-0.069301,40.989778,188.269216,0
0.105208,21.666628,140.479644,-183.637690,-0.521502,-1.238032,-4.196287,4.864037,1.463078,4.097205,-4.833010,-0.051727,0.443056,-0.050629,14.275558,188.420025,0
0.106250,-40.966660,186.652859,-133.435038,0.394608,0.984442,-5.363050,3.684924,-0.768102,5.188345,-3.655363,-0.059033,0.445146,-0.050629,-10.776091,188.420115,0
0.107291,-94.242385,198.238446,-58.832765,1.774428,3.068456,-5.406705,1.744612,-2.907389,5.381393,-1.801725,-0.132093,0.442207,-0.050629,-33.758011,188.495526,0
0.108333,-156.342575,168.012024,5.157765,2.995908,4.651880,-4.870946,-0.281522,-4.451204,4.823233,0.151533,-0.154011,0.438810,-0.058098,-58.888830,188.269263,0
0.109375,-183.201616,115.303040,65.418182,4.160838,5.326433,-3.295418,-2.367358,-5.263545,3.429931,2.143927,-0.230724,0.445734,-0.084238,-71.612580,188.495598,0
0.110416,-190.052487,37.477856,124.718372,5.291838,5.525248,-1.457964,-4.143490,-5.370141,1.558206,3.947756,-0.248989,0.449588,-0.058098,-77.256270,188.420014,0
0.111458,-159.166858,-30.537633,167.707008,6.083538,4.733536,0.498548,-5.080064,-4.708506,-0.368076,4.887027,-0.281866,0.459060,-0.061832,-66.805830,188.495477,0
0.112500,-88.026695,-82.642572,198.471213,6.739518,3.164313,2.867792,-5.658426,-3.113231,-2.718224,5.424262,-0.270907,0.460955,-0.061832,-37.026601,188.269375,0
0.113541,-22.444357,-140.087271,183.636932,6.411528,1.275565,4.240922,-5.035288,-1.242274,-4.182870,4.943953,-0.270907,0.457101,-0.058098,-10.187971,188.420797,0
0.114584,40.722029,-186.538347,134.000569,5.506728,-0.954009,5.360063,-3.867369,0.926419,-5.286600,3.748516,-0.227071,0.451548,-0.069301,15.858958,188.420084,0
0.115625,94.088493,-197.773587,59.213637,4.081668,-3.016721,5.439435,-1.900937,3.124517,-5.500632,1.916225,-0.219765,0.441815,-0.080503,39.044458,188.495546,0
0.116666,155.871094,-167.776703,-5.232386,2.871498,-4.585944,4.903676,0.125197,4.638926,-4.921488,-0.001454,-0.175929,0.440508,-0.054364,62.456157,188.344735,0
0.117708,182.820875,-114.415350,-65.394318,1.729188,-5.288899,3.351960,2.125211,5.440240,-3.494613,-2.000964,-0.088257,0.443186,-0.080503,77.057367,188.420110,0
0.118750,189.785170,-36.191496,-124.337500,0.598188,-5.484164,1.538317,3.998359,5.539485,-1.660658,-3.794119,-0.084604,0.444950,-0.073035,82.644507,188.420103,0
0.119791,158.990281,31.135382,-167.313826,-0.227442,-4.735056,-0.398352,4.920007,4.932986,0.244641,-4.772527,-0.048074,0.454749,-0.073035,70.723767,188.495591,0
0.120833,88.315161,83.167835,-197.954925,-0.781632,-3.140981,-2.775534,5.539415,3.297277,2.565412,-5.295530,-0.033462,0.465985,-0.061832,42.403528,188.344717,0
0.121875,23.095783,140.552129,-183.625379,-0.532812,-1.280635,-4.180412,4.886425,1.441024,4.088811,-4.847242,-0.029809,0.467618,-0.076769,14.739268,188.495512,0
0.122916,-40.308795,186.471645,-134.013637,0.360678,0.980892,-5.339239,3.696118,-0.749724,5.209328,-3.676710,-0.069992,0.451483,-0.080503,-9.984391,188.420126,0
0.123958,-94.287755,198.202203,-59.263637,1.763118,3.043604,-5.434485,1.763268,-2.925768,5.419163,-1.812398,-0.128440,0.441749,-0.050629,-33.249061,188.495550,0
0.125000,-156.081698,167.794568,5.539394,2.984598,4.666081,-4.851103,-0.288985,-4.443852,4.865200,0.183554,-0.161317,0.438091,-0.043161,-57.803070,188.420048,0
0.126041,-183.383096,114.638590,65.615152,4.149528,5.369036,-3.343041,-2.300193,-5.259869,3.450914,2.126138,-0.205153,0.439986,-0.106643,-70.764330,188.495481,0
0.127083,-189.961747,36.016067,124.102841,5.280528,5.574952,-1.461933,-4.188267,-5.381169,1.570796,3.919293,-0.230724,0.440769,-0.091706,-77.946180,188.420043,0
