1-Time,2-VGERA,3-VGERB,4-VGERC,5-VN,6-IGERAN,7-IGERBN,8-IGERCN,9-IGERAT,10-IGERBT,11-IGERCT,12-IN,13-IFD,14-IFAULT,15-VFAULT,16-Speed (rad/s),17-FAULT 
0.000000,142.418888,-160.262380,22.638826,3.323898,-6.109013,1.458945,4.785678,6.726752,-1.547347,-4.516362,-0.026156,0.184565,-0.009553,57.751197,188.495528,0
0.001042,194.639760,-96.414803,-24.953977,2.419098,-4.965824,-1.029357,5.886432,5.465970,0.928702,-5.576600,-0.011544,0.193449,-0.009553,81.558747,188.420273,0
0.002083,182.832217,-50.773147,-101.907576,0.982728,-3.261690,-3.196204,6.099120,3.874370,3.169736,-5.918153,0.006721,0.202007,-0.005818,79.194957,188.495725,0
0.003125,138.017998,-8.489983,-178.159470,-0.498882,-1.230931,-4.799512,5.509564,1.738759,4.810643,-5.384476,0.003068,0.210825,-0.024490,62.015067,188.495792,0
0.004167,86.228141,46.260674,-201.598864,-0.894732,1.467280,-5.751972,3.681193,-0.874699,5.767488,-3.641131,-0.033462,0.202137,-0.028224,39.293278,188.495830,0
0.005208,40.211616,130.464575,-175.758902,-0.453642,3.771411,-6.152799,1.871478,-3.183070,6.250108,-1.912018,-0.121134,0.189725,-0.020755,19.749598,188.420405,0
0.006250,-0.836893,185.311879,-120.681250,0.552948,5.184422,-4.942381,-0.624808,-4.660722,5.209328,0.496644,-0.150358,0.182409,-0.035692,6.188908,188.420374,0
0.007292,-67.383344,196.921627,-65.665152,1.604778,6.490924,-3.462099,-3.233036,-5.936207,3.618782,3.022716,-0.183235,0.172676,-0.028224,-19.371691,188.491645,0
0.008333,-142.255189,159.821171,-22.294886,2.453028,6.274357,-1.279378,-4.930809,-5.881071,1.579189,4.755387,-0.230724,0.182670,-0.009553,-53.731470,188.493186,0
0.009375,-195.678367,95.973594,25.310227,3.357828,5.141818,1.216862,-6.031563,-4.631316,-0.976597,5.794278,-0.238030,0.189791,-0.017021,-75.944310,188.344265,0
0.010417,-182.702546,50.791013,102.226894,4.828128,3.384431,3.399583,-6.259177,-3.036040,-3.171467,6.114484,-0.281866,0.204162,-0.005818,-77.007450,188.495738,0
0.011458,-137.945039,8.785709,178.626516,6.264498,1.371423,4.987016,-5.692009,-0.951890,-4.782997,5.563018,-0.241683,0.223694,-0.024490,-58.594770,188.495635,0
0.012500,-86.404717,-46.121999,201.093372,6.671658,-1.369392,5.919633,-3.815130,1.742435,-5.786007,3.841020,-0.216112,0.198218,-0.028224,-35.714641,188.495698,0
0.013542,-40.569672,-130.736651,175.930493,6.196638,-3.634470,6.332366,-2.050192,4.047130,-6.209873,2.022961,-0.197847,0.196519,-0.046895,-15.854281,188.345013,0
0.014583,0.580919,-184.762454,121.037500,5.223978,-5.043930,5.137822,0.524454,5.513755,-5.152306,-0.278966,-0.135746,0.193188,-0.035692,-0.631022,188.495731,0
0.015625,67.490330,-197.072895,66.575379,4.183458,-6.343332,3.621823,3.106562,6.792916,-3.624710,-2.869079,-0.088257,0.182474,0.009119,24.024778,188.495716,0
0.016667,142.282778,-159.477122,22.971212,3.312588,-6.176469,1.435134,4.781947,6.741455,-1.538954,-4.534151,-0.015197,0.185610,-0.017021,59.153637,188.495568,0
0.017708,195.524475,-96.221508,-25.372538,2.407788,-4.962274,-1.025388,5.942403,5.465970,1.000045,-5.569484,0.003068,0.194298,-0.020755,81.784947,188.483551,0
0.018750,182.197037,-51.002685,-102.424622,0.982728,-3.219087,-3.223984,6.110314,3.867019,3.144555,-5.925269,-0.015197,0.199524,-0.046895,81.762327,188.495124,0
0.019792,137.847860,-8.622873,-178.848864,-0.510192,-1.262884,-4.779669,5.498370,1.760814,4.802249,-5.377361,-0.037115,0.209780,-0.046895,63.519297,188.495193,0
0.020833,86.364251,46.719748,-200.946402,-0.883422,1.495683,-5.748003,3.684924,-0.871023,5.784275,-3.690941,-0.048074,0.205207,-0.050629,39.067078,188.495193,0
0.021875,40.188931,131.141105,-175.746591,-0.464952,3.753659,-6.172642,1.841627,-3.194097,6.233321,-1.872882,-0.095563,0.196193,-0.039427,19.907938,188.419855,0
0.022917,-0.904948,185.239393,-120.545834,0.575568,5.177321,-4.942381,-0.677048,-4.690128,5.133788,0.461066,-0.146705,0.195670,-0.009553,5.725198,188.495340,0
0.023959,-67.825701,197.042436,-65.468182,1.582158,6.515776,-3.426382,-3.225573,-5.921504,3.643962,3.079641,-0.197847,0.175419,-0.013287,-19.609201,188.495238,0
0.025000,-142.652177,159.482906,-22.060985,2.430408,6.288558,-1.287315,-4.953198,-5.844313,1.545616,4.709135,-0.230724,0.182148,-0.009553,-53.380860,188.495188,0
0.026042,-195.780449,95.768218,25.544129,3.369138,5.134718,1.208924,-6.076340,-4.605585,-0.976597,5.769373,-0.234377,0.190640,-0.043161,-76.351470,188.419676,0
0.027083,-182.600464,50.561475,102.571591,4.816818,3.345377,3.391645,-6.244251,-3.017661,-3.158877,6.114484,-0.281866,0.199198,-0.031958,-75.277020,188.495278,0
0.028125,-137.536709,8.580334,179.143561,6.298428,1.311068,4.975110,-5.673352,-0.863672,-4.791391,5.538113,-0.230724,0.178686,-0.043161,-57.644730,188.495209,0
0.029167,-85.962359,-46.581074,201.191857,6.716898,-1.369392,5.903759,-3.785279,1.790220,-5.773417,3.801884,-0.234377,0.170781,-0.031958,-33.045481,188.495389,0
0.030208,-40.002547,-131.135321,175.708902,6.219258,-3.655771,6.340303,-2.001684,4.109618,-6.226660,2.058539,-0.168623,0.159676,-0.017021,-14.587561,188.495191,0
0.031250,0.943879,-185.197366,120.508144,5.190048,-5.047480,5.078294,0.498334,5.535809,-5.185880,-0.275408,-0.117481,0.197564,-0.050629,-1.185212,188.495289,0
0.032292,68.170880,-197.012490,66.169129,4.172148,-6.414337,3.613886,3.076711,6.829673,-3.654087,-2.876194,-0.077298,0.174505,-0.043161,24.533728,188.475522,0
0.033333,142.498286,-159.295908,22.811174,3.346518,-6.155167,1.443071,4.804335,6.748807,-1.547347,-4.594634,-0.044421,0.185022,-0.039427,58.022637,188.552722,0
0.034375,195.830723,-96.040295,-25.618750,2.396478,-4.976475,-1.076980,5.934940,5.524782,0.970669,-5.619294,-0.011544,0.195539,-0.039427,81.909357,188.563774,0
0.035417,181.924817,-51.051008,-103.077084,0.926178,-3.258140,-3.263670,6.121508,3.855991,3.215899,-5.921711,-0.007891,0.199590,-0.073035,78.844347,188.485780,0
0.036458,137.258050,-8.864491,-179.747538,-0.532812,-1.191878,-4.811417,5.558072,1.779193,4.810643,-5.395150,-0.033462,0.213765,-0.043161,61.947207,188.486951,0
0.037500,86.443648,46.961366,-200.897160,-0.928662,1.531185,-5.815469,3.677461,-0.940863,5.801062,-3.651805,-0.044421,0.204881,-0.039427,39.225418,188.486893,0
0.038542,40.438466,131.998849,-175.488069,-0.476262,3.803363,-6.188516,1.864015,-3.249234,6.296272,-1.879997,-0.102869,0.191555,-0.065566,19.704358,188.554300,0
0.039583,-1.029716,185.408526,-119.893372,0.552948,5.191522,-4.942381,-0.677048,-4.712182,5.171558,0.468182,-0.143052,0.191555,-0.035692,6.268078,188.548747,0
0.040625,-68.982636,197.139084,-65.382008,1.616088,6.579681,-3.485910,-3.270350,-5.928855,3.652355,3.079641,-0.208806,0.174897,-0.046895,-20.005051,188.483528,0
0.041667,-142.697547,158.697647,-22.331818,2.419098,6.316960,-1.259535,-4.986780,-5.873719,1.562402,4.801639,-0.212459,0.181886,-0.039427,-53.912430,188.478771,0
0.042708,-196.563082,95.490357,25.654924,3.369138,5.145369,1.236704,-6.102459,-4.649694,-0.984990,5.872551,-0.252642,0.189464,-0.005818,-76.317540,188.566357,0
0.043750,-181.625009,50.368181,103.100947,4.805508,3.387981,3.455143,-6.274102,-2.995607,-3.221828,6.121600,-0.270907,0.192534,-0.054364,-76.656840,188.489010,0
0.044792,-136.992269,8.761548,180.042235,6.309738,1.335920,5.026702,-5.677083,-0.845293,-4.879521,5.609270,-0.241683,0.177902,-0.043161,-58.176300,188.488751,0
0.045833,-85.746852,-46.689802,200.674811,6.671658,-1.461699,6.026785,-3.807667,1.845356,-5.848957,3.773421,-0.219765,0.170912,-0.039427,-34.979491,188.495636,0
0.046875,-39.832410,-132.077631,175.647349,6.264498,-3.701925,6.399832,-2.020341,4.161079,-6.272823,2.008729,-0.179582,0.164967,-0.058098,-15.220921,188.495792,0
0.047917,1.034619,-185.100719,119.301705,5.178738,-5.132687,5.106074,0.550573,5.594621,-5.185880,-0.375028,-0.095563,0.189203,-0.046895,-0.483992,188.495787,0
0.048958,69.010225,-197.423241,65.295076,4.172148,-6.385935,3.625792,3.140144,6.814970,-3.624710,-2.893984,-0.051727,0.184303,-0.035692,24.725998,188.495577,0
0.050000,142.328148,-158.111979,22.675758,3.346518,-6.151617,1.403385,4.834186,6.763510,-1.543150,-4.612424,-0.004238,0.184303,-0.073035,59.255427,188.495546,0
0.051042,196.749465,-95.375845,-25.914205,2.385168,-5.015528,-1.112697,5.964791,5.521106,1.012636,-5.679778,-0.000585,0.193776,-0.035692,82.169487,188.495694,0
0.052083,181.221582,-50.700662,-103.409470,0.914868,-3.247489,-3.283513,6.143897,3.859667,3.186522,-5.921711,-0.004238,0.200112,-0.024490,81.411717,188.495617,0
0.053125,136.895090,-8.888653,-180.350758,-0.532812,-1.238032,-4.855072,5.554340,1.764490,4.852609,-5.437844,-0.011544,0.202529,-0.024490,63.417507,188.495597,0
0.054167,86.489018,47.372117,-200.404735,-0.872112,1.527635,-5.831343,3.699849,-0.885726,5.813652,-3.683826,-0.073645,0.194821,-0.035692,39.055768,188.495470,0
0.055208,40.404439,132.663299,-175.561932,-0.464952,3.849517,-6.228202,1.890135,-3.289667,6.308862,-1.912018,-0.080951,0.188942,-0.035692,19.930558,188.646404,0
0.056250,-1.097771,185.360202,-119.560985,0.575568,5.244776,-4.934443,-0.662122,-4.704831,5.154771,0.493086,-0.150358,0.190183,-0.046895,5.713888,188.495586,0
0.057292,-69.583789,197.320297,-65.455871,1.593468,6.561930,-3.489879,-3.274081,-5.921504,3.631372,3.076083,-0.205153,0.179339,-0.020755,-20.242561,188.495584,0
0.058333,-143.083192,158.347301,-22.147159,2.453028,6.285008,-1.287315,-5.001705,-5.870043,1.558206,4.762503,-0.234377,0.184499,-0.046895,-53.765400,188.495721,0
0.059375,-197.107522,95.405791,26.085796,3.391758,5.131167,1.260516,-6.121116,-4.671749,-1.014367,5.868993,-0.252642,0.192469,-0.050629,-76.521120,188.646600,0
0.060417,-181.636351,50.488990,103.470265,4.850748,3.387981,3.463080,-6.289028,-2.988255,-3.247008,6.150063,-0.281866,0.198610,-0.002084,-74.971650,188.495805,0
0.061458,-136.527227,8.737386,180.805493,6.287118,1.371423,5.026702,-5.669621,-0.929835,-4.845948,5.573692,-0.248989,0.207755,-0.039427,-57.316740,188.495618,0
0.062500,-85.837592,-47.257604,200.724054,6.637728,-1.426196,5.963288,-3.818861,1.768165,-5.836367,3.816115,-0.186888,0.204620,-0.028224,-32.694871,188.492397,0
0.063542,-39.730327,-132.874971,175.585796,6.185328,-3.673523,6.419675,-2.012878,4.179457,-6.293807,2.022961,-0.157664,0.188354,-0.076769,-14.169091,188.646045,0
0.064583,1.261469,-185.342337,119.141667,5.167428,-5.097184,5.110042,0.569230,5.568891,-5.190076,-0.389260,-0.117481,0.192208,-0.046895,-1.106042,188.495231,0
0.065625,69.702117,-197.362837,65.024243,4.149528,-6.389485,3.641666,3.121487,6.877458,-3.662480,-2.897541,-0.051727,0.170912,-0.024490,24.974818,188.495238,0
0.066667,142.668423,-157.725391,22.121780,3.323898,-6.169368,1.415291,4.845380,6.734104,-1.505380,-4.626655,-0.015197,0.186329,0.001650,58.192287,188.495242,0
0.067708,197.203165,-94.518101,-26.172727,2.396478,-4.997776,-1.076980,5.994642,5.517430,1.050406,-5.697567,0.003068,0.192142,-0.050629,82.373067,188.645987,0
0.068750,180.881307,-49.903322,-103.766478,0.926178,-3.261690,-3.279544,6.158822,3.819234,3.270456,-5.992868,-0.018850,0.199524,-0.039427,78.527667,188.570626,0
0.069792,135.885608,-8.574550,-181.187879,-0.544122,-1.248683,-4.874915,5.599117,1.797571,4.881986,-5.444960,-0.022503,0.203378,-0.058098,61.811487,188.495347,0
0.070833,85.683701,47.770787,-200.429357,-0.894732,1.531185,-5.847218,3.733432,-0.929835,5.884996,-3.701615,-0.073645,0.204554,-0.017021,39.248038,188.495284,0
0.071875,40.279671,133.569367,-175.401894,-0.385782,3.817564,-6.271856,1.916255,-3.297018,6.380206,-1.912018,-0.088257,0.196715,-0.069301,19.647808,188.570589,0
0.072917,-1.188511,185.613901,-119.154735,0.620808,5.298031,-5.013815,-0.695704,-4.778346,5.226115,0.514434,-0.146705,0.195670,-0.046895,6.313318,188.570631,0
0.073958,-70.468504,197.380702,-65.677462,1.604778,6.615184,-3.517659,-3.259156,-6.039128,3.706912,3.090315,-0.223418,0.180776,-0.028224,-20.638411,188.495302,0
0.075000,-143.366754,157.549961,-22.627273,2.441718,6.398617,-1.267472,-5.005437,-5.928855,1.554009,4.780292,-0.219765,0.186459,-0.024490,-54.116010,188.495233,0
0.076042,-197.890154,95.284982,26.282765,3.357828,5.170220,1.236704,-6.169624,-4.704831,-1.014367,5.918803,-0.248989,0.192077,-0.035692,-76.837800,188.570731,0
0.077083,-180.797006,50.682284,104.073485,4.862058,3.409282,3.486891,-6.359924,-3.036040,-3.263794,6.182083,-0.270907,0.203117,-0.039427,-76.283610,188.570689,0
0.078125,-136.323062,8.942761,181.507198,6.332358,1.357222,5.050513,-5.733054,-0.944538,-4.917291,5.655522,-0.267254,0.211479,-0.050629,-58.029270,188.495180,0
0.079167,-85.644769,-47.607951,200.280872,6.649038,-1.461699,6.058534,-3.871100,1.834329,-5.878334,3.809000,-0.212459,0.204881,-0.058098,-34.696741,188.495246,0
0.080208,-39.639587,-133.829362,175.536554,6.174018,-3.726777,6.467298,-2.012878,4.179457,-6.369347,2.079886,-0.183235,0.195278,-0.043161,-14.960791,188.646114,0
0.081250,1.091332,-185.378580,118.452273,5.167428,-5.171740,5.145759,0.580424,5.653433,-5.160700,-0.403491,-0.128440,0.192338,-0.043161,-0.619712,188.570604,0
0.082292,70.382667,-197.592374,64.950379,4.149528,-6.464041,3.669446,3.155069,6.958325,-3.649890,-2.940236,-0.073645,0.176660,-0.043161,25.336738,188.495199,0
0.083333,142.997356,-156.710595,22.171023,3.357828,-6.229723,1.403385,4.893888,6.785564,-1.522167,-4.608866,-0.007891,0.184369,-0.061832,59.470317,188.495162,0
0.084375,197.883715,-94.312725,-26.283523,2.385168,-4.994226,-1.120634,5.990910,5.539485,1.042012,-5.754492,-0.004238,0.191359,-0.039427,82.644507,188.645984,0
0.085417,180.268812,-49.456329,-104.185038,0.914868,-3.268791,-3.323198,6.196136,3.844964,3.253669,-5.996426,0.003068,0.196911,-0.058098,81.117657,188.495244,0
0.086458,135.431908,-8.296689,-181.754167,-0.510192,-1.206079,-4.890789,5.576728,1.731408,4.915560,-5.476980,-0.022503,0.201092,-0.046895,63.191307,188.495322,0
0.087500,85.116576,48.048647,-200.109281,-0.894732,1.577339,-5.874998,3.729700,-0.981296,5.880799,-3.680268,-0.037115,0.206057,-0.058098,38.739088,188.495251,0
0.088542,39.349586,134.088846,-175.217235,-0.431022,3.867268,-6.279793,1.890135,-3.293343,6.329845,-1.876439,-0.095563,0.199394,-0.024490,19.738288,188.721375,0
0.089583,-1.358648,185.565578,-118.588447,0.632118,5.230575,-4.954286,-0.721824,-4.745264,5.146378,0.532223,-0.135746,0.190705,-0.039427,5.781748,188.570640,0
0.090625,-71.103684,197.392783,-65.369697,1.604778,6.590332,-3.466067,-3.289007,-5.998695,3.652355,3.108104,-0.205153,0.179861,-0.020755,-20.796751,188.495296,0
0.091667,-143.604947,157.163372,-22.491856,2.407788,6.324061,-1.247629,-5.042750,-5.881071,1.507845,4.787408,-0.241683,0.186133,-0.039427,-54.093390,188.495289,0
0.092708,-198.219087,95.333306,26.627462,3.357828,5.173771,1.347825,-6.113654,-4.664397,-1.018564,5.929476,-0.267254,0.194560,-0.050629,-76.645530,188.645984,0
0.093750,-180.638211,50.476909,104.602841,4.839438,3.348928,3.514672,-6.315148,-2.995607,-3.293171,6.132274,-0.267254,0.200308,-0.046895,-74.734140,188.570671,0
0.094792,-135.926074,9.075651,182.110417,6.321048,1.357222,5.054482,-5.710666,-0.859996,-4.866931,5.602154,-0.241683,0.210891,-0.050629,-57.169710,188.495365,0
0.095833,-85.848934,-47.885811,200.207008,6.660348,-1.468800,6.026785,-3.796473,1.841680,-5.899318,3.801884,-0.168623,0.202399,-0.039427,-32.479981,188.495318,0
0.096875,-39.855095,-134.312599,175.290341,6.230568,-3.737428,6.376020,-1.990490,4.142700,-6.344167,2.026518,-0.201500,0.194037,-0.039427,-14.078611,188.646105,0
0.097917,1.306839,-185.668522,118.156819,5.133498,-5.168190,5.114011,0.625201,5.638730,-5.152306,-0.449743,-0.135746,0.191816,-0.035692,-1.139972,188.570437,0
0.098958,71.165300,-197.374918,64.778030,4.138218,-6.449840,3.641666,3.207309,6.932594,-3.620513,-2.972256,-0.080951,0.176334,-0.065566,25.483768,188.495166,0
0.100000,143.167493,-156.529381,21.974053,3.301278,-6.148067,1.391479,4.942396,6.763510,-1.476003,-4.683581,-0.015197,0.183781,-0.031958,58.531587,188.570667,0
0.101042,198.189963,-94.034865,-26.665152,2.373858,-5.004877,-1.192069,6.020761,5.513755,1.079783,-5.747377,-0.011544,0.191228,-0.017021,82.587957,188.645986,0
0.102083,179.849140,-49.057659,-104.775947,0.892248,-3.222637,-3.358916,6.177479,3.782476,3.266260,-6.010657,0.010374,0.195213,-0.009553,78.120507,188.570568,0
0.103125,134.989550,-8.127556,-182.271213,-0.555432,-1.135074,-4.886820,5.546877,1.727732,4.886183,-5.441402,-0.018850,0.184434,-0.039427,61.540047,188.495282,0
0.104167,84.651533,48.435236,-200.318561,-0.860802,1.602191,-5.874998,3.699849,-0.999675,5.868209,-3.644689,-0.022503,0.182017,-0.050629,38.569438,188.570796,0
0.105208,39.020654,134.656648,-175.081819,-0.476262,3.881469,-6.291699,1.882672,-3.297018,6.367616,-1.887113,-0.099216,0.169997,0.001650,19.206718,188.570492,0
0.106250,-1.732951,186.109218,-117.640531,0.609498,5.312232,-4.946349,-0.785257,-4.763643,5.137985,0.599822,-0.121134,0.182997,-0.017021,6.211528,188.570615,0
0.107292,-71.784234,197.477349,-64.926515,1.582158,6.625835,-3.466067,-3.296469,-6.061182,3.664945,3.125893,-0.175929,0.176530,-0.017021,-21.271771,188.495211,0
0.108333,-143.752399,156.293547,-22.405682,2.430408,6.316960,-1.211912,-5.050213,-5.895774,1.470075,4.855007,-0.234377,0.183128,-0.031958,-54.330900,188.570593,0
0.109375,-198.627417,94.958798,27.058333,3.403068,5.177321,1.363699,-6.214401,-4.653370,-1.115088,5.968613,-0.238030,0.192404,0.001650,-77.131860,188.570562,0
0.110417,-179.889606,50.295696,105.181440,4.850748,3.366679,3.558326,-6.341267,-2.969877,-3.301565,6.164294,-0.234377,0.200047,-0.002084,-75.978240,188.570571,0
0.111458,-135.687882,8.930680,182.418182,6.343668,1.311068,5.070356,-5.699471,-0.874699,-4.917291,5.612828,-0.241683,0.197303,-0.043161,-57.984030,188.499212,0
0.112500,-85.848934,-48.272400,199.751516,6.637728,-1.486551,6.058534,-3.789010,1.882114,-5.907711,3.794768,-0.263601,0.193710,-0.031958,-34.606261,188.573089,0
0.113542,-40.036575,-134.880401,175.327273,6.207948,-3.755179,6.475235,-1.956907,4.219891,-6.377740,2.019403,-0.172276,0.191751,-0.035692,-14.960791,188.646652,0
0.114584,1.306839,-185.632279,117.775190,5.122188,-5.214343,5.110042,0.681171,5.664460,-5.114536,-0.478206,-0.117481,0.190379,-0.031958,-0.563162,188.570582,0
0.115625,71.721082,-197.362837,64.814962,4.149528,-6.499544,3.609918,3.233428,6.958325,-3.607923,-3.000719,-0.040768,0.175027,-0.046895,25.970098,188.495162,0
0.116666,143.643878,-155.732041,22.060227,3.289968,-6.201321,1.359731,4.972246,6.767186,-1.484397,-4.683581,-0.000585,0.184042,-0.005818,59.719137,188.570691,0
0.117708,198.575608,-94.010703,-27.022159,2.351238,-4.994226,-1.184132,5.994642,5.535809,1.088176,-5.743819,0.010374,0.191816,-0.020755,82.859397,188.645953,0
0.118750,179.520207,-49.009335,-105.169887,0.914868,-3.140981,-3.362884,6.192404,3.800855,3.325013,-5.989310,-0.004238,0.198218,-0.024490,80.925387,188.570575,0
0.119791,134.842098,-8.018828,-182.505114,-0.566742,-1.184778,-4.882852,5.517027,1.683623,4.902970,-5.423613,-0.000585,0.206775,-0.043161,62.965107,188.495253,0
0.120834,84.254545,49.075524,-199.776895,-0.906042,1.666096,-5.902778,3.662536,-1.062162,5.914373,-3.598437,-0.055380,0.193841,-0.039427,38.037868,188.570830,0
0.121878,38.476213,135.707687,-174.823296,-0.419712,3.895671,-6.267888,1.778194,-3.381561,6.388599,-1.833745,-0.099216,0.185479,-0.043161,19.082308,188.507350,0
0.122916,-1.948458,185.928005,-117.258902,0.688668,5.319332,-4.898726,-0.803914,-4.782021,5.100214,0.642516,-0.132093,0.189725,-0.028224,5.646028,188.571199,0
0.123958,-72.022426,197.368621,-64.101705,1.616088,6.625835,-3.450193,-3.352440,-6.035452,3.618782,3.161472,-0.175929,0.176726,-0.005818,-21.237841,188.495734,0
0.125000,-143.888509,155.919039,-21.470076,2.464338,6.260156,-1.203975,-5.027825,-5.870043,1.428108,4.798081,-0.238030,0.184238,-0.024490,-54.376140,188.571232,0
0.126041,-198.763527,94.294348,27.242993,3.414378,5.109866,1.347825,-6.158430,-4.616613,-1.089908,5.915245,-0.259948,0.191555,-0.024490,-76.713390,188.646484,0
0.127083,-179.855579,49.776217,105.341478,4.884678,3.295674,3.562295,-6.289028,-2.962525,-3.318351,6.150063,-0.241683,0.197042,-0.039427,-74.530560,188.571091,0
