1-Time,2-VGERA,3-VGERB,4-VGERC,5-VN,6-IGERAN,7-IGERBN,8-IGERCN,9-IGERAT,10-IGERBT,11-IGERCT,12-IN,13-IFD,14-IFAULT,15-VFAULT,16-Speed (rad/s),17-Active Power,18-Reactive Power,19-FAULT 
0.000000,-128.213174,190.385858,-28.191667,2.305998,3.448336,-4.160570,0.393856,-3.164691,4.210515,-0.428396,-0.135746,0.394911,-0.054364,-15.481051,188.646261,1226.491988,-21.412715,0
0.001042,-164.883478,149.661131,40.464583,3.640578,4.108687,-3.180329,-1.191977,-3.973356,3.337603,1.044553,-0.150358,0.396871,-0.046895,2.456608,188.570984,1226.831134,-21.751355,0
0.002083,-193.534634,73.623921,92.242993,4.647168,4.676732,-1.759576,-2.953183,-4.377689,1.872958,2.837707,-0.183235,0.396675,-0.035692,13.789228,188.495542,1226.696024,-21.639135,0
0.003125,-173.016051,7.033978,149.241099,5.687688,4.144190,-0.338823,-3.714383,-3.962329,0.500639,3.510141,-0.227071,0.388901,-0.046895,31.579858,188.721766,1225.684488,-21.110377,0
0.004167,-127.067581,-54.445742,189.213637,6.468078,3.235319,1.470851,-4.382298,-3.047067,-1.299742,4.267962,-0.223418,0.400987,-0.046895,43.138678,188.646379,1225.651044,-21.148093,0
0.005208,-55.439691,-110.380328,193.386932,6.535938,1.651895,3.010661,-4.203192,-1.495901,-2.877699,4.100743,-0.205153,0.399223,-0.061832,48.239487,188.571027,1224.874469,-20.846651,0
0.006250,9.700290,-167.281386,164.395455,6.015678,-0.009635,4.105991,-3.628561,0.125105,-3.985626,3.506583,-0.223418,0.407911,-0.046895,52.152747,188.495600,1225.308742,-20.664378,0
0.007292,69.293787,-184.424188,107.729735,4.873368,-1.767023,4.363948,-2.016609,1.918871,-4.325558,2.090560,-0.179582,0.400660,-0.031958,37.890838,188.721630,1224.969369,-20.459402,0
0.008333,127.662295,-190.319670,27.698485,3.436998,-3.329146,4.256797,-0.520330,3.462686,-4.262607,0.574917,-0.146705,0.394193,-0.046895,21.118108,188.721708,1224.773084,-20.052369,0
0.009375,164.287229,-149.147949,-40.883902,2.136348,-4.010799,3.308305,1.031920,4.260324,-3.368712,-0.887358,-0.113828,0.395499,-0.005818,1.529188,188.542221,1224.345326,-19.709467,0
0.010417,192.983755,-73.231548,-92.317614,1.174998,-4.514939,1.907395,2.785664,4.690387,-1.920853,-2.637819,-0.113828,0.400660,-0.054364,-8.378371,188.631164,1223.628197,-19.086446,0
0.011458,172.862159,-7.608077,-149.266478,0.089238,-4.067603,0.550139,3.535669,4.293406,-0.598895,-3.345830,-0.066339,0.419800,-0.020755,-27.141661,188.671330,1223.224934,-18.120260,0
0.012500,127.344705,54.270313,-189.115910,-0.679842,-3.130330,-1.295252,4.244629,3.348738,1.218273,-4.068073,-0.051727,0.412614,-0.065566,-39.039781,188.577469,1222.560209,-18.462706,0
0.013542,55.716814,110.748539,-193.326137,-0.747702,-1.571758,-2.819188,4.046867,1.834329,2.808820,-3.979127,-0.044421,0.414182,-0.050629,-42.715531,188.571310,1222.229780,-18.703280,0
0.014583,-10.727554,167.395898,-164.100758,-0.227442,0.043619,-3.914517,3.446116,0.209647,3.878977,-3.367177,-0.033462,0.412092,-0.020755,-47.940751,188.495673,1221.304513,-17.824942,0
0.015625,-69.867351,184.623267,-107.176515,0.835698,1.879113,-4.208193,1.953568,-1.584119,4.223106,-1.944039,-0.077298,0.403534,-0.050629,-35.839051,188.729446,1220.052568,-16.990113,0
0.016667,-127.816186,190.301292,-26.923674,2.396478,3.348928,-4.124852,0.464752,-3.069122,4.210515,-0.474648,-0.132093,0.393213,-0.031958,-16.295371,188.581263,1219.224725,-15.443306,0
0.017708,-164.577230,149.673212,41.178599,3.674508,4.051883,-3.235890,-1.124812,-3.870435,3.295636,0.987627,-0.143052,0.400921,-0.039427,2.705428,188.570953,1217.593844,-14.530416,0
0.018750,-193.035564,74.674960,92.698485,4.681098,4.637679,-1.787356,-2.852436,-4.307850,1.872958,2.748761,-0.190541,0.398765,-0.054364,14.626168,188.495351,1216.281905,-13.826439,0
0.019792,-173.435723,8.749467,149.524243,5.698998,4.083835,-0.394384,-3.662144,-3.962329,0.555196,3.488793,-0.190541,0.410263,-0.046895,31.681648,188.721478,1216.341032,-13.520145,0
0.020833,-127.657391,-54.179962,189.078220,6.456768,3.228218,1.427196,-4.333790,-3.013986,-1.249382,4.203921,-0.219765,0.414378,-0.043161,43.455357,188.721483,1215.216261,-13.268127,0
0.021875,-54.611688,-110.537380,193.608523,6.558558,1.641244,2.931290,-4.169610,-1.514280,-2.789568,4.079396,-0.183235,0.405559,-0.028224,49.053807,188.570817,1214.370034,-12.095804,0
0.022917,11.276897,-167.088091,163.853788,5.993058,0.032968,4.030587,-3.572591,0.172890,-3.914282,3.506583,-0.201500,0.375444,-0.031958,51.869997,188.570602,1213.485229,-11.757521,0
0.023958,69.894940,-184.520836,107.151137,4.907298,-1.727970,4.292514,-2.050192,1.867411,-4.254214,2.097675,-0.172276,0.393605,-0.073035,39.428998,188.721458,1212.473018,-10.792129,0
0.025000,127.968542,-189.824353,27.489205,3.436998,-3.183584,4.225048,-0.576301,3.411226,-4.208050,0.660305,-0.102869,0.396871,-0.020755,21.152038,188.646210,1211.567148,-9.436091,0
0.026042,164.627504,-149.764075,-40.416099,2.170278,-3.875888,3.312274,0.994606,4.150051,-3.372908,-0.812643,-0.091910,0.403795,-0.054364,2.117308,188.570571,1210.445402,-8.270771,0
0.027083,192.462000,-74.705418,-92.699243,1.163688,-4.451034,1.887552,2.778201,4.672008,-1.958623,-2.605798,-0.055380,0.399811,-0.043161,-7.631911,188.570774,1210.332219,-7.837884,0
0.028125,173.043639,-7.656401,-149.352652,0.077928,-3.982397,0.518391,3.475967,4.267675,-0.569518,-3.345830,-0.066339,0.413856,-0.039427,-26.666641,188.721501,1210.101297,-8.323158,0
0.029167,126.414620,55.417999,-188.771213,-0.634602,-3.101928,-1.295252,4.222241,3.367117,1.197290,-4.043168,-0.033462,0.385113,-0.050629,-38.033191,188.646071,1209.700280,-7.406121,0
0.030208,53.777247,111.014319,-193.720076,-0.759012,-1.514953,-2.799345,4.020747,1.863735,2.771050,-3.932875,-0.044421,0.368193,-0.028224,-42.692911,188.570680,1208.931987,-6.323904,0
0.031250,-11.612269,167.335494,-163.879167,-0.227442,0.043619,-3.914517,3.468504,0.213323,3.887370,-3.370735,-0.066339,0.396740,-0.043161,-48.189570,188.570510,1208.993267,-6.030430,0
0.032292,-70.003461,184.695753,-107.471970,0.869628,1.832959,-4.196287,1.934911,-1.551037,4.214712,-1.954712,-0.124787,0.408826,-0.050629,-34.843771,188.721509,1208.883765,-5.601096,0
0.033333,-128.553449,189.793894,-28.031629,2.317308,3.359579,-4.140727,0.434901,-3.061770,4.126582,-0.463974,-0.124787,0.395891,-0.080503,-15.526291,188.570633,1207.912975,-6.066179,0
0.034382,-165.461945,148.585931,41.535606,3.606648,4.062534,-3.128738,-1.169588,-3.866760,3.291440,1.001859,-0.161317,0.398765,-0.058098,2.581018,188.570731,1207.890718,-5.878646,0
0.035416,-192.990194,73.889701,93.055493,4.613238,4.605726,-1.723859,-2.904675,-4.300498,1.835187,2.755877,-0.172276,0.397198,-0.031958,13.992808,188.570792,1207.592872,-6.084550,0
0.036458,-173.004708,6.949412,149.413447,5.698998,4.090936,-0.354698,-3.602442,-3.888814,0.500639,3.453215,-0.219765,0.382826,-0.065566,31.681648,188.721482,1206.241407,-6.315748,0
0.037500,-126.511799,-55.484700,188.893561,6.456768,3.189165,1.447039,-4.337521,-2.933119,-1.274562,4.182574,-0.227071,0.381193,-0.054364,43.161298,188.570586,1205.281372,-6.665410,0
0.038541,-53.965166,-111.020616,193.362311,6.626418,1.630593,2.959070,-4.132296,-1.488549,-2.793765,4.047375,-0.190541,0.397982,-0.035692,48.205557,188.570653,1204.788833,-6.766644,0
0.039583,10.709772,-167.378033,163.866099,6.038298,0.043619,3.982964,-3.594979,0.106726,-3.880708,3.517256,-0.205153,0.408956,-0.046895,51.983097,188.570732,1204.590752,-5.883251,0
0.040625,69.974337,-184.049680,107.828220,4.918608,-1.703118,4.336168,-1.994221,1.860059,-4.237427,2.111907,-0.179582,0.404383,-0.024490,37.856908,188.724449,1204.426555,-5.793617,0
0.041666,128.274790,-189.751867,27.747727,3.425688,-3.197785,4.181394,-0.553912,3.425929,-4.161887,0.589148,-0.124787,0.397067,-0.043161,21.174658,188.576196,1203.911379,-6.902671,0
0.042708,164.525421,-149.099625,-41.277841,2.136348,-3.893640,3.292431,0.998338,4.131673,-3.326745,-0.876685,-0.099216,0.397132,-0.069301,1.382158,188.570551,1203.334193,-7.608033,0
0.043750,192.541398,-72.977849,-92.994697,1.174998,-4.465235,1.875646,2.759544,4.605844,-1.883082,-2.538199,-0.084604,0.395630,-0.043161,-8.627191,188.570613,1201.585790,-7.276915,0
0.044791,172.431144,-6.122126,-149.266478,0.077928,-3.964645,0.530297,3.434922,4.256648,-0.607288,-3.296020,-0.037115,0.373746,-0.076769,-27.209521,188.721494,1200.802767,-6.089633,0
0.045833,126.471332,55.623374,-188.697349,-0.657222,-3.066425,-1.271441,4.188659,3.367117,1.180503,-4.011148,-0.044421,0.387268,-0.050629,-38.983231,188.570680,1200.378025,-5.785593,0
0.046875,55.058949,111.412989,-193.030682,-0.781632,-1.564657,-2.763628,3.998359,1.834329,2.729083,-3.947106,-0.051727,0.406343,-0.046895,-42.647671,188.570770,1200.137515,-5.897287,0
0.047916,-10.387279,167.589193,-163.805304,-0.216132,0.022317,-3.866894,3.408802,0.216999,3.799240,-3.360062,-0.062686,0.408826,-0.084238,-47.714551,188.570645,1199.153984,-5.752334,0
0.048958,-70.400449,184.224597,-107.164205,0.858318,1.822308,-4.132789,1.912523,-1.517955,4.164352,-1.947596,-0.073645,0.396479,-0.050629,-35.782501,188.721547,1198.238070,-5.273292,0
0.050001,-128.553449,189.745570,-26.578977,2.385168,3.327626,-4.045481,0.449826,-3.047067,4.063631,-0.463974,-0.117481,0.389881,-0.065566,-16.125721,188.570727,1197.348823,-5.011714,0
0.051051,-164.860793,148.066452,42.926705,3.708438,4.005729,-3.128738,-1.106155,-3.796920,3.236883,0.987627,-0.150358,0.398112,-0.039427,3.203068,188.501847,1195.912070,-4.606407,0
0.052097,-193.500607,71.521844,94.631250,4.681098,4.573774,-1.731796,-2.859899,-4.271092,1.856171,2.709625,-0.143052,0.401574,-0.054364,15.259528,188.570680,1195.473481,-3.055137,0
0.053128,-172.755173,7.227273,150.090531,5.698998,4.080285,-0.410258,-3.539008,-3.899841,0.513229,3.410521,-0.219765,0.409021,-0.065566,31.930468,188.721552,1195.273323,-2.529653,0
0.054167,-127.351144,-54.868574,188.856629,6.388908,3.221118,1.399416,-4.251700,-3.025013,-1.236792,4.146995,-0.223418,0.408760,-0.061832,43.466667,188.570622,1195.548824,-1.578933,0
0.055208,-55.417006,-111.177667,193.350001,6.502008,1.698048,2.895572,-4.080057,-1.506928,-2.781175,3.994008,-0.223418,0.409283,-0.069301,48.974637,188.495367,1195.082723,-1.726835,0
0.056250,11.242870,-167.317628,163.546023,5.970438,0.075571,3.978996,-3.494232,0.110402,-3.821955,3.449657,-0.194194,0.400399,-0.035692,51.655107,188.645978,1193.719264,-1.710526,0
0.057292,70.847710,-184.315460,106.843372,4.907298,-1.678266,4.260765,-2.065117,1.852708,-4.208050,2.079886,-0.161317,0.391645,-0.035692,39.281968,188.721342,1193.161899,-1.474768,0
0.058333,128.081967,-189.655220,26.639773,3.414378,-3.208436,4.221079,-0.598689,3.381820,-4.145100,0.603380,-0.168623,0.392821,-0.054364,20.880598,188.570712,1192.538289,-0.773392,0
0.059375,164.514079,-149.317081,-41.462500,2.147658,-3.843936,3.284494,0.961024,4.127997,-3.347728,-0.769949,-0.121134,0.400856,-0.017021,1.913728,188.495307,1192.498597,0.654059,0
0.060420,192.371260,-73.485247,-93.831818,1.129758,-4.429732,1.887552,2.725962,4.605844,-1.946033,-2.545315,-0.088257,0.400333,-0.069301,-7.903351,188.646190,1193.023335,1.293219,0
0.061458,172.748734,-7.704725,-149.882008,0.100548,-3.939793,0.538234,3.416265,4.172106,-0.645058,-3.281789,-0.044421,0.411504,-0.043161,-26.892841,188.646140,1192.292686,1.057983,0
0.062500,126.788922,55.611293,-188.648107,-0.657222,-3.041573,-1.215880,4.181196,3.293602,1.142733,-3.982685,-0.062686,0.411243,-0.043161,-38.157601,188.570803,1191.295893,0.865196,0
0.063541,53.845302,111.678769,-193.400001,-0.725082,-1.536255,-2.767597,3.990896,1.882114,2.724886,-3.929317,-0.044421,0.403730,-0.050629,-42.647671,188.495229,1191.257644,1.714999,0
0.064583,-12.111339,167.504626,-163.448296,-0.159582,0.040068,-3.843083,3.423728,0.220675,3.778256,-3.328041,-0.059033,0.408303,-0.050629,-48.110400,188.646087,1190.625420,2.177328,0
0.065625,-71.069656,184.550782,-106.487122,0.892248,1.790356,-4.136758,1.934911,-1.503252,4.143368,-1.944039,-0.091910,0.380736,-0.069301,-34.651501,188.513605,1190.354989,2.642814,0
0.066666,-128.655531,189.564357,-27.071402,2.351238,3.267271,-4.057386,0.472214,-3.013986,4.134975,-0.513784,-0.139399,0.396936,-0.061832,-15.424501,188.513918,1190.982274,3.649839,0
0.067708,-165.144355,149.576565,41.178599,3.640578,3.977327,-3.164455,-1.072573,-3.785893,3.304030,0.952049,-0.154011,0.403730,-0.046895,2.388748,188.504261,1191.657389,3.963478,0
0.068750,-192.604549,74.276290,93.831061,4.624548,4.509869,-1.723859,-2.841242,-4.241686,1.860367,2.691836,-0.183235,0.398961,-0.076769,14.117218,188.653889,1191.208728,3.360744,0
0.069791,-172.709803,7.178949,149.930493,5.721618,4.058983,-0.390415,-3.572591,-3.896166,0.542606,3.431868,-0.205153,0.410851,-0.076769,31.873918,188.578727,1191.359885,3.541062,0
0.070833,-126.647909,-55.859208,188.733523,6.434148,3.157213,1.371636,-4.285282,-2.999283,-1.253579,4.154111,-0.212459,0.415750,-0.065566,43.161298,188.579337,1191.208818,3.506430,0
0.071875,-53.227903,-111.636742,193.140720,6.581178,1.651895,2.883667,-4.128565,-1.499577,-2.797962,3.990450,-0.223418,0.412092,-0.035692,48.194247,188.506563,1191.058832,3.932807,0
0.072916,12.354435,-167.498842,163.459849,5.970438,0.121725,3.978996,-3.531546,0.103051,-3.834545,3.456773,-0.219765,0.406735,-0.031958,51.971787,188.665892,1191.281749,4.337816,0
0.073958,70.961135,-183.904710,107.237311,4.929918,-1.685367,4.240922,-2.050192,1.852708,-4.195460,2.062097,-0.194194,0.397328,-0.024490,37.743808,188.519658,1190.970412,4.105753,0
0.075013,129.715287,-189.196146,26.393561,3.403068,-3.126780,4.149645,-0.553912,3.381820,-4.161887,0.599822,-0.154011,0.400399,-0.046895,20.857978,188.581195,1191.338544,4.540684,0
0.076055,165.058519,-147.202923,-42.804356,2.091108,-3.925592,3.201153,0.994606,4.120645,-3.276385,-0.883800,-0.128440,0.399680,-0.039427,1.212508,188.507229,1190.663197,3.445479,0
0.077101,193.290003,-70.513345,-95.062879,1.095828,-4.394229,1.879615,2.744619,4.613196,-1.908263,-2.570220,-0.069992,0.399027,-0.069301,-9.237931,188.654123,1190.774747,3.758035,0
0.078135,171.330922,-4.914036,-150.275947,0.066618,-3.918492,0.518391,3.442385,4.186809,-0.561124,-3.285347,-0.037115,0.407454,-0.050629,-27.605371,188.578951,1190.540513,3.764601,0
0.079174,125.371110,57.061002,-189.103599,-0.657222,-3.055774,-1.235723,4.166271,3.319332,1.138536,-3.979127,-0.048074,0.390730,-0.065566,-38.994541,188.581198,1190.634490,4.696869,0
0.080217,52.994614,112.838536,-192.649054,-0.736392,-1.564657,-2.731879,3.975971,1.819626,2.724886,-3.875949,-0.026156,0.398439,-0.065566,-42.738151,188.495884,1189.683206,4.407308,0
0.081254,-11.714351,168.084510,-163.251326,-0.193512,0.001015,-3.811334,3.483430,0.216999,3.807633,-3.335157,-0.062686,0.403208,-0.073035,-47.725861,188.646169,1190.159156,4.251495,0
0.082293,-71.058314,183.946737,-106.917993,0.858318,1.808107,-4.093104,1.905060,-1.488549,4.147565,-1.961828,-0.102869,0.400791,-0.028224,-35.635471,188.570743,1190.150675,4.462585,0
0.083333,-129.154601,189.395224,-26.665152,2.339928,3.292123,-4.049449,0.475946,-2.995607,4.126582,-0.488879,-0.117481,0.393343,-0.039427,-16.159651,188.570839,1189.882504,4.497768,0
0.084375,-164.758710,149.165814,42.409659,3.685818,3.970226,-3.116832,-1.038990,-3.756487,3.253669,0.948491,-0.157664,0.395434,-0.043161,3.180448,188.495323,1189.008020,4.603799,0
0.085416,-192.525152,72.705772,94.175758,4.658478,4.541821,-1.771482,-2.796466,-4.252713,1.860367,2.695394,-0.175929,0.395630,-0.061832,15.157738,188.721518,1188.991420,5.012902,0
0.086458,-172.551008,6.200396,149.659660,5.721618,4.051883,-0.442007,-3.483038,-3.888814,0.618146,3.360711,-0.201500,0.393082,-0.035692,31.851298,188.570644,1188.151035,6.572513,0
0.087500,-126.557169,-55.690075,188.708902,6.479388,3.171414,1.359731,-4.262894,-2.973552,-1.186431,4.104301,-0.227071,0.415619,-0.073035,43.500597,188.570662,1187.085684,7.192835,0
0.088541,-54.861223,-111.745470,193.005304,6.547248,1.715800,2.879698,-4.106177,-1.532658,-2.739208,4.004681,-0.216112,0.408434,-0.046895,48.929397,188.495133,1187.090664,7.717515,0
0.089583,11.152130,-167.643813,163.225947,6.015678,0.096873,3.911530,-3.539008,0.055266,-3.809364,3.446099,-0.205153,0.408172,-0.058098,51.553317,188.721541,1186.688805,8.050291,0
0.090625,71.142615,-183.977195,106.781819,4.884678,-1.674716,4.221079,-2.035266,1.819626,-4.166083,2.054981,-0.168623,0.401574,-0.069301,39.180178,188.495233,1186.119584,8.496914,0
0.091666,128.671777,-189.329035,26.319697,3.403068,-3.130330,4.165519,-0.591226,3.300953,-4.086346,0.617611,-0.117481,0.393343,-0.046895,20.699638,188.570729,1184.474668,8.859819,0
0.092708,164.548106,-148.652632,-42.545833,2.136348,-3.822634,3.280525,0.908785,4.072861,-3.351925,-0.784181,-0.077298,0.397263,-0.043161,1.529188,188.495255,1184.557549,10.430500,0
0.093750,192.235150,-72.482532,-94.225758,1.152378,-4.387129,1.907395,2.677454,4.547032,-1.937640,-2.531083,-0.084604,0.402489,-0.043161,-8.039071,188.721617,1183.533231,10.465004,0
0.094791,172.249664,-6.786576,-150.177463,0.089238,-3.953995,0.605700,3.423728,4.179457,-0.611485,-3.253326,-0.059033,0.407976,-0.024490,-27.017251,188.495209,1183.448543,10.629512,0
0.095833,126.664155,55.901235,-188.808145,-0.668532,-3.098378,-1.215880,4.155076,3.297277,1.155323,-3.950664,-0.007891,0.412026,-0.054364,-38.180221,188.574065,1183.097244,9.770920,0
0.096875,54.344372,112.258652,-193.067614,-0.759012,-1.546906,-2.692194,3.990896,1.849032,2.666132,-3.907970,-0.037115,0.412941,-0.054364,-42.613741,188.495541,1183.289715,10.196162,0
0.097916,-12.190736,167.806649,-163.288258,-0.238752,0.015216,-3.827209,3.397608,0.235378,3.769863,-3.328041,-0.102869,0.397459,-0.031958,-48.155640,188.721802,1182.758797,10.648482,0
0.098958,-71.557384,184.417892,-105.896212,0.869628,1.797456,-4.120884,1.912523,-1.517955,4.155958,-1.919134,-0.080951,0.401640,-0.020755,-34.515781,188.495535,1182.755070,10.276523,0
0.100000,-129.154601,189.552276,-25.803409,2.407788,3.228218,-4.085166,0.475946,-2.995607,4.118188,-0.492437,-0.099216,0.393343,-0.043161,-15.164371,188.570884,1182.677873,10.491944,0
0.101041,-165.042273,148.815468,42.261932,3.674508,3.991528,-3.132706,-1.057647,-3.793245,3.283046,0.948491,-0.132093,0.403600,-0.039427,2.603638,188.495883,1183.323096,10.621078,0
0.102083,-192.876769,73.768892,94.458902,4.681098,4.538271,-1.755608,-2.785272,-4.289471,1.889744,2.645584,-0.197847,0.401640,-0.035692,14.252938,188.721808,1183.846947,11.246786,0
0.103125,-172.267446,7.142706,150.533713,5.698998,4.066084,-0.422164,-3.568859,-3.892490,0.584573,3.421194,-0.186888,0.412549,-0.035692,32.122738,188.495582,1184.596879,10.366017,0
0.104166,-126.659251,-56.040422,188.967425,6.456768,3.174964,1.387511,-4.274088,-3.013986,-1.173841,4.129206,-0.248989,0.411765,-0.039427,43.127368,188.571105,1185.267730,10.866104,0
0.105210,-53.216561,-112.385758,192.832955,6.524628,1.634143,2.879698,-4.072594,-1.462819,-2.797962,3.979776,-0.194194,0.396152,-0.035692,48.296037,188.495736,1185.035068,10.094539,0
0.106250,12.989615,-167.643813,163.262879,6.015678,0.068471,3.975027,-3.580053,0.150835,-3.834545,3.474562,-0.212459,0.367148,-0.035692,52.005717,188.721922,1185.625178,9.551565,0
0.107292,71.947932,-183.892629,106.264773,4.907298,-1.653414,4.236954,-2.050192,1.871086,-4.161887,2.062097,-0.175929,0.392821,-0.069301,37.551538,188.495694,1185.862868,9.403969,0
0.108333,129.148162,-189.268631,26.762879,3.425688,-3.165833,4.189331,-0.636003,3.337711,-4.174477,0.638958,-0.139399,0.396806,-0.046895,21.197278,188.571114,1187.296876,9.673698,0
0.109375,164.945094,-148.725117,-41.794886,2.113728,-3.861687,3.268619,0.934904,4.050806,-3.356122,-0.777065,-0.088257,0.403795,-0.035692,1.529188,188.495769,1187.150175,9.720790,0
0.110417,192.575425,-73.159063,-94.336553,1.118448,-4.422631,1.947081,2.707305,4.616872,-1.925049,-2.516852,-0.062686,0.402489,-0.043161,-8.898631,188.712431,1187.986569,9.625324,0
0.111458,171.795964,-5.820104,-150.202084,0.043998,-3.957545,0.566014,3.434922,4.230918,-0.624075,-3.249768,-0.040768,0.409675,-0.061832,-27.560131,188.553612,1188.361102,10.349302,0
