1-Time,2-VGERA,3-VGERB,4-VGERC,5-VN,6-IGERAN,7-IGERBN,8-IGERCN,9-IGERAT,10-IGERBT,11-IGERCT,12-IN,13-IFD,14-IFAULT,15-VFAULT,16-Speed (rad/s),17-Active Power,18-Reactive Power,19-FAULT 
0.000000,183.123691,-120.552192,-19.899423,-0.057288,-6.426919,1.920096,4.628951,6.614305,-1.958647,-4.437401,-0.047102,0.328260,-0.056273,62.028579,188.495671,1507.538949,-897.335227,0
0.001042,193.485723,-59.818745,-84.910867,-1.363367,-5.671008,-0.799265,6.351098,5.740198,0.742716,-6.140648,0.040407,0.333841,-0.089723,60.486188,188.495671,1507.313922,-897.579262,0
0.002083,166.332002,-9.585337,-153.203262,-2.703224,-4.045432,-2.911194,6.597119,4.351057,2.809957,-6.560783,0.014883,0.335012,-0.052556,41.043062,188.495740,1507.710083,-897.223492,0
0.003125,103.967714,38.686655,-201.020090,-3.649005,-1.638257,-4.854169,6.036948,1.993507,4.725009,-5.932474,0.007591,0.346105,-0.067423,17.648263,188.646542,1507.419840,-897.356321,0
0.004167,50.270469,107.207044,-190.326619,-3.423819,0.952391,-6.077076,4.602457,-0.469226,6.132762,-4.656930,-0.025225,0.343487,-0.063706,3.395224,188.495687,1507.558658,-897.659835,0
0.005208,1.940689,172.509300,-142.072331,-2.523075,3.465979,-6.491417,2.622934,-2.815895,6.521690,-2.556258,-0.043455,0.324057,-0.104590,-10.171057,188.495678,1507.360812,-897.184215,0
0.006250,-52.039055,199.769468,-81.338276,-1.374626,5.425478,-5.473668,-0.223339,-4.792610,5.638146,0.312768,-0.120025,0.336872,-0.052556,-30.717499,188.495741,1506.987367,-898.395882,0
0.007292,-131.228931,172.239165,-29.353424,-0.327511,6.643743,-3.965147,-2.717613,-5.866202,4.082431,2.826005,-0.185656,0.307866,-0.086006,-56.577871,188.495725,1506.528965,-897.540231,0
0.008333,-183.491086,120.067830,20.419823,0.685826,6.496964,-1.817013,-4.432190,-5.916980,2.082830,4.593597,-0.218472,0.320888,-0.067423,-61.441467,188.495772,1505.820239,-896.398177,0
0.009375,-193.310721,58.946797,84.957352,1.958127,5.759400,0.833961,-6.093778,-5.046500,-0.605852,6.315770,-0.243995,0.323781,-0.071140,-58.671919,188.495832,1504.762349,-895.600282,0
0.010417,-166.224800,9.429835,153.553538,3.297983,4.126485,2.949913,-6.351154,-3.653732,-2.698457,6.701839,-0.265872,0.345967,-0.059989,-42.504965,188.495685,1504.146133,-894.657900,0
0.011458,-104.063911,-38.830412,200.799238,4.209987,1.708302,4.929092,-5.821262,-1.336079,-4.592371,6.058390,-0.240349,0.311379,-0.056273,-18.558509,188.420282,1503.444757,-894.126325,0
0.012500,-50.468365,-107.597446,190.567530,3.973542,-0.886015,6.152000,-4.375416,1.086757,-6.029717,4.813127,-0.247641,0.339284,-0.097156,-1.828638,188.495696,1504.686114,-893.448707,0
0.013542,-1.901286,-172.453391,142.386152,3.050279,-3.355571,6.518067,-2.392109,3.476950,-6.363688,2.731380,-0.171072,0.329087,-0.071140,10.746910,188.495676,1503.659192,-892.456881,0
0.014583,52.191457,-200.030675,81.785765,1.901830,-5.333416,5.556637,0.416315,5.504443,-5.501281,-0.039237,-0.120025,0.315996,-0.089723,32.013885,188.495687,1503.544017,-892.510684,0
0.015625,131.573432,-172.418156,29.521425,0.899753,-6.529665,4.019957,2.914374,6.574408,-3.975158,-2.613033,-0.043455,0.310553,-0.082290,56.872266,188.344903,1502.931104,-891.703931,0
0.016667,183.372290,-120.282057,-20.276125,-0.136103,-6.426919,1.904005,4.647876,6.628813,-1.962875,-4.482821,-0.025225,0.324677,-0.078573,63.289511,188.495658,1503.399140,-892.040280,0
0.017708,193.146725,-58.456323,-84.704289,-1.385885,-5.660000,-0.787197,6.362453,5.729317,0.704669,-6.125508,0.011237,0.336872,-0.078573,60.249764,188.495741,1503.208901,-890.944611,0
0.018750,166.004304,-8.610501,-153.191110,-2.691964,-4.052770,-2.883035,6.597119,4.351057,2.848005,-6.560783,0.029468,0.330258,-0.100873,43.283468,188.495727,1503.276953,-890.924323,0
0.019792,103.606117,38.956790,-200.837815,-3.682783,-1.619910,-4.878305,6.048303,2.000761,4.682734,-5.962754,-0.017932,0.346450,-0.045123,18.774096,188.269489,1503.487308,-890.246598,0
0.020833,50.767666,107.559394,-190.278012,-3.401300,0.945052,-6.125349,4.628951,-0.469226,6.115852,-4.675855,-0.017932,0.332807,-0.082290,3.642907,188.495740,1503.664826,-890.202406,0
0.021875,2.042388,172.779435,-141.938662,-2.523075,3.465979,-6.511530,2.645644,-2.834030,6.521690,-2.560043,-0.043455,0.338388,-0.052556,-9.934632,188.420276,1503.773109,-890.374920,0
0.022917,-51.880856,199.546313,-81.642067,-1.385885,5.436486,-5.465623,-0.215769,-4.788983,5.629691,0.195433,-0.109087,0.313102,-0.059989,-31.561874,188.495763,1504.274486,-889.340168,0
0.023958,-131.997326,172.344870,-29.487092,-0.327511,6.676768,-3.969170,-2.751678,-5.884337,4.078203,2.833575,-0.185656,0.307452,-0.089723,-56.273896,188.269599,1504.664458,-889.583427,0
0.025000,-183.197288,120.009105,20.504885,0.663307,6.485956,-1.748627,-4.458685,-5.945996,2.027872,4.646587,-0.225764,0.319027,-0.086006,-63.062666,188.495694,1504.535482,-890.643255,0
0.026042,-193.435020,58.488742,85.042413,1.924349,5.763069,0.846029,-6.139197,-5.057381,-0.618534,6.330910,-0.258580,0.316065,-0.089723,-59.966627,188.420263,1504.783883,-890.742480,0
0.027083,-165.614604,8.231844,153.164685,3.241687,4.108137,2.978072,-6.377648,-3.653732,-2.736505,6.747259,-0.291395,0.339904,-0.067423,-43.067881,188.495721,1505.099944,-890.841632,0
0.028125,-102.481921,-39.147527,201.285305,4.176209,1.664268,4.921047,-5.802338,-1.270793,-4.647329,6.081100,-0.233057,0.322610,-0.078573,-18.322084,188.269467,1505.177926,-891.398636,0
0.029167,-49.971168,-107.538721,190.251587,3.984801,-0.915371,6.156022,-4.352707,1.177432,-6.012807,4.771492,-0.236703,0.325022,-0.078573,-1.625989,188.420329,1504.139102,-892.027406,0
0.030208,-2.025585,-173.005407,142.434759,3.061538,-3.388596,6.534158,-2.376969,3.524101,-6.393281,2.716240,-0.167425,0.330947,-0.112023,10.307836,188.420318,1504.514930,-892.876292,0
0.031250,52.315756,-199.361210,82.028799,1.913090,-5.333416,5.524455,0.499584,5.460919,-5.501281,-0.171711,-0.123671,0.312275,-0.082290,31.878786,188.495830,1503.275816,-893.641928,0
0.032292,132.093229,-172.488626,29.873824,0.877234,-6.581037,4.028002,2.948439,6.588916,-3.966703,-2.673593,-0.047102,0.310277,-0.082290,57.142466,188.269510,1503.334155,-894.567163,0
0.033333,183.101091,-120.352527,-20.288277,-0.147362,-6.401233,1.839641,4.678155,6.621559,-1.958647,-4.471466,-0.036163,0.321163,-0.100873,62.028579,188.344965,1503.101554,-894.451913,0
0.034375,193.530923,-58.515049,-84.789350,-1.363367,-5.641652,-0.807310,6.339743,5.769214,0.759626,-6.133078,0.007591,0.303663,-0.086006,60.429897,188.420285,1503.499671,-895.151006,0
0.035417,165.687907,-8.011505,-152.923774,-2.658186,-4.016076,-2.911194,6.536560,4.274890,2.864915,-6.488868,0.000299,0.333290,-0.086006,40.750345,188.495712,1501.945208,-894.931329,0
0.036458,102.476124,39.191690,-201.007938,-3.603968,-1.597893,-4.834055,6.010453,1.982626,4.716554,-5.917334,0.000299,0.330327,-0.086006,17.490647,188.269427,1501.444560,-894.869872,0
0.037500,49.411675,107.359729,-190.144344,-3.367522,0.967068,-6.056963,4.591102,-0.469226,6.124307,-4.615295,-0.003348,0.318201,-0.082290,3.564099,188.344914,1500.787465,-894.524804,0
0.038542,1.861589,172.556280,-142.254606,-2.556853,3.432954,-6.475326,2.588870,-2.826776,6.462506,-2.552473,-0.054394,0.329569,-0.078573,-10.171057,188.420222,1500.109608,-894.259783,0
0.039583,-52.445852,199.346648,-82.395471,-1.374626,5.392453,-5.433441,-0.234694,-4.730951,5.612781,0.225713,-0.120025,0.313722,-0.078573,-30.953924,188.495685,1499.560435,-894.084252,0
0.040625,-131.861727,172.133460,-29.948856,-0.350030,6.603379,-3.957102,-2.759248,-5.851694,4.065521,2.822220,-0.156487,0.310001,-0.089723,-56.724229,188.269523,1499.000415,-893.881245,0
0.041667,-183.547586,120.561120,20.407672,0.663307,6.515311,-1.768741,-4.466255,-5.924234,2.040555,4.654157,-0.236703,0.321232,-0.104590,-61.396434,188.269507,1499.068485,-894.039641,0
0.042708,-193.231622,58.805857,85.030262,1.935608,5.693349,0.890279,-6.093778,-5.031992,-0.631217,6.296845,-0.247641,0.311517,-0.097156,-58.615628,188.420267,1498.419760,-893.941577,0
0.043750,-165.784103,8.278824,153.359112,3.241687,4.089790,2.957958,-6.339799,-3.606581,-2.761870,6.679129,-0.233057,0.324677,-0.100873,-42.133441,188.495622,1497.387565,-894.086823,0
0.044792,-102.504521,-39.311957,200.957210,4.198728,1.682616,4.937137,-5.813693,-1.274420,-4.605054,6.069745,-0.240349,0.316478,-0.078573,-17.939301,188.269465,1497.055182,-893.498830,0
0.045833,-48.784676,-107.503486,190.506772,4.007319,-0.911702,6.160045,-4.379201,1.166551,-6.004352,4.805557,-0.240349,0.334254,-0.100873,-1.580955,188.194074,1497.539253,-892.848852,0
0.046875,-1.257190,-172.559097,142.240332,3.129094,-3.329884,6.566340,-2.388324,3.513220,-6.376371,2.735165,-0.160133,0.310690,-0.082290,10.814460,188.420300,1497.490877,-892.171103,0
0.047917,52.564354,-199.725305,82.332591,1.946867,-5.307730,5.520432,0.439025,5.468173,-5.509736,-0.065732,-0.120025,0.317787,-0.089723,32.239052,188.420323,1498.497038,-891.372498,0
0.048958,132.138428,-172.441646,30.615076,0.865975,-6.559020,4.011911,2.948439,6.552646,-3.996296,-2.666023,-0.047102,0.313309,-0.097156,57.041141,188.269512,1498.411494,-891.162341,0
0.050000,183.530489,-120.975012,-20.191064,-0.113585,-6.408572,1.891937,4.610026,6.625186,-1.958647,-4.444971,-0.028871,0.324953,-0.063706,63.266995,188.194134,1498.605950,-891.163730,0
0.051042,193.259724,-59.020084,-85.238962,-1.385885,-5.645322,-0.763060,6.339743,5.751079,0.700442,-6.148218,0.018530,0.323299,-0.063706,60.249764,188.420278,1498.844980,-890.790508,0
0.052083,166.038204,-8.387345,-153.276172,-2.680705,-4.023415,-2.879012,6.589549,4.307533,2.843777,-6.549428,0.033114,0.340662,-0.033973,43.035785,188.344947,1499.930117,-891.027341,0
0.053125,102.634323,39.285650,-201.068697,-3.671523,-1.564868,-4.898419,6.014238,1.986253,4.741919,-5.932474,0.022176,0.336666,-0.108307,18.233696,188.269584,1500.291067,-891.345535,0
0.054167,49.027477,107.559394,-190.253709,-3.412560,0.970738,-6.125349,4.628951,-0.476480,6.158126,-4.645575,-0.025225,0.304834,-0.086006,3.237608,188.185480,1500.984261,-891.492386,0
0.055208,1.240093,172.955610,-141.525505,-2.523075,3.458640,-6.443144,2.634289,-2.808641,6.496325,-2.556258,-0.058040,0.276447,-0.093440,-10.058474,188.344844,1501.522235,-890.945458,0
0.056250,-52.276353,199.640273,-81.423337,-1.307070,5.370436,-5.449532,-0.215769,-4.749086,5.633918,0.225713,-0.105440,0.323575,-0.086006,-31.742007,188.344901,1501.897697,-890.833658,0
0.057292,-132.404124,172.250910,-29.827339,-0.293733,6.621726,-3.949056,-2.751678,-5.884337,4.095113,2.795725,-0.156487,0.309864,-0.067423,-56.408996,188.269440,1502.797898,-890.607347,0
0.058333,-183.389387,120.819511,20.419823,0.685826,6.474947,-1.764718,-4.454900,-5.931488,2.070147,4.673082,-0.229410,0.322955,-0.100873,-63.096441,188.194072,1503.136118,-890.710087,0
0.059375,-193.446320,59.686733,85.674300,1.913090,5.737383,0.837983,-6.131627,-5.068262,-0.665037,6.285490,-0.225764,0.328191,-0.086006,-59.966627,188.345015,1503.602819,-891.217987,0
0.060417,-165.851903,8.631174,153.529235,3.230428,4.060434,2.982094,-6.351154,-3.646478,-2.766097,6.716979,-0.265872,0.333772,-0.093440,-43.034106,188.344802,1504.392579,-891.461887,0
0.061458,-102.843519,-39.335447,201.406821,4.209987,1.660599,4.913001,-5.764488,-1.285301,-4.634646,6.081100,-0.247641,0.339491,-0.067423,-17.950559,188.269407,1504.928443,-891.906809,0
0.062500,-48.897675,-107.726641,190.178677,4.018579,-0.897024,6.135909,-4.348922,1.148416,-6.000124,4.733642,-0.225764,0.328398,-0.078573,-1.119364,188.194081,1504.142984,-891.762818,0
0.063542,-0.895593,-173.146347,141.802872,3.084057,-3.399604,6.546226,-2.395894,3.571252,-6.367916,2.682175,-0.200241,0.331498,-0.097156,10.476710,188.336575,1503.816420,-892.440174,0
0.064583,52.496555,-199.513895,81.068817,1.924349,-5.329747,5.508364,0.416315,5.421022,-5.497053,-0.069517,-0.120025,0.338733,-0.089723,31.957594,188.416384,1503.335562,-891.441325,0
0.065625,131.935030,-172.465136,29.509274,0.888493,-6.559020,4.019957,2.940869,6.592543,-3.966703,-2.658453,-0.061686,0.311931,-0.071140,57.187499,188.269566,1503.476707,-891.379145,0
0.066667,183.236691,-120.669642,-20.470552,-0.079807,-6.375547,1.855732,4.628951,6.628813,-1.962875,-4.426046,-0.006994,0.324402,-0.082290,62.017321,188.194105,1503.436804,-890.937975,0
0.067708,193.463123,-59.818745,-85.542754,-1.329589,-5.612296,-0.799265,6.335958,5.732944,0.675077,-6.102798,0.022176,0.328673,-0.082290,60.474930,188.194173,1503.225292,-890.566359,0
0.068750,166.106004,-8.915871,-153.349082,-2.680705,-4.001398,-2.891080,6.578194,4.289398,2.852232,-6.526718,0.040407,0.342040,-0.097156,40.896704,188.420251,1502.769584,-890.811317,0
0.069792,103.436618,39.191690,-201.093000,-3.570190,-1.557529,-4.838078,5.987744,1.946356,4.733464,-5.905979,-0.014286,0.336252,-0.045123,17.501905,188.269494,1502.198629,-891.331765,0
0.070833,49.682873,107.606374,-190.120041,-3.446337,0.985416,-6.081099,4.560822,-0.476480,6.090487,-4.596370,-0.010640,0.330947,-0.074856,3.215091,188.194155,1501.082467,-891.093658,0
0.071875,1.194894,172.744200,-141.622719,-2.523075,3.451302,-6.419008,2.577515,-2.852165,6.492098,-2.544903,-0.032517,0.321646,-0.100873,-10.418740,188.194065,1500.892582,-891.651422,0
0.072917,-52.581451,199.616783,-80.973725,-1.352108,5.381444,-5.433441,-0.204415,-4.763594,5.600098,0.274918,-0.094502,0.314411,-0.082290,-30.886374,188.420350,1500.361724,-891.986021,0
0.073958,-131.647029,172.168695,-28.818750,-0.237437,6.603379,-3.949056,-2.691119,-5.848067,4.044383,2.784370,-0.163779,0.310415,-0.071140,-56.701713,188.269509,1499.399546,-891.441262,0
0.075000,-183.513686,120.138300,20.893738,0.730863,6.474947,-1.812991,-4.454900,-5.916980,2.036327,4.601167,-0.211179,0.320543,-0.134323,-61.441467,188.194164,1498.906114,-890.447906,0
0.076042,-193.220322,59.181698,85.564935,1.946867,5.708027,0.878211,-6.097563,-5.075516,-0.656582,6.262780,-0.243995,0.341282,-0.119457,-58.660661,188.194188,1498.779907,-889.917253,0
0.077083,-166.066601,8.983524,153.833027,3.241687,4.049426,2.978072,-6.336014,-3.602954,-2.740732,6.648849,-0.273164,0.327847,-0.093440,-42.336090,188.420301,1497.812211,-889.602196,0
0.078125,-103.804013,-39.194507,200.896451,4.164950,1.612896,4.945183,-5.764488,-1.310690,-4.600826,6.054605,-0.243995,0.345209,-0.067423,-18.378376,188.194188,1497.443873,-889.300056,0
0.079167,-49.880769,-107.879326,190.336649,3.951023,-0.904363,6.135909,-4.329997,1.159297,-6.046627,4.763922,-0.251287,0.335150,-0.100873,-1.648505,188.175375,1498.140983,-890.149233,0
0.080208,-1.144191,-172.688292,141.887933,3.050279,-3.348232,6.562317,-2.350474,3.516847,-6.351006,2.701100,-0.171072,0.315996,-0.074856,10.904527,188.323425,1497.908511,-889.436246,0
0.081250,52.688653,-199.807520,81.251092,1.879312,-5.311400,5.492273,0.404960,5.468173,-5.492826,-0.111151,-0.090856,0.300631,-0.082290,32.126469,188.411077,1497.984433,-890.396036,0
0.082292,131.765531,-172.218491,29.169027,0.832197,-6.529665,4.003866,2.978718,6.574408,-3.949793,-2.681163,-0.050748,0.307659,-0.067423,56.928558,188.260973,1497.532993,-890.389721,0
0.083333,183.349690,-119.882726,-20.737889,-0.079807,-6.368208,1.887914,4.636521,6.592543,-1.899463,-4.444971,-0.003348,0.321439,-0.063706,63.199445,188.188121,1496.693282,-890.570630,0
0.084375,193.135425,-58.174443,-85.494147,-1.329589,-5.612296,-0.763060,6.294324,5.722063,0.738489,-6.110368,0.007591,0.316891,-0.078573,60.215989,188.189126,1496.237602,-890.586895,0
0.085417,165.846106,-8.316875,-153.494902,-2.691964,-4.016076,-2.895103,6.502495,4.300279,2.839550,-6.504008,0.025822,0.339560,-0.108307,43.204660,188.416176,1496.245150,-889.959546,0
0.086458,103.560917,39.203435,-200.862118,-3.615227,-1.597893,-4.858192,6.010453,1.986253,4.733464,-5.932474,0.025822,0.333221,-0.082290,18.751579,188.254308,1496.776944,-889.693978,0
0.087500,50.304369,107.899999,-189.998524,-3.401300,0.985416,-6.105236,4.545682,-0.480107,6.115852,-4.607725,-0.006994,0.337837,-0.100873,3.474033,188.178784,1497.123302,-890.091348,0
0.088542,1.884189,173.131785,-141.647022,-2.500556,3.436624,-6.483371,2.592654,-2.863046,6.513235,-2.522193,-0.050748,0.327020,-0.078573,-10.092249,188.184288,1497.145623,-890.720340,0
0.089583,-52.615351,199.440608,-81.131697,-1.318330,5.414469,-5.413327,-0.264974,-4.752713,5.625463,0.233283,-0.105440,0.314687,-0.100873,-31.708232,188.407434,1497.589060,-890.250413,0
0.090625,-132.392824,172.239165,-29.001026,-0.304993,6.662090,-3.908829,-2.744108,-5.877083,4.069748,2.871425,-0.138256,0.306763,-0.074856,-56.341446,188.188860,1498.184017,-891.368273,0
0.091667,-183.298987,119.727225,20.990952,0.685826,6.482286,-1.760695,-4.447330,-5.924234,2.002507,4.635232,-0.192949,0.320268,-0.059989,-63.028891,188.264202,1497.952817,-891.839231,0
0.092708,-193.514120,57.995452,85.844424,1.913090,5.711697,0.894301,-6.158122,-5.042873,-0.669264,6.330910,-0.225764,0.319716,-0.100873,-59.932852,188.192912,1498.208339,-892.176762,0
0.093750,-165.320806,7.797278,153.553538,3.252946,4.089790,3.002208,-6.347369,-3.588446,-2.766097,6.743474,-0.265872,0.310415,-0.063706,-43.034106,188.269568,1498.868456,-892.472366,0
0.094792,-102.481921,-39.523367,201.589097,4.209987,1.675277,4.933115,-5.753134,-1.317944,-4.626191,6.077315,-0.247641,0.343280,-0.112023,-18.277051,188.194184,1499.503462,-892.249819,0
0.095833,-50.027668,-108.137716,189.935643,4.007319,-0.915371,6.107750,-4.326212,1.177432,-6.012807,4.741212,-0.262226,0.312620,-0.063706,-1.468372,188.269498,1498.896202,-892.121877,0
0.096875,-1.584888,-173.616147,141.948692,3.072797,-3.381257,6.562317,-2.361829,3.556744,-6.376371,2.757875,-0.163779,0.321439,-0.108307,10.566777,188.194127,1499.994359,-892.534889,0
0.097917,52.869452,-199.255504,81.822220,1.856793,-5.348094,5.496296,0.495799,5.508070,-5.488598,-0.111151,-0.109087,0.304834,-0.093440,32.058919,188.194096,1499.996622,-893.034176,0
0.098958,132.579125,-172.465136,29.387757,0.843456,-6.551681,3.995820,2.956009,6.617932,-3.966703,-2.715228,-0.058040,0.309864,-0.104590,57.221274,188.269460,1500.802171,-893.760782,0
0.100000,183.225391,-119.777021,-20.883709,-0.102325,-6.371877,1.835618,4.666800,6.596170,-1.941737,-4.482821,-0.036163,0.321163,-0.074856,61.972287,188.269490,1501.259349,-893.790937,0
0.101042,193.610022,-57.974778,-85.591361,-1.352108,-5.645322,-0.787197,6.381377,5.689420,0.746944,-6.155788,0.029468,0.319647,-0.112023,60.351089,188.194071,1501.349451,-894.323264,0
0.102083,165.292409,-7.389020,-153.288324,-2.646927,-4.005067,-2.883035,6.547915,4.245874,2.805730,-6.560783,0.040407,0.360298,-0.067423,40.592729,188.194210,1501.300122,-894.057168,0
0.103125,101.911128,39.638001,-201.421095,-3.649005,-1.616240,-4.862214,6.010453,2.029777,4.763056,-5.932474,-0.003348,0.307659,-0.097156,17.513163,188.344891,1501.923630,-893.354082,0
0.104167,49.332575,108.052685,-189.694732,-3.401300,0.945052,-6.109258,4.598672,-0.483734,6.115852,-4.581230,-0.021578,0.320888,-0.093440,3.530324,188.269532,1501.634259,-892.961201,0
0.105208,1.737290,173.401921,-141.695629,-2.534334,3.462310,-6.491417,2.600224,-2.801387,6.496325,-2.544903,-0.065333,0.327364,-0.071140,-10.429998,188.194092,1501.792377,-892.018070,0
0.106250,-52.717050,199.205708,-81.909404,-1.363367,5.407131,-5.437464,-0.227124,-4.781729,5.625463,0.237068,-0.123671,0.313309,-0.104590,-31.134057,188.194040,1501.851902,-892.606777,0
0.107292,-132.867421,172.145205,-29.316969,-0.327511,6.680438,-3.936988,-2.728968,-5.862575,4.086658,2.863855,-0.141902,0.310622,-0.071140,-56.938137,188.267739,1502.033567,-892.390392,0
0.108333,-183.558886,119.938635,20.966648,0.629529,6.463939,-1.748627,-4.466255,-5.953250,2.074375,4.639017,-0.174718,0.321232,-0.078573,-61.351401,188.269563,1503.065312,-892.102155,0
0.109375,-193.638419,58.195117,85.856575,1.913090,5.719036,0.914415,-6.116488,-5.046500,-0.652354,6.311985,-0.243995,0.320130,-0.078573,-58.581853,188.194141,1503.106398,-891.850830,0
0.110417,-165.388606,7.703318,153.796572,3.252946,4.078781,2.998185,-6.324659,-3.610208,-2.787235,6.701839,-0.295042,0.343831,-0.104590,-41.885757,188.264347,1503.055083,-891.711630,0
