1-Time,2-VGERA,3-VGERB,4-VGERC,5-VN,6-IGERAN,7-IGERBN,8-IGERCN,9-IGERAT,10-IGERBT,11-IGERCT,12-IN,13-IFD,14-IFAULT,15-VFAULT,16-Speed (rad/s),17-Active Power,18-Reactive Power,19-FAULT 
0.000000,120.058808,-180.310803,37.565832,1.079901,-2.159322,3.710207,-1.078735,2.218381,-3.636959,1.271995,-0.127317,0.418588,-0.052556,-303.585513,188.495495,1006.367657,151.379917,0
0.001042,168.196490,-152.721774,-31.382753,-0.293733,-3.150080,3.360230,0.170294,3.179536,-3.311443,-0.018688,-0.079917,0.425340,-0.059989,-327.768395,188.721652,1004.758191,151.358635,0
0.002083,177.066931,-90.484966,-92.080353,-1.430923,-3.678484,2.225823,1.661560,3.687316,-2.250344,-1.460771,-0.076271,0.424307,-0.056273,-263.483361,188.570805,1003.834803,151.664974,0
0.003125,181.055805,-15.305156,-144.223177,-2.433000,-3.722518,1.175892,2.645644,3.759856,-1.223065,-2.554635,-0.039809,0.434848,-0.033973,-190.754584,188.570767,1002.372348,152.630018,0
0.004167,141.845064,52.440062,-170.956854,-3.007225,-2.973945,-0.312515,3.289083,3.125131,0.214281,-3.152664,-0.050748,0.428234,-0.059989,-81.886585,188.495398,1000.565525,153.295139,0
0.005208,65.265470,104.294281,-192.526072,-3.423819,-2.034560,-2.022172,3.796265,2.167603,1.960233,-3.796113,-0.028871,0.424169,-0.059989,46.334474,188.646254,999.117573,152.994815,0
0.006250,1.262693,152.836408,-163.629396,-2.962187,-0.695203,-2.766376,3.289083,0.970693,2.716953,-3.217009,-0.032517,0.422102,-0.071140,158.647521,188.495484,996.884180,153.180153,0
0.007292,-64.367273,182.844909,-113.600964,-1.903813,0.897348,-3.627239,2.426117,-0.610679,3.579360,-2.437300,-0.076271,0.421068,-0.071140,249.614784,188.570578,994.928491,153.617111,0
0.008333,-120.042005,180.437182,-36.595820,-0.485141,2.152308,-3.591034,1.267926,-1.774946,3.617407,-1.252597,-0.054394,0.416176,-0.089723,302.067318,188.495401,993.455122,154.193352,0
0.009375,-168.190987,152.143452,32.547192,0.888493,3.124718,-3.261171,0.026467,-2.761490,3.329938,0.049442,-0.105440,0.418174,-0.052556,318.076656,188.646217,991.818167,153.967075,0
0.010417,-176.846730,89.613019,92.928848,2.025683,3.642114,-2.162968,-1.483724,-3.233000,2.294204,1.472600,-0.120025,0.417003,-0.056273,262.257882,188.495378,990.375918,154.257771,0
0.011458,-180.790404,13.798979,144.233206,3.016501,3.730181,-1.145219,-2.407248,-3.338183,1.233105,2.574033,-0.167425,0.420724,-0.078573,189.585397,188.570832,988.981999,154.631195,0
0.012500,-141.071166,-53.758319,170.602334,3.545688,2.963262,0.407552,-3.062043,-2.674442,-0.200013,3.160707,-0.211179,0.415556,-0.022822,80.649848,188.495443,987.757191,155.108636,0
0.013542,-63.350280,-104.778643,192.997865,3.984801,2.020207,2.008596,-3.607074,-1.706033,-1.886780,3.796587,-0.182010,0.403499,-0.074856,-47.571211,188.570823,986.772757,154.894798,0
0.014583,0.731597,-152.886205,163.651577,3.466873,0.735892,2.789004,-3.031763,-0.578036,-2.656183,3.243977,-0.196595,0.414867,-0.089723,-159.276308,188.495356,985.073489,155.347796,0
0.015625,65.333270,-182.988665,113.246443,2.532351,-0.871337,3.637798,-2.244496,1.035979,-3.548182,2.399923,-0.160133,0.383793,-0.059989,-249.928338,188.495446,983.184229,154.624733,0
0.016667,120.239607,-180.404763,35.791688,1.046123,-2.056577,3.625730,-1.052241,2.156722,-3.539727,1.271995,-0.112733,0.411973,-0.048839,-303.405380,188.495486,981.523223,155.245927,0
0.017708,168.196490,-151.817409,-33.229807,-0.327511,-3.017979,3.307935,0.117305,3.103369,-3.277623,-0.026258,-0.112733,0.414867,-0.078573,-327.014087,188.570702,980.255880,155.785200,0
0.018750,176.739234,-89.005095,-93.064639,-1.453441,-3.586747,2.274095,1.646420,3.654673,-2.263026,-1.396427,-0.079917,0.409906,-0.059989,-261.873421,188.495446,979.367235,157.006923,0
0.019792,180.694207,-13.014879,-144.113812,-2.500556,-3.682154,1.212097,2.554805,3.730840,-1.201927,-2.463795,-0.083563,0.424858,-0.074856,-189.437360,188.495450,977.924618,157.773719,0
0.020833,140.828071,53.943423,-170.580152,-2.973447,-2.962937,-0.276311,3.217169,3.074353,0.188916,-3.122384,-0.014286,0.422653,-0.078573,-80.828302,188.495425,976.849705,158.176996,0
0.021875,63.434882,104.940257,-192.331645,-3.356263,-2.034560,-1.977922,3.800050,2.178484,1.930640,-3.754478,-0.047102,0.398125,-0.056273,47.122557,188.495488,976.017128,158.957086,0
0.022917,-0.262797,153.341443,-163.264846,-2.815817,-0.750245,-2.706035,3.277728,0.996082,2.725408,-3.224579,-0.054394,0.428854,-0.063706,159.165404,188.495432,976.133899,159.683518,0
0.023958,-65.067869,182.386853,-113.771087,-1.971369,0.864323,-3.578966,2.471536,-0.530885,3.570905,-2.441085,-0.021578,0.395300,-0.052556,249.232001,188.495448,975.691242,160.676002,0
0.025000,-120.844300,180.014361,-36.863157,-0.428845,2.115613,-3.566898,1.267926,-1.756811,3.634317,-1.271522,-0.094502,0.418657,-0.052556,302.360035,188.495401,975.811292,161.190796,0
0.026042,-168.394386,152.072982,32.292006,0.877234,3.091693,-3.249103,0.060531,-2.714339,3.300346,-0.030043,-0.083563,0.425064,-0.071140,318.245531,188.344590,974.935975,162.086883,0
0.027083,-176.937129,90.000604,93.281247,2.081979,3.623767,-2.179058,-1.430734,-3.240254,2.306886,1.442320,-0.130964,0.414178,-0.071140,262.922123,188.495347,975.017825,162.519623,0
0.028125,-180.620905,14.961735,144.767880,3.005242,3.700826,-1.125105,-2.395894,-3.312794,1.241560,2.521043,-0.171072,0.408253,-0.030256,190.564871,188.420030,974.394113,162.711623,0
0.029167,-141.014667,-52.877444,171.246372,3.579466,2.926567,0.359279,-3.039333,-2.670815,-0.153511,3.175847,-0.163779,0.425960,-0.074856,81.325347,188.495475,974.498458,163.012564,0
0.030208,-64.728871,-104.954818,192.293068,3.984801,2.049563,1.960323,-3.595719,-1.756811,-1.882553,3.758737,-0.211179,0.424031,-0.071140,-46.850679,188.344618,974.301779,163.302747,0
0.031250,-0.409696,-153.449965,163.238421,3.455614,0.765247,2.776936,-3.020408,-0.574409,-2.656183,3.206127,-0.171072,0.423480,-0.059989,-159.321342,188.495465,973.988942,162.907610,0
0.032292,65.231570,-182.577590,113.562387,2.464795,-0.867668,3.597571,-2.214217,0.999709,-3.510135,2.426418,-0.167425,0.417279,-0.063706,-249.714430,188.420043,973.544269,163.495622,0
0.033333,120.974102,-180.005433,36.192693,0.989827,-2.063916,3.581480,-1.071165,2.200246,-3.527045,1.275780,-0.141902,0.415970,-0.056273,-304.024588,188.495519,973.790876,163.198212,0
0.034375,168.467688,-151.864389,-33.193352,-0.338771,-3.028988,3.267708,0.155155,3.132385,-3.277623,0.019162,-0.116379,0.417761,-0.041406,-326.372362,188.344636,974.076579,163.604030,0
0.035417,176.784433,-88.969860,-93.514251,-1.475960,-3.550053,2.225823,1.665345,3.582133,-2.267254,-1.411566,-0.094502,0.415350,-0.045123,-261.479379,188.495401,973.402434,163.615696,0
0.036458,180.411709,-13.144075,-144.454058,-2.534334,-3.663806,1.208074,2.581300,3.683689,-1.176562,-2.490290,-0.068979,0.422102,-0.071140,-188.086361,188.420059,973.110501,162.987110,0
0.037500,140.602072,54.471949,-170.482939,-3.029743,-2.874870,-0.324583,3.186890,3.092488,0.248101,-3.111029,-0.039809,0.408528,-0.037689,-79.049487,188.495459,973.261847,162.649374,0
0.038542,63.084585,105.410057,-192.234431,-3.423819,-1.983188,-1.909536,3.724351,2.116825,1.939095,-3.686348,-0.032517,0.431886,-0.071140,49.205347,188.269246,972.239469,161.969213,0
0.039583,-1.211991,153.141778,-162.936751,-2.894632,-0.728228,-2.649717,3.220954,0.996082,2.666223,-3.145094,-0.032517,0.404739,-0.048839,160.831636,188.495256,970.719464,162.032713,0
0.040625,-66.005762,182.410343,-112.325038,-1.915073,0.871662,-3.494489,2.418547,-0.607052,3.520175,-2.407020,-0.047102,0.430094,-0.074856,250.481675,188.420052,970.048034,161.404007,0
0.041667,-120.866900,179.908656,-34.773070,-0.406326,2.053232,-3.502534,1.290636,-1.738676,3.558222,-1.233672,-0.079917,0.410320,-0.056273,302.224935,188.495390,968.767762,161.330455,0
0.042708,-168.157087,151.286067,34.224122,0.956049,3.054998,-3.212898,0.056746,-2.667188,3.262298,0.060797,-0.098148,0.415763,-0.030256,317.333606,188.269424,967.892203,160.719621,0
0.043750,-176.473832,88.168382,94.192622,2.081979,3.554047,-2.130786,-1.419380,-3.182222,2.273067,1.412040,-0.130964,0.415487,-0.063706,261.244633,188.495360,966.565194,161.180214,0
0.044792,-180.338407,12.424812,144.974458,3.084057,3.675139,-1.157287,-2.358044,-3.233000,1.207740,2.502118,-0.163779,0.374423,-0.063706,188.741023,188.420028,965.285787,161.188252,0
0.045833,-140.393171,-54.615705,170.578030,3.568207,2.915558,0.335143,-2.990129,-2.649053,-0.149283,3.073652,-0.182010,0.425271,-0.063706,80.526006,188.495483,963.727648,161.758386,0
0.046875,-62.717484,-105.671264,192.463191,4.052357,2.038554,1.956300,-3.565439,-1.695152,-1.831823,3.747382,-0.152841,0.412594,-0.086006,-47.740086,188.269312,962.824039,162.058358,0
0.047917,0.934995,-153.473455,162.910326,3.523169,0.816620,2.700504,-3.016623,-0.570782,-2.580088,3.168277,-0.182010,0.410389,-0.048839,-159.163725,188.420139,961.572120,162.535686,0
0.048958,65.819167,-182.624570,113.270747,2.509832,-0.816295,3.549298,-2.229356,0.941677,-3.446723,2.426418,-0.189302,0.426098,-0.089723,-249.748205,188.420005,960.601110,163.415529,0
0.050000,121.358299,-179.512142,36.484333,1.023605,-2.012544,3.549298,-1.105230,2.102317,-3.501680,1.275780,-0.141902,0.419346,-0.071140,-303.698096,188.495320,959.503542,164.165264,0
0.051042,168.919685,-151.582508,-32.768044,-0.327511,-3.014310,3.259662,0.094595,3.045337,-3.218438,0.113786,-0.105440,0.422722,-0.056273,-327.734620,188.269236,957.914867,165.219702,0
0.052083,176.501935,-89.604090,-93.939559,-1.464701,-3.520697,2.229845,1.593431,3.556744,-2.203842,-1.388857,-0.083563,0.418588,-0.059989,-261.749579,188.420012,957.201113,164.782183,0
0.053125,180.174411,-14.118910,-145.098097,-2.489297,-3.660137,1.191983,2.539665,3.676435,-1.193472,-2.414590,-0.061686,0.425064,-0.086006,-188.885702,188.419990,956.556356,165.361170,0
0.054167,140.794171,53.708523,-171.054068,-2.962187,-2.915234,-0.308493,3.183105,3.052591,0.193143,-3.042899,-0.065333,0.417830,-0.063706,-79.544853,188.495300,955.426964,165.689081,0
0.055208,64.101578,105.738918,-191.906336,-3.491375,-1.979518,-1.917582,3.739491,2.127706,1.875683,-3.727983,-0.025225,0.422722,-0.067423,48.856339,188.269091,955.590836,166.330928,0
0.056250,0.064901,153.963929,-162.608656,-2.894632,-0.739236,-2.697990,3.171750,0.959812,2.632403,-3.156449,-0.025225,0.423618,-0.037689,161.000511,188.420072,955.486245,166.049935,0
0.057292,-65.949263,182.175443,-112.726044,-1.915073,0.867993,-3.498511,2.410977,-0.596171,3.494810,-2.380525,-0.058040,0.417899,-0.086006,250.459158,188.418144,954.980348,165.862748,0
0.058333,-121.578795,179.650266,-35.222681,-0.451364,2.071580,-3.490466,1.214937,-1.716914,3.515948,-1.241242,-0.112733,0.413972,-0.093440,302.832884,188.420131,954.427341,166.039702,0
0.059375,-168.349186,151.485732,34.260577,0.888493,3.058668,-3.172671,0.034036,-2.678069,3.270753,0.015377,-0.120025,0.415212,-0.030256,317.322348,188.269277,954.611977,166.579944,0
0.060417,-176.801530,87.956972,94.399200,2.081979,3.565055,-2.142854,-1.457229,-3.127817,2.209654,1.468815,-0.127317,0.413558,-0.048839,260.760525,188.420034,954.030134,165.490077,0
0.061458,-180.146308,12.565753,145.132430,2.982723,3.623767,-1.096946,-2.392109,-3.301913,1.190830,2.517258,-0.127317,0.421137,-0.045123,187.491349,188.420030,954.878103,165.483775,0
0.062500,-139.579576,-54.803625,171.270676,3.556947,2.900881,0.399507,-2.986344,-2.598275,-0.225378,3.100147,-0.167425,0.400743,-0.052556,78.274341,188.420079,954.987795,164.365907,0
0.063542,-62.129888,-105.929654,192.341674,3.996060,1.946818,2.016641,-3.573009,-1.629866,-1.831823,3.770092,-0.167425,0.391235,-0.067423,-49.867910,188.269232,954.877076,163.878123,0
0.064583,1.805090,-153.908020,162.630837,3.478132,0.710205,2.776936,-2.982559,-0.469226,-2.630818,3.149352,-0.203887,0.399296,-0.071140,-161.786915,188.420045,955.154896,162.587270,0
0.065625,66.983059,-182.248730,112.152793,2.498573,-0.849321,3.565389,-2.180152,1.057741,-3.425585,2.377213,-0.145548,0.374767,-0.067423,-250.626354,188.420122,954.863520,161.312463,0
0.066667,121.798997,-179.735298,34.503611,0.967308,-2.049238,3.621707,-1.040886,2.153095,-3.472087,1.245500,-0.152841,0.413489,-0.093440,-304.801412,188.420155,954.801203,160.936366,0
0.067708,168.162590,-151.406333,-34.906738,-0.316252,-3.028988,3.207367,0.117305,3.070726,-3.222666,0.045657,-0.127317,0.413903,-0.078573,-324.931297,188.269254,955.062023,160.465330,0
0.068750,176.694034,-87.349048,-94.583598,-1.520997,-3.561061,2.197664,1.601001,3.596641,-2.195387,-1.392642,-0.094502,0.403774,-0.074856,-260.623746,188.420021,955.265445,160.857398,0
0.069792,179.948412,-11.910849,-145.000884,-2.466778,-3.608764,1.220142,2.532095,3.676435,-1.134288,-2.425945,-0.072625,0.438776,-0.093440,-187.241987,188.419958,955.079878,160.574345,0
0.070833,139.709378,55.352824,-170.920399,-2.984706,-2.863861,-0.324583,3.228524,3.048964,0.205826,-3.061824,-0.021578,0.414592,-0.089723,-78.430279,188.420110,955.113264,160.843461,0
0.071875,62.135391,106.220463,-191.930640,-3.345004,-1.986857,-1.909536,3.728136,2.131333,1.901048,-3.663638,-0.058040,0.431197,-0.063706,49.498064,188.269246,954.396213,160.990255,0
0.072917,-1.652688,153.893459,-162.292712,-2.872113,-0.706211,-2.681899,3.213384,0.959812,2.653540,-3.145094,-0.021578,0.429198,-0.067423,161.124352,188.420126,954.351621,161.187120,0
0.073958,-66.446459,182.304638,-112.543768,-1.881295,0.831298,-3.526670,2.392053,-0.552647,3.541312,-2.361600,-0.028871,0.414798,-0.093440,250.436641,188.495454,954.589854,161.554442,0
0.075000,-121.985592,179.180466,-35.490018,-0.417586,2.038554,-3.498511,1.298206,-1.720541,3.562450,-1.214747,-0.087210,0.416521,-0.030256,302.799109,188.495405,955.024842,161.400060,0
0.076042,-168.778583,151.274322,33.835269,0.888493,3.010965,-3.224966,0.049176,-2.645426,3.258071,0.015377,-0.116379,0.422515,-0.041406,317.716389,188.344614,954.602333,161.438711,0
0.077083,-176.439933,88.743888,94.800206,2.093238,3.546708,-2.146877,-1.411810,-3.135071,2.256157,1.461245,-0.127317,0.418106,-0.059989,261.379733,188.420043,954.969536,161.906736,0
0.078125,-179.841210,13.528843,145.849378,3.095316,3.631106,-1.060742,-2.339120,-3.236627,1.211967,2.464268,-0.149195,0.409424,-0.071140,188.099298,188.495370,953.918393,162.147374,0
0.079167,-140.189772,-54.040200,171.173462,3.613244,2.893542,0.379393,-2.963634,-2.587394,-0.178876,3.066082,-0.189302,0.415418,-0.059989,79.343882,188.495421,953.374879,162.411143,0
0.080208,-63.056482,-106.305495,192.147248,3.973542,1.990851,1.976414,-3.485956,-1.684271,-1.874098,3.664112,-0.185656,0.419759,-0.078573,-49.845393,188.344657,952.816227,162.319308,0
0.081250,0.901096,-154.236881,162.047557,3.455614,0.732222,2.728663,-2.940925,-0.534512,-2.558950,3.168277,-0.185656,0.421068,-0.074856,-161.516715,188.419989,952.274845,163.487778,0
0.082292,66.531062,-182.542355,112.359371,2.442277,-0.878676,3.537230,-2.195292,0.996082,-3.425585,2.354503,-0.138256,0.413351,-0.089723,-250.829004,188.495461,951.935354,163.824083,0
0.083333,122.363993,-179.148047,34.904616,0.978568,-2.012544,3.513094,-1.037101,2.120452,-3.408675,1.268210,-0.138256,0.412662,-0.097156,-304.621279,188.420043,951.007809,164.182710,0
0.084375,168.806686,-151.265393,-34.797373,-0.395067,-2.995962,3.187253,0.158939,3.085234,-3.193073,0.004022,-0.116379,0.415212,-0.100873,-325.145205,188.420008,951.058013,163.498379,0
0.085417,176.626234,-87.313813,-95.008906,-1.543516,-3.531705,2.145368,1.635065,3.524101,-2.195387,-1.419136,-0.083563,0.412456,-0.059989,-259.756855,188.420408,950.404073,163.337949,0
0.086458,179.801513,-11.875613,-145.280372,-2.478038,-3.594086,1.163824,2.566160,3.632911,-1.163880,-2.456225,-0.061686,0.417003,-0.067423,-185.981054,188.495546,950.273246,163.340546,0
0.087500,139.042683,55.552489,-171.345708,-2.984706,-2.838175,-0.360788,3.171750,3.034456,0.290375,-3.050469,-0.032517,0.402810,-0.078573,-76.234906,188.420314,950.260139,162.483787,0
0.088542,61.310496,106.608048,-192.100763,-3.435078,-1.920807,-1.945741,3.678932,2.120452,1.943323,-3.652283,-0.032517,0.395093,-0.078573,52.019928,188.495626,950.359528,162.193919,0
0.089583,-2.669681,154.527689,-161.758039,-2.860854,-0.680525,-2.702012,3.167965,0.927169,2.640858,-3.099674,-0.036163,0.401707,-0.052556,163.972708,188.420301,949.739869,161.967524,0
0.090625,-67.599052,181.881818,-111.158478,-1.926332,0.967068,-3.526670,2.369343,-0.596171,3.520175,-2.308610,-0.039809,0.372838,-0.045123,251.438632,188.495665,949.075522,161.464872,0
0.091667,-122.505389,179.203956,-33.181201,-0.372548,2.086258,-3.506557,1.192227,-1.760438,3.520175,-1.180682,-0.079917,0.410664,-0.059989,303.519642,188.495700,948.724186,161.176679,0
0.092708,-168.066688,151.015931,36.399271,1.001086,3.095363,-3.164625,-0.022738,-2.714339,3.236933,0.079722,-0.101794,0.414661,-0.059989,316.342874,188.495828,949.210936,160.474041,0
0.093750,-176.971029,86.007301,95.444244,2.059460,3.576064,-2.134809,-1.495078,-3.167714,2.184289,1.514235,-0.116379,0.390063,-0.045123,260.017476,188.420365,949.285737,159.846338,0
0.094792,-179.649111,11.074136,145.679255,3.050279,3.649453,-1.096946,-2.369399,-3.265643,1.195057,2.524828,-0.156487,0.423480,-0.056273,186.365516,188.495604,949.912103,159.873765,0
0.095833,-138.200985,-55.531816,172.036231,3.635763,2.886203,0.391461,-3.065828,-2.598275,-0.280335,3.145567,-0.167425,0.406806,-0.041406,77.565067,188.494846,951.068209,159.276743,0
0.096875,-60.875596,-106.528650,192.268764,4.052357,1.957826,2.008596,-3.535160,-1.666136,-1.912145,3.732242,-0.174718,0.429474,-0.067423,-50.284468,188.496107,951.827904,159.311712,0
0.097917,2.652584,-154.788896,161.683007,3.489392,0.702866,2.801072,-3.020408,-0.501869,-2.626590,3.168277,-0.171072,0.428441,-0.045123,-162.563739,188.496125,952.453651,159.047830,0
0.098958,67.412456,-181.966850,112.177096,2.509832,-0.922710,3.549298,-2.168797,1.032352,-3.527045,2.346933,-0.207533,0.414729,-0.037689,-250.266088,188.496002,953.598850,158.640861,0
0.100000,122.974189,-179.159792,34.783099,0.989827,-2.133636,3.561366,-0.999252,2.200246,-3.518590,1.196295,-0.127317,0.413420,-0.074856,-305.972278,188.496111,955.323040,157.660352,0
0.101042,168.558088,-151.394588,-34.870283,-0.338771,-3.039996,3.203344,0.196789,3.114250,-3.201528,-0.018688,-0.076271,0.417692,-0.067423,-324.244539,188.496094,955.727549,157.303921,0
0.102083,176.987832,-87.243343,-95.142575,-1.487219,-3.579408,2.173527,1.688054,3.658300,-2.136202,-1.506191,-0.058040,0.420724,-0.082290,-260.691296,188.571435,957.547513,155.892829,0
0.103125,179.552915,-12.815214,-145.960866,-2.489297,-3.608764,1.119574,2.547235,3.654673,-1.146970,-2.490290,-0.021578,0.422791,-0.089723,-186.487679,188.496085,958.193577,155.473796,0
0.104167,138.940983,54.753829,-172.220628,-2.984706,-2.830836,-0.396992,3.258804,2.980051,0.290375,-3.111029,-0.047102,0.415281,-0.059989,-76.966697,188.496143,958.574664,154.778626,0
0.105208,62.248390,106.725498,-191.869881,-3.446337,-1.924476,-1.957809,3.667577,2.091436,1.947550,-3.678778,-0.036163,0.417348,-0.052556,51.603370,188.496136,958.850538,154.338445,0
0.106250,-1.675287,154.903530,-161.454247,-2.883372,-0.629152,-2.754308,3.171750,0.865510,2.674678,-3.122384,-0.065333,0.420999,-0.041406,163.860125,188.571594,959.448652,153.452509,0
0.107292,-67.237454,182.093228,-111.450118,-1.903813,0.934043,-3.506557,2.339064,-0.628814,3.490583,-2.327535,-0.076271,0.416039,-0.056273,251.438632,188.496089,959.451682,153.212249,0
0.108333,-122.934786,179.063016,-33.582206,-0.428845,2.104605,-3.534716,1.158163,-1.764065,3.549767,-1.154187,-0.090856,0.411422,-0.074856,304.015008,188.571594,959.788586,152.975092,0
0.109375,-168.405686,151.004186,36.338513,0.922271,3.117379,-3.124398,-0.041662,-2.728847,3.194659,0.094861,-0.116379,0.414109,-0.078573,316.365390,188.571587,959.651358,152.462998,0
0.110417,-176.869330,85.913341,95.711581,2.138276,3.612758,-2.018150,-1.517788,-3.164087,2.158924,1.563440,-0.127317,0.411698,-0.071140,259.296943,188.571460,959.759444,151.790554,0
