1-Time,2-VGERA,3-VGERB,4-VGERC,5-VN,6-IGERAN,7-IGERBN,8-IGERCN,9-IGERAT,10-IGERBT,11-IGERCT,12-IN,13-IFD,14-IFAULT,15-VFAULT,16-Speed (rad/s),17-FAULT 
0.000000,134.978208,65.505554,-179.107387,-0.521502,-6.197770,1.189081,5.117770,6.208471,-1.337512,-4.783200,-0.007891,0.606434,-0.043161,21.943738,188.420282,0
0.001042,56.442734,118.709855,-197.721023,-0.872112,-5.125586,-1.374624,6.244644,5.212343,1.298011,-6.074699,0.028639,0.613946,-0.050629,24.126568,188.495776,0
0.002083,-11.215281,168.193238,-165.208713,-0.261372,-3.183584,-3.577188,6.405093,3.304629,3.450914,-6.177876,0.024986,0.613815,-0.043161,24.194428,188.495740,0
0.003125,-80.858234,185.553497,-115.412311,0.666048,-0.588331,-5.462265,5.479713,0.716901,5.444343,-5.427171,-0.015197,0.603494,-0.050629,16.707208,188.495794,0
0.004167,-130.606441,189.214011,-29.964394,2.283378,1.907515,-6.323448,3.748357,-1.804664,6.342435,-3.740751,-0.018850,0.593303,-0.039427,10.034308,188.495741,0
0.005208,-165.881618,160.811805,47.087690,3.776298,4.066084,-6.259950,1.561774,-4.065250,6.380206,-1.687874,-0.080951,0.587555,-0.020755,-1.988222,188.495705,0
0.006250,-183.836796,82.781246,105.107576,4.873368,5.876726,-5.180496,-1.158394,-5.796528,5.297459,0.973396,-0.128440,0.596308,-0.054364,-6.421741,188.495655,0
0.007292,-181.171309,5.064791,150.152084,5.721618,6.579681,-3.577188,-3.184528,-6.594166,3.719502,3.008484,-0.197847,0.589318,-0.058098,-12.834511,188.495834,0
0.008333,-135.166127,-65.125261,179.574432,6.309738,6.334712,-1.053168,-5.285289,-6.314809,1.277027,4.954626,-0.223418,0.592193,-0.043161,-16.951351,188.495607,0
0.009375,-56.233666,-118.305401,197.867993,6.660348,5.244776,1.486725,-6.374849,-5.300302,-1.299742,6.206988,-0.248989,0.611660,-0.046895,-19.756231,188.495636,0
0.010417,11.129445,-167.909593,165.404925,6.128778,3.324076,3.760724,-6.535298,-3.433021,-3.511399,6.303050,-0.245336,0.614861,-0.050629,-19.281211,188.420332,0
0.011458,80.613603,-185.197366,115.805493,5.122188,0.785627,5.602147,-5.632307,-0.863672,-5.446075,5.563018,-0.248989,0.603755,-0.058098,-12.020191,188.495796,0
0.012500,130.259727,-189.256550,30.566856,3.493548,-1.742171,6.471266,-3.923339,1.643190,-6.302200,3.894388,-0.216112,0.598268,-0.069301,-4.815721,188.495714,0
0.013542,165.807124,-160.624808,-46.559091,2.000628,-3.936243,6.399832,-1.770339,3.892749,-6.398724,1.809490,-0.161317,0.591344,-0.046895,7.342528,188.494824,0
0.014583,183.376657,-83.089566,-104.849811,0.960108,-5.732684,5.360063,0.953561,5.668136,-5.299190,-0.773507,-0.139399,0.570832,-0.039427,10.418848,188.570700,0
0.015625,180.881307,-4.587851,-149.968182,0.100548,-6.446290,3.772629,3.046860,6.465774,-3.771594,-2.886868,-0.040768,0.575992,-0.020755,18.087028,188.495305,0
0.016667,134.705988,65.831738,-178.922728,-0.464952,-6.183569,1.208924,5.091650,6.190093,-1.345906,-4.779642,-0.015197,0.605911,-0.054364,21.988978,188.495251,0
0.017708,55.580704,118.504480,-197.745645,-0.815562,-5.146888,-1.315095,6.263300,5.160883,1.285421,-6.088930,-0.000585,0.619825,-0.046895,23.821198,188.495267,0
0.018750,-11.498844,167.758325,-165.442614,-0.216132,-3.268791,-3.573219,6.382704,3.297277,3.404750,-6.167203,0.032292,0.615122,-0.058098,24.296218,188.495381,0
0.019792,-80.529302,185.686387,-115.695455,0.688668,-0.673537,-5.462265,5.572997,0.749983,5.448540,-5.444960,-0.011544,0.605846,-0.058098,16.175638,188.495260,0
0.020833,-130.243481,189.081121,-30.912311,2.294688,1.843610,-6.275825,3.819253,-1.745852,6.313059,-3.801235,-0.055380,0.601142,-0.039427,9.118198,188.495343,0
0.021875,-166.539483,161.234637,46.028977,3.731058,4.055433,-6.259950,1.636402,-4.035844,6.384402,-1.655853,-0.088257,0.595786,-0.028224,-1.196522,188.495303,0
0.022917,-183.110876,84.508816,105.009091,4.850748,5.855424,-5.176527,-1.083767,-5.726689,5.356213,0.895123,-0.150358,0.590690,-0.073035,-5.731831,188.495255,0
0.023958,-181.477556,5.523865,150.139773,5.732928,6.600983,-3.624811,-3.173334,-6.605193,3.757273,3.012042,-0.168623,0.586314,-0.046895,-12.608311,188.495240,0
0.025000,-135.540429,-65.693064,178.601894,6.321048,6.316960,-1.037294,-5.236782,-6.267024,1.298011,4.926164,-0.223418,0.590494,-0.061832,-17.166241,188.419911,0
0.026042,-55.439691,-118.184592,198.323485,6.671658,5.273179,1.470851,-6.367387,-5.311329,-1.270365,6.171410,-0.274560,0.596374,-0.020755,-19.518721,188.495331,0
0.027083,11.832680,-167.305547,165.540341,6.072228,3.387981,3.705164,-6.546492,-3.433021,-3.423269,6.278145,-0.278213,0.601665,-0.061832,-19.156801,188.495638,0
0.028125,80.364068,-185.861816,115.768561,5.088258,0.796278,5.590241,-5.677083,-0.863672,-5.437681,5.573692,-0.256295,0.606303,-0.061832,-11.963641,188.495284,0
0.029167,129.908110,-188.918285,31.010038,3.527478,-1.727970,6.415706,-3.975579,1.577026,-6.272823,3.961987,-0.205153,0.602057,-0.043161,-5.652661,188.419891,0
0.030208,166.374249,-160.987235,-45.574243,2.045868,-3.907841,6.391895,-1.833772,3.907452,-6.453281,1.845068,-0.154011,0.598856,-0.054364,7.444318,188.495269,0
0.031250,182.696107,-84.865459,-104.788258,0.937488,-5.729134,5.356094,0.953561,5.653433,-5.349551,-0.734371,-0.132093,0.595132,-0.050629,10.158718,188.495289,0
0.032292,181.437090,-5.965074,-149.980493,0.066618,-6.432089,3.788504,3.009546,6.484153,-3.813561,-2.861963,-0.051727,0.578671,-0.069301,18.188818,188.491078,0
0.033333,135.284455,65.590120,-178.602652,-0.510192,-6.158717,1.189081,5.076725,6.175390,-1.345906,-4.829452,-0.026156,0.581479,-0.046895,21.853258,188.418078,0
0.034375,55.399224,118.371590,-198.090342,-0.872112,-5.118486,-1.311126,6.281957,5.186613,1.318994,-6.074699,0.014027,0.607544,-0.035692,24.217048,188.495852,0
0.035417,-12.372216,167.710002,-165.381061,-0.238752,-3.251039,-3.644654,6.431212,3.260520,3.429931,-6.152971,0.006721,0.614599,-0.035692,24.205738,188.420283,0
0.036458,-80.722124,185.807196,-115.523106,0.733908,-0.627384,-5.434485,5.535683,0.738955,5.473720,-5.405823,-0.015197,0.601600,-0.046895,16.831618,188.495693,0
0.037500,-129.993946,189.105283,-30.604546,2.305998,1.911065,-6.323448,3.834179,-1.786285,6.334042,-3.783445,-0.011544,0.594936,-0.046895,10.249198,188.420271,0
0.038542,-166.221893,161.295042,45.807387,3.787608,4.094486,-6.259950,1.632670,-4.054223,6.392796,-1.705663,-0.069992,0.596962,-0.043161,-1.762022,188.495854,0
0.039583,-183.462494,85.173265,104.639773,4.884678,5.876726,-5.204307,-1.158394,-5.763447,5.347819,0.927144,-0.139399,0.591540,-0.080503,-6.308641,188.420383,0
0.040625,-181.681721,7.094383,149.992046,5.744238,6.576131,-3.608936,-3.210648,-6.623572,3.757273,3.026273,-0.186888,0.602514,-0.031958,-12.811891,188.495792,0
0.041667,-136.152924,-64.315841,179.143561,6.321048,6.309860,-1.033326,-5.255438,-6.336864,1.327387,4.926164,-0.208806,0.601600,-0.050629,-16.894801,188.420283,0
0.042708,-56.233666,-117.846326,198.298864,6.682968,5.187972,1.474819,-6.344998,-5.252517,-1.266169,6.189199,-0.245336,0.557048,-0.013287,-19.824091,188.488787,0
0.043750,11.889392,-167.341790,165.675758,6.083538,3.327626,3.744849,-6.531567,-3.363182,-3.431662,6.271030,-0.285519,0.583374,-0.065566,-19.303831,188.420204,0
0.044792,80.500178,-185.608117,115.559281,5.099568,0.778526,5.550555,-5.636038,-0.826914,-5.395714,5.538113,-0.234377,0.609308,-0.069301,-12.088051,188.495676,0
0.045833,129.567835,-189.256550,30.505303,3.527478,-1.717319,6.447455,-3.960653,1.628487,-6.260233,3.944198,-0.212459,0.594675,-0.073035,-5.053231,188.495401,0
0.046875,165.943234,-160.878507,-45.845076,2.068488,-3.914942,6.383958,-1.766608,3.874370,-6.356757,1.873531,-0.172276,0.596243,-0.043161,7.138948,188.495559,0
0.047917,182.854902,-85.082915,-104.628220,0.937488,-5.725583,5.336252,0.908785,5.649757,-5.311781,-0.691677,-0.099216,0.593369,-0.050629,10.305748,188.420130,0
0.048958,181.527830,-6.895304,-149.918940,0.089238,-6.460491,3.764692,3.017009,6.458423,-3.842938,-2.840616,-0.080951,0.600554,-0.035692,18.109648,188.495432,0
0.050000,136.509445,64.611567,-178.516478,-0.532812,-6.148067,1.197019,5.020754,6.197444,-1.371086,-4.729833,0.006721,0.599313,-0.046895,21.898498,188.495524,0
0.051042,56.907777,118.105810,-197.942614,-0.872112,-5.153989,-1.311126,6.192404,5.168234,1.251847,-6.056909,0.032292,0.620544,-0.061832,23.877748,188.495012,0
0.052083,-11.283336,167.226765,-165.639584,-0.238752,-3.226188,-3.513690,6.378973,3.330359,3.396357,-6.124509,-0.026156,0.584550,-0.050629,24.217048,188.417755,0
0.053125,-80.393192,186.145461,-115.363069,0.666048,-0.701940,-5.402736,5.494638,0.757334,5.402376,-5.370245,0.006721,0.576711,-0.035692,16.209568,188.495314,0
0.054167,-129.415479,189.141525,-30.321402,2.305998,1.811657,-6.204390,3.841641,-1.701743,6.229125,-3.794119,-0.022503,0.589906,-0.039427,9.106888,188.495173,0
0.055208,-166.380688,161.210475,45.881250,3.764988,4.012830,-6.208359,1.632670,-3.977032,6.367616,-1.719894,-0.069992,0.590298,-0.046895,-1.139972,188.495336,0
0.056258,-183.008794,84.049741,105.390720,4.884678,5.823472,-5.196370,-1.083767,-5.730365,5.360409,0.870218,-0.172276,0.592258,-0.039427,-5.765761,188.419853,0
0.057292,-181.897229,7.118545,149.955114,5.721618,6.572580,-3.628779,-3.113632,-6.579463,3.832813,2.948001,-0.212459,0.598072,-0.043161,-12.608311,188.495264,0
0.058333,-137.230462,-64.291679,177.998675,6.264498,6.306310,-1.120634,-5.173348,-6.307458,1.415518,4.822986,-0.259948,0.604539,-0.024490,-17.098381,188.419945,0
0.059375,-57.901013,-117.640951,198.298864,6.671658,5.258977,1.435134,-6.337536,-5.337060,-1.232595,6.160736,-0.241683,0.612052,-0.050629,-19.597891,188.495432,0
0.060417,10.233387,-166.713583,165.885038,6.083538,3.366679,3.637698,-6.449477,-3.477130,-3.364515,6.242567,-0.248989,0.611529,-0.095440,-19.134181,188.419929,0
0.061458,79.502038,-186.248405,115.879356,5.088258,0.796278,5.554524,-5.624844,-0.915132,-5.357944,5.538113,-0.248989,0.597419,-0.017021,-11.997571,188.495285,0
0.062500,129.091450,-188.966608,30.677652,3.516168,-1.706668,6.391895,-3.953190,1.595405,-6.222463,3.912177,-0.212459,0.591997,-0.058098,-5.754451,188.419996,0
0.063542,166.170084,-160.950992,-45.771212,2.113728,-3.872338,6.364115,-1.807653,3.870694,-6.335774,1.873531,-0.154011,0.589384,-0.046895,7.478248,188.495392,0
0.064583,181.822735,-85.022510,-104.800569,0.948798,-5.643927,5.368000,0.878934,5.613000,-5.370534,-0.713024,-0.128440,0.591344,-0.065566,10.068238,188.419952,0
0.065625,181.811392,-6.448311,-149.709660,0.123168,-6.407237,3.800410,2.975964,6.454747,-3.842938,-2.815711,-0.059033,0.595459,-0.050629,18.245368,188.495222,0
0.066667,136.804350,64.829023,-178.048675,-0.487572,-6.187120,1.292265,5.046874,6.197444,-1.383676,-4.712043,-0.026156,0.601926,-0.069301,21.819328,188.419929,0
0.067708,57.599669,117.985001,-198.053410,-0.838182,-5.178841,-1.330969,6.211061,5.182937,1.260240,-6.053352,-0.000585,0.612705,-0.035692,24.194428,188.420014,0
0.068750,-9.910894,167.166361,-165.578031,-0.238752,-3.247489,-3.497816,6.356585,3.370792,3.358587,-6.106719,0.006721,0.604147,-0.058098,24.103948,188.420066,0
0.069792,-79.655929,186.048814,-116.175569,0.654738,-0.712591,-5.402736,5.517027,0.768361,5.410770,-5.409381,0.010374,0.604539,-0.031958,16.854238,188.495327,0
0.070833,-129.438164,188.984474,-30.986174,2.294688,1.829409,-6.263919,3.815522,-1.738500,6.271092,-3.779887,-0.033462,0.594544,-0.039427,10.339678,188.419969,0
0.071875,-166.085783,161.319203,45.930493,3.742368,4.002179,-6.279793,1.669984,-3.973356,6.355025,-1.744799,-0.066339,0.587163,-0.031958,-1.841192,188.420008,0
0.072917,-182.384956,84.967890,104.528978,4.895988,5.770218,-5.200339,-1.042722,-5.689932,5.347819,0.855987,-0.143052,0.590168,-0.017021,-6.172921,188.419943,0
0.073958,-182.044681,6.381609,149.351894,5.732928,6.586782,-3.632748,-3.132289,-6.575787,3.811830,2.962232,-0.179582,0.589449,-0.035692,-12.710101,188.495378,0
0.075000,-136.833474,-64.460812,178.207955,6.332358,6.313410,-1.112697,-5.184542,-6.333188,1.390338,4.837217,-0.208806,0.604147,-0.050629,-16.793011,188.419790,0
0.076042,-57.640136,-117.483899,198.175758,6.637728,5.269628,1.431165,-6.344998,-5.292951,-1.232595,6.185641,-0.256295,0.611398,-0.058098,-19.790161,188.419904,0
0.077083,9.552837,-166.870635,165.897349,6.049608,3.363129,3.617855,-6.471865,-3.480806,-3.435859,6.274587,-0.274560,0.613750,-0.050629,-19.224661,188.419934,0
0.078125,79.127735,-185.873897,116.630303,5.099568,0.838881,5.534681,-5.624844,-0.885726,-5.378928,5.523882,-0.241683,0.604539,-0.043161,-12.223771,188.495383,0
0.079167,129.012052,-188.978689,31.797917,3.550098,-1.688917,6.356178,-3.953190,1.551296,-6.239250,3.908619,-0.201500,0.590625,-0.035692,-5.290741,188.495398,0
0.080208,166.136057,-161.095963,-45.192614,1.989318,-3.868788,6.395863,-1.807653,3.841288,-6.356757,1.884205,-0.157664,0.592193,-0.035692,7.252048,188.344623,0
0.081250,181.856762,-85.058753,-104.578978,0.982728,-5.633276,5.360063,0.882665,5.587270,-5.341157,-0.688119,-0.099216,0.554174,-0.031958,10.305748,188.419819,0
0.082292,181.822735,-5.771780,-149.155682,0.089238,-6.385935,3.804378,2.934919,6.403286,-3.838741,-2.787248,-0.080951,0.583047,-0.076769,18.007858,188.495329,0
0.083333,137.065228,65.227693,-177.580872,-0.487572,-6.165818,1.288296,4.953590,6.127605,-1.425643,-4.651560,-0.007891,0.594479,-0.054364,21.875878,188.495390,0
0.084375,57.021202,117.888353,-197.954925,-0.849492,-5.157539,-1.211912,6.170016,5.219695,1.184700,-6.010657,0.017680,0.613881,-0.069301,23.889058,188.420090,0
0.085417,-9.876866,166.646882,-165.861175,-0.272682,-3.300743,-3.442256,6.341659,3.381820,3.299833,-6.106719,0.010374,0.613097,-0.028224,24.081328,188.420003,0
0.086458,-79.168202,186.411241,-116.483334,0.677358,-0.748093,-5.335270,5.546877,0.860255,5.368803,-5.427171,-0.026156,0.605388,-0.046895,16.424458,188.495374,0
0.087500,-129.324739,188.597885,-32.081818,2.260758,1.712249,-6.208359,3.856567,-1.606173,6.174568,-3.851044,-0.062686,0.594479,-0.043161,9.400948,188.495332,0
0.088542,-166.993183,161.560821,44.699432,3.719748,3.952475,-6.180579,1.718492,-3.910869,6.376009,-1.791051,-0.088257,0.592781,-0.028224,-1.060802,188.419961,0
0.089583,-181.545611,86.526327,104.689015,4.850748,5.759567,-5.216213,-0.949438,-5.638471,5.352016,0.774156,-0.139399,0.592781,-0.031958,-5.562181,188.419983,0
0.090625,-182.339586,6.272881,149.253410,5.698998,6.526427,-3.664497,-3.053930,-6.528003,3.853797,2.905307,-0.164970,0.589318,-0.046895,-12.449971,188.495302,0
0.091667,-137.411942,-65.354799,176.915341,6.287118,6.309860,-1.156352,-5.102452,-6.259673,1.465878,4.762503,-0.238030,0.578475,-0.054364,-16.917421,188.420099,0
0.092708,-56.868846,-117.483899,198.409660,6.660348,5.280279,1.379573,-6.303953,-5.351763,-1.186431,6.121600,-0.252642,0.597157,-0.073035,-19.677061,188.419961,0
0.093750,9.983852,-166.024972,166.020455,6.072228,3.391531,3.590075,-6.512910,-3.510212,-3.309958,6.256798,-0.263601,0.615057,-0.069301,-19.021081,188.419970,0
0.094792,78.844173,-186.502104,116.642614,5.133498,0.888585,5.510869,-5.695740,-0.992323,-5.341157,5.580807,-0.256295,0.606172,-0.073035,-12.110671,188.495351,0
0.095833,128.785202,-188.471291,32.795076,3.550098,-1.614361,6.399832,-4.009161,1.507187,-6.184693,3.951314,-0.194194,0.600424,-0.061832,-6.161611,188.419981,0
0.096875,166.964059,-161.506714,-44.121591,2.079798,-3.851036,6.427612,-1.815115,3.800855,-6.386134,1.901994,-0.154011,0.592715,-0.035692,7.353838,188.419884,0
0.097916,181.074130,-87.100426,-104.505114,0.948798,-5.611975,5.383875,0.837889,5.561539,-5.378928,-0.659656,-0.121134,0.588665,-0.020755,9.955138,188.419949,0
0.098958,182.276435,-6.581201,-149.217235,0.066618,-6.393036,3.824221,2.931187,6.480477,-3.863922,-2.762343,-0.029809,0.575470,-0.076769,18.154888,188.495477,0
0.100000,137.450873,65.505554,-177.223864,-0.487572,-6.172918,1.331950,4.953590,6.226850,-1.450823,-4.697812,-0.011544,0.564234,-0.031958,21.694918,188.420032,0
0.101042,56.726297,117.731302,-198.422728,-0.883422,-5.189491,-1.207943,6.199867,5.256452,1.209880,-6.039120,-0.000585,0.589841,-0.017021,24.273598,188.419875,0
0.102083,-10.478019,166.417345,-166.033523,-0.283992,-3.275891,-3.458130,6.360316,3.389171,3.387964,-6.092488,0.028639,0.623418,-0.020755,24.103948,188.420030,0
0.103125,-79.258942,186.435403,-116.347917,0.677358,-0.733892,-5.363050,5.561803,0.797767,5.393983,-5.462749,0.024986,0.602449,-0.046895,17.001268,188.495410,0
0.104167,-129.199971,188.670370,-32.106439,2.272068,1.744202,-6.236139,3.912537,-1.617201,6.304665,-3.858160,-0.051727,0.596308,-0.020755,10.758148,188.495428,0
0.105208,-166.823045,162.031977,44.096212,3.674508,3.987978,-6.295668,1.737149,-3.966005,6.413779,-1.783935,-0.073645,0.594675,-0.046895,-1.547132,188.344527,0
0.106250,-181.704406,87.601527,104.332008,4.816818,5.752466,-5.212244,-0.986751,-5.689932,5.356213,0.770599,-0.154011,0.592715,-0.013287,-6.048511,188.419998,0
0.107292,-182.611806,7.746752,149.265720,5.687688,6.558379,-3.648622,-3.057662,-6.550057,3.832813,2.891075,-0.197847,0.592650,-0.031958,-12.653551,188.495197,0
0.108333,-137.842957,-64.521216,177.370834,6.287118,6.281458,-1.136509,-5.113646,-6.270700,1.432305,4.833660,-0.241683,0.568153,-0.050629,-16.691221,188.495278,0
0.109375,-57.413286,-117.012744,198.471213,6.671658,5.287380,1.403385,-6.356193,-5.351763,-1.240989,6.150063,-0.270907,0.584419,-0.054364,-19.812781,188.344520,0
0.110417,10.346812,-165.952486,166.168182,6.083538,3.398632,3.617855,-6.494253,-3.495509,-3.284778,6.231893,-0.248989,0.602775,-0.020755,-19.247281,188.420010,0
0.111458,79.025653,-186.200081,116.581061,5.144808,0.877934,5.510869,-5.688277,-0.959241,-5.370534,5.595039,-0.263601,0.601992,-0.035692,-12.336871,188.495378,0
0.112500,128.376872,-188.918285,32.536553,3.538788,-1.632113,6.387926,-4.031549,1.503511,-6.230856,3.997566,-0.201500,0.598333,-0.035692,-5.663971,188.495470,0
0.113542,166.487674,-161.591280,-43.801515,2.113728,-3.826185,6.451424,-1.871086,3.815558,-6.381937,1.926899,-0.197847,0.593107,-0.028224,6.991918,188.344440,0
0.114583,181.062787,-87.764875,-104.049622,0.937488,-5.658128,5.371969,0.830426,5.535809,-5.416698,-0.624077,-0.088257,0.591540,-0.054364,10.136098,188.495396,0
0.115625,182.355832,-7.885938,-149.229546,0.111858,-6.378835,3.836127,2.919993,6.414313,-3.884905,-2.719649,-0.051727,0.598072,-0.031958,17.985238,188.495347,0
0.116667,138.687205,64.382030,-177.002273,-0.453642,-6.144516,1.351793,4.964784,6.175390,-1.459217,-4.608866,-0.033462,0.606303,-0.031958,21.796708,188.495336,0
0.117708,57.996657,117.393036,-198.287311,-0.872112,-5.185941,-1.211912,6.181210,5.238073,1.197290,-6.003542,-0.004238,0.598791,-0.043161,23.945608,188.345308,0
0.118750,-10.069689,165.922028,-166.255114,-0.261372,-3.314944,-3.426382,6.345391,3.381820,3.278850,-6.092488,0.014027,0.583962,-0.031958,24.047398,188.420318,0
0.119792,-79.043434,186.858234,-116.212500,0.654738,-0.758744,-5.275742,5.580460,0.823498,5.322639,-5.444960,-0.029809,0.591801,-0.043161,16.481008,188.495788,0
0.120833,-128.496736,188.779098,-31.971023,2.283378,1.694498,-6.212327,3.916269,-1.598822,6.182961,-3.843929,-0.048074,0.595590,-0.035692,9.547978,188.495761,0
0.121875,-167.015868,161.838682,43.936174,3.742368,3.927623,-6.248045,1.785657,-3.870435,6.405386,-1.847977,-0.077298,0.592585,-0.054364,-0.845912,188.344995,0
0.122917,-180.819691,88.253896,104.332008,4.873368,5.716963,-5.228119,-0.949438,-5.645823,5.377196,0.727904,-0.143052,0.591736,-0.028224,-5.381221,188.420265,0
0.123958,-182.815971,8.616577,149.130303,5.721618,6.551279,-3.676402,-3.083781,-6.513300,3.887370,2.869728,-0.194194,0.600293,-0.028224,-12.483901,188.495758,0
0.125000,-139.317482,-63.832605,176.435228,6.219258,6.285008,-1.215880,-5.068870,-6.300106,1.541419,4.762503,-0.259948,0.609243,-0.039427,-16.928731,188.495754,0
0.126042,-58.865126,-116.916097,198.360417,6.660348,5.283829,1.343856,-6.311416,-5.362790,-1.169645,6.132274,-0.252642,0.614599,-0.024490,-19.733611,188.344988,0
0.127083,9.178535,-165.324279,166.389773,6.049608,3.434134,3.522609,-6.471865,-3.528591,-3.276385,6.221220,-0.263601,0.582590,-0.035692,-19.009771,188.420410,0
