1-Time,2-VGERA,3-VGERB,4-VGERC,5-VN,6-IGERAN,7-IGERBN,8-IGERCN,9-IGERAT,10-IGERBT,11-IGERCT,12-IN,13-IFD,14-IFAULT,15-VFAULT,16-Speed (rad/s),17-Active Power,18-Reactive Power,19-FAULT 
0.000000,70.099105,94.161458,-202.608334,-0.939972,-2.633291,-3.406539,5.614042,2.848836,3.345997,-5.455633,-0.048074,0.458473,-0.028224,11.606398,188.495689,1609.067480,-21.900871,0
0.001042,8.600067,158.407705,-174.614016,-0.431022,-0.559929,-4.795543,4.819260,0.768361,4.714119,-4.651560,-0.015197,0.460367,-0.046895,-9.543301,188.571167,1607.607056,-21.332498,0
0.002083,-53.409383,191.364412,-124.214394,0.541638,1.698048,-5.458296,3.192383,-1.499577,5.561851,-3.239095,-0.077298,0.458799,-0.039427,-30.297151,188.495752,1607.458606,-20.154456,0
0.003125,-111.108683,195.930993,-44.429356,2.011938,3.757210,-5.422579,1.147592,-3.535942,5.431753,-1.168428,-0.091910,0.436654,-0.024490,-54.444000,188.722005,1604.985584,-18.633809,0
0.004167,-162.830485,164.955555,23.389773,3.335208,5.038860,-4.545522,-0.848691,-4.899645,4.651168,0.763483,-0.157664,0.437960,-0.024490,-65.075400,188.495644,1602.977539,-16.767249,0
0.005208,-188.861524,92.482212,76.251515,4.330488,5.738265,-2.700131,-3.214379,-5.465711,2.854984,2.926654,-0.175929,0.440769,-0.046895,-72.064980,188.495740,1600.493978,-14.566127,0
0.006250,-187.693246,23.306956,137.447538,5.540658,5.543000,-0.930142,-4.516627,-5.417926,1.050406,4.385371,-0.219765,0.453247,-0.009553,-58.922760,188.495653,1599.566624,-14.025152,0
0.007292,-141.336447,-40.431894,179.894508,6.321048,4.516969,1.288296,-5.587530,-4.374013,-1.039547,5.324642,-0.230724,0.456251,-0.028224,-35.002111,188.721844,1597.293836,-13.056069,0
0.008333,-70.321051,-93.781166,202.730682,6.773448,2.716978,3.502766,-5.699471,-2.664789,-3.381302,5.627059,-0.238030,0.449980,-0.035692,-7.835491,188.495656,1596.547540,-12.421578,0
0.009375,-8.402341,-157.495853,174.514773,6.196638,0.608113,4.871927,-4.908421,-0.573288,-4.694867,4.801639,-0.241683,0.451679,-0.035692,13.630888,188.495674,1594.418696,-11.659189,0
0.010417,53.130724,-191.455275,124.189016,5.246598,-1.575308,5.546586,-3.341246,1.646866,-5.546795,3.389174,-0.183235,0.453704,-0.013287,34.316878,188.495792,1593.056121,-10.293616,0
0.011458,110.535119,-195.562782,44.687121,3.742368,-3.677073,5.506901,-1.318843,3.749395,-5.454468,1.346970,-0.154011,0.436850,0.001650,58.554207,188.721905,1591.107943,-9.755533,0
0.012500,162.495114,-164.841043,-22.848864,2.520888,-4.926771,4.701278,0.681171,5.120449,-4.770407,-0.556478,-0.102869,0.444036,-0.017021,69.547527,188.495660,1591.121665,-8.705934,0
0.013542,188.004398,-93.201282,-76.116856,1.536918,-5.615525,2.875730,3.017009,5.701218,-2.965829,-2.758785,-0.073645,0.444754,-0.035692,76.333527,188.495741,1590.081777,-7.614890,0
0.014583,187.675465,-23.542790,-137.448296,0.326748,-5.416709,1.054150,4.356570,5.649757,-1.144465,-4.217503,-0.040768,0.465920,-0.043161,64.978287,188.495727,1589.711184,-7.640383,0
0.015625,141.590885,40.715539,-179.821402,-0.487572,-4.454584,-1.164289,5.364040,4.576438,1.012636,-5.110522,-0.022503,0.463176,-0.031958,40.322488,188.646471,1588.110743,-7.483883,0
0.016667,69.906282,94.185620,-202.768372,-0.939972,-2.608439,-3.366853,5.576728,2.856187,3.304030,-5.409381,-0.033462,0.458799,-0.024490,12.567748,188.495640,1587.338904,-6.982278,0
0.017708,7.828777,157.851984,-174.490910,-0.442332,-0.513775,-4.739983,4.793141,0.775713,4.630185,-4.598192,-0.022503,0.462327,-0.039427,-8.536711,188.495864,1585.705241,-6.458068,0
0.018750,-53.624891,191.400654,-124.017425,0.496398,1.666096,-5.497982,3.248354,-1.477522,5.498900,-3.185727,-0.073645,0.439594,-0.024490,-29.867371,188.495727,1584.467745,-6.438308,0
0.019792,-110.893176,195.556485,-44.749432,2.045868,3.746559,-5.434485,1.169981,-3.499185,5.452737,-1.182659,-0.084604,0.439790,-0.061832,-53.980290,188.646630,1584.337918,-6.040263,0
0.020833,-162.887198,165.305902,22.897349,3.312588,4.999807,-4.541554,-0.807646,-4.862888,4.722512,0.756367,-0.164970,0.444232,-0.043161,-64.430730,188.495749,1584.747543,-5.505211,0
0.021875,-188.600646,94.016487,76.325379,4.341798,5.716963,-2.735848,-3.147214,-5.451008,2.863377,2.955116,-0.212459,0.441357,-0.065566,-72.540000,188.495689,1585.002677,-6.150656,0
0.022917,-188.056206,24.237186,137.164394,5.484108,5.496846,-0.902362,-4.512896,-5.421602,1.067193,4.349792,-0.227071,0.460171,-0.035692,-58.244160,188.495537,1584.862423,-6.080651,0
0.023958,-141.722092,-40.661431,179.709849,6.275808,4.474366,1.236704,-5.520366,-4.407095,-1.056334,5.303295,-0.267254,0.461020,-0.028224,-34.775911,188.646502,1585.015126,-5.972049,0
0.025000,-69.424994,-93.829489,202.718372,6.739518,2.716978,3.463080,-5.669621,-2.690520,-3.347728,5.580807,-0.278213,0.462653,-0.043161,-5.890171,188.495716,1584.220943,-5.127910,0
0.026042,-7.619709,-157.314640,174.637879,6.219258,0.632965,4.844147,-4.893496,-0.584315,-4.678080,4.790965,-0.212459,0.452201,-0.061832,15.587518,188.495669,1583.899415,-4.728751,0
0.027083,53.436972,-191.044524,124.361364,5.280528,-1.522054,5.522775,-3.374828,1.635838,-5.500632,3.421194,-0.201500,0.443121,-0.024490,34.113298,188.495792,1583.487453,-4.185156,0
0.028125,110.467064,-195.393649,45.438068,3.798918,-3.591866,5.526744,-1.303918,3.650149,-5.475452,1.400337,-0.161317,0.443252,-0.043161,60.069747,188.646455,1583.168538,-2.911849,0
0.029167,162.812704,-165.275956,-22.097917,2.543508,-4.873517,4.657624,0.684902,5.083692,-4.728440,-0.535131,-0.095563,0.443448,-0.084238,68.710587,188.495620,1582.545197,-3.036106,0
0.030208,187.800233,-94.554344,-76.166099,1.469058,-5.533868,2.843981,3.013277,5.646082,-2.928059,-2.698302,-0.044421,0.446649,-0.009553,77.340117,188.495908,1581.529817,-3.117542,0
0.031250,187.698150,-23.373657,-137.078978,0.315438,-5.388307,1.105741,4.311794,5.579918,-1.140268,-4.114325,-0.062686,0.449980,-0.020755,62.829387,188.495763,1579.712053,-2.643672,0
0.032292,141.749680,41.645768,-178.984281,-0.498882,-4.369377,-1.108729,5.326727,4.543357,0.949685,-5.053597,-0.026156,0.460367,-0.035692,39.157558,188.646543,1578.454575,-1.738566,0
0.033333,68.942170,94.330591,-202.719129,-0.928662,-2.622640,-3.287481,5.475981,2.786348,3.257866,-5.356014,0.003068,0.489959,-0.031958,10.950418,188.495761,1576.989412,-1.714490,0
0.034375,7.522530,156.994240,-174.724811,-0.408402,-0.570579,-4.644737,4.778215,0.856579,4.533661,-4.594634,-0.062686,0.438483,-0.061832,-9.814741,188.495691,1575.855559,-0.271914,0
0.035417,-53.352671,191.569787,-124.472917,0.519018,1.559588,-5.406705,3.274473,-1.389304,5.448540,-3.221306,-0.077298,0.457101,-0.020755,-30.342391,188.495714,1575.342968,0.923180,0
0.036458,-110.723038,194.892036,-45.857387,2.023248,3.608098,-5.335270,1.211026,-3.414642,5.368803,-1.246701,-0.084604,0.445734,-0.043161,-54.172560,188.646476,1573.790308,1.815763,0
0.037500,-163.862653,165.692491,22.158712,3.289968,4.907500,-4.533616,-0.733018,-4.767318,4.655365,0.635400,-0.139399,0.446387,-0.035692,-65.414700,188.495544,1572.406300,3.140351,0
0.038542,-187.273574,94.958798,76.583902,4.330488,5.571402,-2.755691,-3.068856,-5.333384,2.867574,2.830592,-0.197847,0.442207,-0.039427,-71.318520,188.495676,1570.158799,4.348850,0
0.039583,-188.351111,23.149904,137.090531,5.495418,5.422290,-0.989671,-4.427074,-5.344411,1.155323,4.282193,-0.263601,0.444558,-0.069301,-59.295990,188.495658,1568.897590,5.955776,0
0.040625,-142.062367,-42.111139,178.220266,6.287118,4.463715,1.173207,-5.423350,-4.396068,-0.934630,5.189444,-0.248989,0.494663,-0.028224,-35.149141,188.646522,1566.913085,7.999948,0
0.041667,-68.914581,-94.071107,202.915342,6.762138,2.763132,3.351960,-5.650964,-2.653762,-3.272188,5.534555,-0.252642,0.454945,-0.043161,-7.496191,188.495729,1565.683545,8.536837,0
0.042708,-8.096094,-156.408572,174.711743,6.196638,0.739473,4.736995,-4.889764,-0.679884,-4.594146,4.755387,-0.219765,0.436393,-0.046895,13.676128,188.495626,1564.322702,9.635769,0
0.043750,52.881189,-191.600245,125.038447,5.337078,-1.458149,5.487058,-3.386022,1.577026,-5.479648,3.438984,-0.219765,0.435282,-0.009553,34.339498,188.495772,1564.276831,10.155835,0
0.044792,110.330954,-194.523824,46.422917,3.787608,-3.513760,5.443403,-1.356157,3.580310,-5.412501,1.450147,-0.150358,0.445865,-0.017021,58.271457,188.571239,1562.960093,10.874977,0
0.045833,163.277746,-165.481331,-21.839394,2.486958,-4.859316,4.661592,0.632663,5.024880,-4.728440,-0.471090,-0.143052,0.445408,-0.061832,69.717177,188.495693,1562.483069,11.896773,0
0.046875,186.518530,-94.336887,-76.560038,1.502988,-5.494815,2.891604,2.912530,5.620351,-2.978419,-2.616472,-0.088257,0.441815,-0.035692,75.688857,188.495712,1561.646232,13.415663,0
0.047917,187.981713,-22.129324,-136.845076,0.326748,-5.374106,1.125584,4.248361,5.594621,-1.224202,-4.096536,-0.040768,0.448282,-0.061832,65.215797,188.495676,1561.775217,14.941677,0
0.048958,141.726995,42.503512,-178.134849,-0.510192,-4.397779,-1.057137,5.296876,4.554384,0.886735,-4.985998,-0.018850,0.481336,-0.024490,40.774888,188.571089,1560.721501,16.228746,0
0.050000,69.259760,94.318510,-202.694508,-0.939972,-2.697196,-3.279544,5.539415,2.859863,3.241079,-5.380919,-0.015197,0.467814,-0.039427,12.861808,188.495687,1561.329519,17.075964,0
0.051042,8.804232,156.970078,-174.540152,-0.408402,-0.627384,-4.640768,4.770753,0.893337,4.487497,-4.626655,-0.029809,0.460236,-0.028224,-8.253961,188.495729,1561.233511,17.550023,0
0.052083,-52.887628,191.521463,-125.186932,0.507708,1.584439,-5.418611,3.274473,-1.348871,5.414966,-3.313810,-0.073645,0.452005,-0.031958,-29.991781,188.495689,1561.498433,18.553800,0
0.053125,-110.711696,194.734984,-46.066667,1.989318,3.618749,-5.370988,1.218488,-3.399939,5.352016,-1.260932,-0.102869,0.443644,-0.020755,-53.731470,188.495716,1561.207491,18.740789,0
0.054167,-163.306870,165.825381,22.429546,3.278658,4.907500,-4.533616,-0.740481,-4.756291,4.684742,0.667421,-0.161317,0.441945,-0.009553,-64.453350,188.495785,1561.291918,18.585162,0
0.055208,-187.228204,94.246024,76.571591,4.307868,5.589153,-2.775534,-3.061393,-5.366466,2.863377,2.805687,-0.197847,0.440965,-0.046895,-71.974500,188.495712,1561.355168,18.978212,0
0.056250,-188.305741,22.340484,136.881250,5.495418,5.471994,-0.993640,-4.427074,-5.348087,1.138536,4.253730,-0.230724,0.428880,-0.076769,-58.538220,188.495607,1560.975513,19.249863,0
0.057292,-142.028339,-41.700388,178.343372,6.298428,4.520520,1.145427,-5.449470,-4.348283,-0.951417,5.221465,-0.267254,0.438156,-0.039427,-35.296171,188.571078,1560.966451,18.455123,0
0.058333,-70.094201,-93.926137,202.570645,6.739518,2.763132,3.340054,-5.662158,-2.690520,-3.259598,5.570134,-0.259948,0.452985,-0.035692,-6.761041,188.495734,1561.558515,18.603218,0
0.059375,-9.457194,-156.807242,174.539394,6.230568,0.711071,4.736995,-4.912152,-0.705615,-4.568966,4.794523,-0.259948,0.460824,-0.050629,15.406558,188.495745,1561.869469,18.904891,0
0.060417,52.813134,-191.213656,125.223106,5.280528,-1.468800,5.502932,-3.427067,1.499836,-5.496435,3.453215,-0.183235,0.454357,-0.035692,34.068058,188.495651,1561.800895,19.747042,0
0.061458,110.240214,-194.850009,46.102841,3.776298,-3.506660,5.455309,-1.393471,3.606040,-5.391518,1.453705,-0.161317,0.442729,-0.035692,59.617347,188.495609,1561.824652,19.565504,0
0.062500,162.676594,-165.384684,-22.294886,2.486958,-4.830913,4.649687,0.602812,5.032231,-4.720047,-0.453301,-0.099216,0.439071,-0.017021,68.778447,188.495745,1561.608519,19.746857,0
0.063542,186.529872,-93.865732,-76.461553,1.502988,-5.473514,2.871761,2.912530,5.587270,-2.953239,-2.637819,-0.059033,0.439332,-0.046895,76.706757,188.495658,1561.077824,19.403043,0
0.064583,187.993055,-22.443428,-136.771213,0.326748,-5.345704,1.137490,4.255823,5.568891,-1.220005,-4.053842,-0.037115,0.458864,-0.061832,63.247857,188.495694,1560.405153,19.468969,0
0.065625,142.736478,41.621606,-177.888637,-0.453642,-4.397779,-1.025388,5.281950,4.580114,0.848965,-4.985998,-0.011544,0.456643,-0.046895,40.039738,188.495745,1560.677565,19.565470,0
0.066667,70.711600,94.185620,-202.448296,-0.939972,-2.654593,-3.239858,5.528221,2.911324,3.169736,-5.338224,-0.033462,0.458668,-0.035692,11.776048,188.495680,1560.101584,20.285079,0
0.067708,9.609550,156.571408,-174.835607,-0.476262,-0.701940,-4.589177,4.759558,0.919067,4.462317,-4.601750,-0.037115,0.461020,0.001650,-9.679021,188.495752,1559.617682,20.203160,0
0.068750,-53.069108,191.847648,-124.940720,0.507708,1.527635,-5.343208,3.267010,-1.330492,5.406573,-3.228421,-0.077298,0.448935,-0.046895,-30.263221,188.496020,1558.867917,19.797934,0
0.069792,-110.314708,194.819550,-45.500379,2.000628,3.554844,-5.323365,1.259533,-3.282315,5.343623,-1.239585,-0.113828,0.438679,-0.013287,-53.674920,188.571078,1557.701404,20.634893,0
0.070833,-163.442980,165.595843,22.774242,3.278658,4.868447,-4.529648,-0.688242,-4.719534,4.630185,0.614053,-0.113828,0.440182,-0.039427,-65.550420,188.495852,1556.726403,21.273411,0
0.071875,-186.422886,94.934636,76.953220,4.341798,5.528799,-2.823157,-2.997960,-5.329708,2.926327,2.752319,-0.161317,0.445342,-0.035692,-70.866120,188.496807,1556.336257,22.382136,0
0.072917,-188.600646,23.560655,137.139773,5.506728,5.443592,-1.076980,-4.348716,-5.340735,1.214077,4.221710,-0.194194,0.459648,-0.020755,-59.703150,188.495629,1556.378798,23.106157,0
0.073958,-143.604947,-41.120505,177.333902,6.298428,4.477916,1.129553,-5.367380,-4.355634,-0.880073,5.139634,-0.256295,0.461412,-0.050629,-36.144421,188.495685,1555.412280,23.671454,0
0.075000,-71.115026,-93.962379,202.595266,6.750828,2.812836,3.367834,-5.639770,-2.753007,-3.247008,5.545229,-0.234377,0.463176,-0.017021,-7.892041,188.495763,1555.555262,24.115632,0
0.076042,-9.287056,-156.009902,174.822538,6.253188,0.810479,4.625875,-4.889764,-0.727669,-4.497622,4.787408,-0.227071,0.461869,-0.069301,13.913638,188.495747,1554.632082,24.651246,0
0.077083,53.039984,-191.962673,124.915341,5.303148,-1.390694,5.455309,-3.423336,1.551296,-5.462861,3.471004,-0.194194,0.446322,-0.043161,34.226398,188.495678,1554.767136,24.529010,0
0.078125,109.639062,-194.511743,45.745833,3.787608,-3.439204,5.455309,-1.427053,3.539877,-5.366338,1.478610,-0.146705,0.439463,-0.043161,57.785127,188.495776,1553.794145,25.299051,0
0.079167,163.221034,-165.529655,-22.245644,2.498268,-4.802511,4.677467,0.539379,4.988122,-4.724244,-0.396375,-0.124787,0.442599,-0.039427,69.818967,188.495622,1553.531435,26.288581,0
0.080208,185.883350,-95.303360,-76.843182,1.502988,-5.477064,2.927321,2.841634,5.565215,-2.970026,-2.566662,-0.069992,0.446191,-0.046895,75.326937,188.495721,1553.116831,26.904298,0
0.081250,188.469440,-23.868974,-137.078978,0.349368,-5.388307,1.185113,4.196122,5.594621,-1.261972,-4.025379,-0.055380,0.451287,-0.031958,65.566407,188.495745,1553.574953,27.250950,0
0.082292,143.269576,41.440393,-177.642425,-0.487572,-4.380028,-0.981734,5.225980,4.624223,0.840571,-4.911283,-0.037115,0.462523,-0.043161,41.408248,188.495685,1553.153566,27.756911,0
0.083333,70.416695,94.258105,-202.657576,-0.962592,-2.714947,-3.184298,5.543146,2.955433,3.178129,-5.388034,-0.000585,0.461739,-0.043161,12.669538,188.495779,1554.065115,28.278192,0
0.084375,8.554697,156.426437,-174.872538,-0.442332,-0.677088,-4.545522,4.778215,0.908040,4.495891,-4.594634,-0.026156,0.468337,-0.054364,-8.581951,188.495765,1554.234179,28.226268,0
0.085417,-53.443411,191.799324,-124.817614,0.530328,1.527635,-5.394799,3.293130,-1.323141,5.393983,-3.253326,-0.073645,0.447629,-0.054364,-29.822131,188.495568,1554.243308,28.716187,0
0.086458,-110.257996,194.686660,-45.598864,2.000628,3.576146,-5.367019,1.330429,-3.341127,5.364606,-1.268048,-0.113828,0.441488,-0.024490,-53.505270,188.495796,1554.986461,28.534787,0
0.087500,-163.386268,165.982432,22.244886,3.346518,4.868447,-4.616957,-0.695704,-4.774670,4.739299,0.596264,-0.161317,0.449654,-0.039427,-64.589070,188.495546,1556.686269,28.936638,0
0.088542,-186.683764,96.154807,76.780871,4.341798,5.582053,-2.803314,-3.001691,-5.377493,2.959901,2.777224,-0.216112,0.446191,-0.005818,-71.635200,188.495783,1557.892052,28.580012,0
0.089583,-188.997634,24.527127,137.004356,5.484108,5.468444,-1.017451,-4.378567,-5.373817,1.197290,4.250173,-0.208806,0.456447,-0.058098,-58.979310,188.495687,1558.646548,27.890806,0
0.090625,-143.298699,-41.313800,177.814016,6.275808,4.524070,1.149396,-5.412156,-4.403419,-0.905253,5.164539,-0.230724,0.459518,-0.043161,-35.499751,188.495450,1559.492597,28.039013,0
0.091667,-70.173599,-93.914056,202.742993,6.705588,2.777333,3.324180,-5.680815,-2.741980,-3.263794,5.573692,-0.245336,0.467879,-0.017021,-6.252091,188.495655,1559.758626,28.053194,0
0.092708,-8.266231,-156.215278,174.994887,6.196638,0.778526,4.697310,-4.949466,-0.731345,-4.518606,4.794523,-0.238030,0.447433,-0.069301,15.858958,188.495870,1560.107308,28.365552,0
0.093750,53.244149,-191.503598,125.173864,5.303148,-1.426196,5.491026,-3.445724,1.503511,-5.475452,3.503025,-0.248989,0.430840,-0.031958,34.022818,188.495732,1560.248616,29.123180,0
0.094792,110.036049,-194.777523,46.152083,3.866778,-3.449855,5.498963,-1.449441,3.543553,-5.433485,1.496399,-0.146705,0.445603,-0.031958,59.594727,188.495767,1561.339234,29.422978,0
0.095833,163.232376,-165.855839,-21.543939,2.543508,-4.788310,4.721121,0.539379,4.962392,-4.833358,-0.407049,-0.099216,0.450438,-0.054364,68.982027,188.495707,1562.231733,29.875602,0
0.096875,185.883350,-96.293994,-76.486174,1.469058,-5.519667,2.939227,2.864022,5.550512,-3.058156,-2.534641,-0.073645,0.451483,-0.058098,76.424007,188.495694,1562.600813,30.724077,0
0.097917,188.412728,-23.458223,-136.906629,0.315438,-5.384757,1.197019,4.207316,5.620351,-1.312332,-4.036052,-0.062686,0.458473,-0.080503,63.519297,188.495622,1562.996532,31.434174,0
0.098958,143.201521,42.201490,-177.371591,-0.476262,-4.461684,-0.977765,5.252099,4.620547,0.802801,-4.993113,-0.048074,0.448151,-0.046895,39.870088,188.495731,1563.739279,31.796092,0
0.100000,69.531980,94.366833,-202.719129,-0.962592,-2.785953,-3.196204,5.550609,2.929702,3.148752,-5.366687,0.003068,0.458407,-0.039427,11.029588,188.495758,1563.034997,32.098088,0
0.101042,8.169052,156.027767,-175.069508,-0.431022,-0.755194,-4.557428,4.819260,0.981555,4.432940,-4.601750,-0.059033,0.427574,-0.043161,-9.893911,188.495770,1562.469748,33.418021,0
0.102083,-53.148506,191.895971,-125.113069,0.519018,1.502783,-5.347176,3.341638,-1.268004,5.377196,-3.345830,-0.084604,0.453834,-0.050629,-30.263221,188.495817,1562.859775,34.728235,0
0.103125,-110.121886,194.360476,-46.509849,2.023248,3.519341,-5.331302,1.349086,-3.297018,5.381393,-1.364110,-0.121134,0.449523,-0.017021,-53.720160,188.466670,1563.025125,35.933895,0
0.104167,-164.305010,166.054918,21.592424,3.278658,4.868447,-4.605051,-0.662122,-4.748940,4.730905,0.567801,-0.124787,0.446126,-0.050629,-65.731380,188.552548,1562.926219,36.283006,0
0.105208,-186.127981,96.420587,76.817803,4.353108,5.546550,-2.823157,-2.934526,-5.315005,3.010261,2.706067,-0.164970,0.442403,-0.039427,-70.730400,188.495296,1562.015083,37.507010,0
0.106250,-188.884209,23.306956,136.918182,5.450178,5.461343,-1.073011,-4.300208,-5.377493,1.222470,4.221710,-0.234377,0.453834,-0.050629,-59.782320,188.495327,1561.701055,38.442194,0
0.107292,-143.434809,-42.316515,176.915341,6.287118,4.513419,1.070024,-5.341260,-4.407095,-0.896860,5.125403,-0.248989,0.435347,-0.065566,-35.861671,188.495222,1561.079004,38.940711,0
0.108333,-69.402309,-94.095269,202.952273,6.750828,2.830587,3.264651,-5.632307,-2.749332,-3.221828,5.548787,-0.263601,0.451287,-0.058098,-7.597981,188.570779,1560.502282,39.685359,0
0.109375,-8.527109,-155.780365,175.056440,6.253188,0.870834,4.645718,-4.956929,-0.760751,-4.464049,4.787408,-0.241683,0.444428,-0.061832,13.811848,188.495265,1559.812811,40.154022,0
0.110417,52.677024,-191.926430,125.481629,5.348388,-1.355191,5.471183,-3.479306,1.444699,-5.446075,3.513698,-0.205153,0.457035,-0.061832,34.282948,188.495322,1559.498037,40.718998,0
0.111458,109.911282,-194.125154,46.952273,3.844158,-3.403701,5.467215,-1.430784,3.488416,-5.433485,1.521304,-0.175929,0.447498,-0.050629,57.932157,188.495305,1559.003669,41.231912,0
