1-Time,2-VGERA,3-VGERB,4-VGERC,5-VN,6-IGERAN,7-IGERBN,8-IGERCN,9-IGERAT,10-IGERBT,11-IGERCT,12-IN,13-IFD,14-IFAULT,15-VFAULT,16-Speed (rad/s),17-Active Power,18-Reactive Power,19-FAULT 
0.000000,-81.701359,-63.201308,202.634140,4.243765,0.493706,5.464114,-5.075630,-0.160931,-5.243404,5.494426,-0.214826,0.312206,-0.071140,-11.758481,188.495662,1512.790538,-914.402657,0
0.001042,-27.958914,-142.550596,177.091326,3.770874,-2.019882,6.481863,-3.595719,2.316310,-6.262228,3.885803,-0.156487,0.314135,-0.078573,120.616900,188.495723,1510.266656,-913.940598,0
0.002083,20.675965,-185.924918,122.809809,2.768796,-4.104143,6.023272,-1.112800,4.311160,-5.957849,1.539106,-0.109087,0.332118,-0.074856,208.071566,188.344891,1509.917271,-913.547967,0
0.003125,86.520630,-196.765562,59.390234,1.462718,-6.092997,5.061842,1.574506,6.208081,-4.964390,-1.341275,-0.076271,0.316409,-0.063706,287.532821,188.495705,1508.103603,-913.915393,0
0.004167,152.048897,-159.616095,6.676283,0.438121,-6.595715,3.167140,3.690286,6.755758,-3.218438,-3.449517,-0.006994,0.320268,-0.063706,308.248138,188.495743,1507.405386,-912.506478,0
0.005208,199.689382,-94.125919,-43.412908,-0.541438,-6.206751,0.665006,5.609250,6.316891,-0.711539,-5.398789,0.003945,0.326055,-0.100873,293.173242,188.495631,1506.248762,-912.778073,0
0.006250,186.513669,-40.228068,-118.510239,-2.016406,-4.933444,-1.591741,6.381377,5.228791,1.567076,-6.201208,0.025822,0.324402,-0.082290,220.140490,188.420254,1505.269512,-912.029581,0
0.007292,139.607679,8.689899,-184.287238,-3.299967,-3.194114,-3.667466,6.547915,3.458815,3.663910,-6.454803,0.040407,0.339766,-0.082290,125.210297,188.495642,1504.528818,-912.172138,0
0.008333,81.706862,63.292451,-202.563352,-3.660264,-0.401645,-5.397236,5.348089,0.843748,5.422544,-5.273885,0.044053,0.345967,-0.052556,11.715126,188.495693,1503.496026,-911.963211,0
0.009375,28.201715,142.477309,-176.838263,-3.176114,2.100936,-6.402917,3.845469,-1.575461,6.441368,-3.782597,-0.025225,0.319716,-0.067423,-120.345022,188.495797,1503.332686,-911.294312,0
0.010417,-20.851261,185.769416,-122.216499,-2.095221,4.236569,-5.952372,1.377689,-3.610208,6.103169,-1.348845,-0.061686,0.326400,-0.041406,-208.159954,188.344903,1502.902760,-911.197159,0
0.011458,-86.808925,196.516101,-58.748318,-0.834180,6.155703,-4.974851,-1.366391,-5.478113,5.067435,1.455836,-0.116379,0.315238,-0.063706,-287.688759,188.496871,1502.502743,-911.459045,0
0.012500,-152.032094,159.190458,-6.350310,0.167898,6.665760,-3.047966,-3.485956,-6.011282,3.351076,3.677628,-0.203887,0.317718,-0.063706,-305.882211,188.495745,1502.085209,-911.790201,0
0.013542,-199.887278,94.322768,43.884701,1.079901,6.302482,-0.533765,-5.355715,-5.579669,0.839949,5.554986,-0.192949,0.325435,-0.063706,-293.903354,188.495754,1502.291411,-912.176374,0
0.014583,-186.270868,40.671562,118.824061,2.543610,4.988811,1.722982,-6.131627,-4.480688,-1.459804,6.361190,-0.222118,0.334668,-0.074856,-219.834836,188.420242,1501.729097,-912.316617,0
0.015625,-139.794275,-8.704461,184.406633,3.905986,3.249480,3.802730,-6.294380,-2.721593,-3.556637,6.573150,-0.251287,0.349137,-0.078573,-124.859610,188.495662,1501.383818,-913.135998,0
0.016667,-81.735258,-63.342248,202.415410,4.266283,0.442334,5.532500,-5.075630,-0.110153,-5.260314,5.449006,-0.189302,0.328191,-0.045123,-11.308148,188.495890,1500.603794,-913.707011,0
0.017708,-27.778115,-142.656301,177.067023,3.782133,-2.038230,6.465772,-3.580579,2.359834,-6.291821,3.927438,-0.200241,0.287540,-0.071140,121.157300,188.495696,1501.283227,-914.146705,0
0.018750,21.161862,-185.666528,122.105012,2.723759,-4.126160,5.991091,-1.131724,4.282144,-5.978987,1.478546,-0.130964,0.330465,-0.097156,208.533157,188.269541,1500.900696,-913.923524,0
0.019792,86.565829,-197.012208,58.697589,1.451458,-6.067311,5.073910,1.623710,6.164557,-4.964390,-1.318565,-0.054394,0.319510,-0.037689,287.656663,188.490924,1500.877515,-913.045048,0
0.020833,151.868098,-159.310725,6.433249,0.449381,-6.533334,3.151049,3.709211,6.715861,-3.188846,-3.476012,0.007591,0.321508,-0.056273,308.191847,188.493335,1500.117125,-913.086094,0
0.021875,199.666782,-94.842365,-43.631638,-0.552697,-6.184734,0.648915,5.560046,6.284248,-0.732676,-5.326874,0.022176,0.326951,-0.056273,293.769933,188.495475,1499.712069,-912.273076,0
0.022917,186.321570,-40.568673,-118.874789,-1.937591,-4.882071,-1.587718,6.282969,5.199775,1.448707,-6.223918,0.047699,0.336804,-0.089723,220.163007,188.344701,1500.013619,-911.294449,0
0.023958,139.980576,8.713389,-184.056356,-3.311226,-3.175766,-3.659420,6.494925,3.415291,3.625862,-6.386673,0.054991,0.334668,-0.037689,125.435463,188.495492,1498.818070,-910.925583,0
0.025000,82.057159,63.539096,-202.210954,-3.592708,-0.372289,-5.352986,5.310240,0.858256,5.359132,-5.300379,0.022176,0.342040,-0.048839,11.782676,188.495486,1498.848976,-910.172585,0
0.026041,28.043516,142.430329,-176.862567,-3.187373,2.126622,-6.370735,3.826544,-1.579088,6.344136,-3.718252,0.029468,0.318063,-0.063706,-120.986746,188.495474,1497.291592,-909.735087,0
0.027083,-21.088559,185.593241,-121.973466,-2.106481,4.159510,-5.916168,1.339840,-3.584819,6.060894,-1.375340,-0.072625,0.357542,-0.063706,-208.385120,188.344708,1496.970915,-908.917520,0
0.028125,-86.469927,196.551336,-57.849094,-0.811661,6.108000,-4.938646,-1.343681,-5.387438,5.029388,1.433126,-0.134610,0.309726,-0.056273,-287.519884,188.495528,1496.030609,-907.580158,0
0.029166,-151.941694,159.354889,-5.718423,0.212935,6.607048,-3.088194,-3.451891,-5.996774,3.325711,3.579219,-0.149195,0.320199,-0.063706,-306.231220,188.495573,1495.807725,-906.322348,0
0.030208,-199.390081,94.451963,44.176341,1.169976,6.229092,-0.553879,-5.302726,-5.568788,0.856859,5.460361,-0.222118,0.327984,-0.067423,-293.925871,188.489851,1495.329680,-905.044654,0
0.031250,-186.677665,40.859482,118.933426,2.577388,5.007158,1.654596,-6.029434,-4.524212,-1.400619,6.342265,-0.229410,0.339560,-0.078573,-220.454044,188.269655,1496.002643,-904.306324,0
0.032291,-140.110673,-8.763186,184.187903,3.860949,3.264158,3.742389,-6.248960,-2.757863,-3.476315,6.508805,-0.236703,0.348103,-0.093440,-124.983451,188.495801,1495.548325,-902.940184,0
0.033333,-82.187255,-63.600638,202.536927,4.209987,0.460681,5.460091,-5.052920,-0.175439,-5.230722,5.414941,-0.207533,0.341006,-0.063706,-11.443248,188.420253,1495.540781,-902.169927,0
0.034375,-27.913714,-142.491871,176.872596,3.748356,-2.034560,6.453704,-3.542730,2.276413,-6.228409,3.889588,-0.178364,0.325366,-0.056273,121.359950,188.495705,1494.623474,-900.941346,0
0.035416,21.353960,-185.936663,122.190074,2.723759,-4.067448,5.983045,-1.071165,4.322041,-5.915575,1.531536,-0.116379,0.301665,-0.052556,209.017265,188.269509,1494.630729,-900.751815,0
0.036458,86.611029,-196.683347,57.859124,1.519014,-6.052633,5.053796,1.551797,6.157303,-4.951708,-1.261790,-0.076271,0.301596,-0.071140,287.521563,188.495783,1494.684833,-899.674662,0
0.037500,151.981097,-159.322470,5.679845,0.438121,-6.548012,3.195299,3.690286,6.730369,-3.180391,-3.464657,-0.039809,0.321025,-0.059989,308.417013,188.495740,1494.954915,-899.420763,0
0.038541,199.418184,-94.337329,-44.032643,-0.552697,-6.181065,0.693165,5.556261,6.313264,-0.749586,-5.323089,0.014883,0.327640,-0.074856,293.567283,188.495694,1495.393441,-898.976546,0
0.039583,186.626668,-40.874043,-119.093520,-2.005147,-4.951791,-1.603809,6.290539,5.196148,1.512119,-6.223918,0.033114,0.339146,-0.052556,220.883539,188.269478,1495.298725,-899.848837,0
0.040625,140.116176,8.678154,-184.335845,-3.277448,-3.183105,-3.679534,6.476001,3.440680,3.608952,-6.416953,0.029468,0.349206,-0.063706,125.446722,188.495797,1495.968373,-899.718242,0
0.041666,82.237958,63.727016,-202.453987,-3.637746,-0.412653,-5.393214,5.321595,0.847375,5.371814,-5.326874,0.018530,0.341213,-0.067423,11.591285,188.420278,1496.429690,-900.043053,0
0.042708,28.269515,142.735699,-176.655988,-3.164855,2.133961,-6.382803,3.815189,-1.589969,6.394866,-3.771242,-0.014286,0.316754,-0.086006,-121.054296,188.495741,1497.471963,-900.303807,0
0.043750,-21.258058,185.792906,-121.779039,-2.140259,4.192535,-5.936281,1.347410,-3.577565,6.065122,-1.382910,-0.017932,0.320405,-0.048839,-208.914261,188.268538,1497.666971,-900.065541,0
0.044791,-86.944524,196.480866,-57.435937,-0.845439,6.166711,-4.950714,-1.362606,-5.449097,5.054753,1.505041,-0.120025,0.311104,-0.037689,-287.688759,188.476654,1498.183388,-901.110475,0
0.045833,-151.828695,158.567973,-5.220204,0.224195,6.640073,-3.084171,-3.474601,-6.036671,3.308801,3.590574,-0.163779,0.318821,-0.030256,-305.251745,188.479252,1498.296679,-901.153805,0
0.046875,-199.875978,93.759007,44.407223,1.192494,6.247440,-0.578015,-5.355715,-5.601431,0.865314,5.513351,-0.196595,0.325848,-0.071140,-294.094746,188.485082,1499.165408,-901.462237,0
0.047916,-186.157868,40.824247,119.383038,2.633685,5.003489,1.714937,-6.112703,-4.480688,-1.417529,6.361190,-0.236703,0.331292,-0.071140,-220.285169,188.336760,1498.803869,-901.721816,0
0.048958,-140.167172,-8.563521,184.710425,3.872208,3.256819,3.786639,-6.317089,-2.812268,-3.518590,6.599645,-0.196595,0.340800,-0.033973,-125.264910,188.488373,1500.505503,-902.400826,0
0.050000,-82.526253,-63.917753,202.172377,4.232505,0.453342,5.484228,-5.079415,-0.211709,-5.289907,5.449006,-0.203887,0.339422,-0.082290,-11.094240,188.486135,1501.439865,-902.646751,0
0.051041,-28.094513,-143.126101,177.018416,3.782133,-2.052908,6.501976,-3.569224,2.280040,-6.300276,3.900943,-0.196595,0.336941,-0.063706,121.652666,188.489312,1502.445277,-903.234901,0
0.052083,21.500859,-185.690018,121.947040,2.712500,-4.159185,6.039363,-1.131724,4.322041,-5.974759,1.486116,-0.109087,0.334599,-0.082290,209.186140,188.400716,1502.629953,-903.627237,0
0.053125,87.187325,-197.023953,57.640394,1.496495,-6.115014,5.106092,1.563151,6.193573,-4.964390,-1.310995,-0.043455,0.309312,-0.059989,287.983154,188.476549,1503.099966,-904.360979,0
0.054166,151.834198,-158.418104,5.363902,0.483158,-6.559020,3.211390,3.694071,6.777520,-3.171936,-3.479797,0.011237,0.319165,-0.089723,307.606414,188.411967,1503.288345,-904.470727,0
0.055208,200.005780,-93.362493,-44.069098,-0.563957,-6.258124,0.660984,5.654669,6.335026,-0.703084,-5.338229,0.018530,0.328191,-0.063706,293.409667,188.481349,1503.441597,-904.775963,0
0.056250,185.959973,-40.603908,-119.044913,-2.016406,-4.977478,-1.583696,6.358668,5.243299,1.558621,-6.276908,0.062284,0.333221,-0.078573,220.489498,188.339441,1504.042726,-905.350273,0
0.057291,139.991876,8.349294,-184.724698,-3.277448,-3.212461,-3.691602,6.589549,3.458815,3.659682,-6.454803,0.051345,0.350239,-0.063706,125.750696,188.491165,1504.732995,-906.073219,0
0.058333,82.870754,64.079367,-201.931465,-3.626486,-0.438340,-5.425395,5.363229,0.909034,5.333767,-5.368509,0.051345,0.343487,-0.089723,11.557510,188.419629,1505.357268,-905.184200,0
0.059375,28.518113,143.193755,-176.680292,-3.153596,2.115613,-6.431076,3.834114,-1.564580,6.445596,-3.790167,-0.010640,0.340317,-0.093440,-121.347013,188.495752,1506.216787,-905.260996,0
0.060416,-21.258058,185.628476,-121.851949,-2.106481,4.159510,-5.936281,1.336055,-3.552176,6.090487,-1.382910,-0.043455,0.325297,-0.052556,-208.891745,188.344867,1506.378026,-905.074860,0
0.061458,-87.204422,196.751001,-57.363027,-0.867958,6.163042,-4.982896,-1.336111,-5.449097,5.118165,1.474761,-0.130964,0.311173,-0.048839,-288.172867,188.495577,1507.417980,-904.662125,0
0.062500,-151.975594,158.544483,-4.855654,0.179157,6.680438,-3.096239,-3.463246,-6.051179,3.317256,3.628424,-0.192949,0.318201,-0.071140,-304.564987,188.420231,1507.765464,-905.008715,0
0.063541,-200.113276,92.913367,44.273555,1.226272,6.280465,-0.565947,-5.393564,-5.623193,0.844176,5.539846,-0.200241,0.328604,-0.071140,-293.644413,188.495731,1507.965140,-905.260489,0
0.064583,-185.920570,40.037331,119.504554,2.656203,5.040183,1.678732,-6.124057,-4.578617,-1.409074,6.380115,-0.218472,0.341489,-0.052556,-220.138811,188.344912,1509.281935,-904.732294,0
0.065625,-139.771675,-8.446071,185.123581,3.928504,3.326539,3.774571,-6.347369,-2.834030,-3.518590,6.652634,-0.243995,0.349826,-0.045123,-125.422526,188.495698,1510.116410,-904.770382,0
0.066666,-82.944350,-64.152653,202.172377,4.232505,0.526732,5.508364,-5.136189,-0.233471,-5.281452,5.517136,-0.185656,0.346105,-0.063706,-11.218081,188.420401,1511.094474,-904.616428,0
0.067708,-28.207512,-143.783822,176.872596,3.725837,-2.008874,6.530136,-3.595719,2.254651,-6.338323,3.976643,-0.160133,0.330740,-0.052556,122.339424,188.495716,1512.513312,-904.241009,0
0.068750,21.433060,-186.124583,122.080709,2.689981,-4.122490,6.051432,-1.112800,4.285771,-5.949394,1.580741,-0.112733,0.333979,-0.074856,209.535148,188.344929,1513.109497,-903.110234,0
0.069791,87.763622,-197.012208,57.543180,1.462718,-6.140700,5.061842,1.578291,6.189946,-5.015120,-1.299640,-0.068979,0.313446,-0.097156,288.534812,188.495821,1513.919260,-902.743900,0
0.070833,152.116696,-158.418104,5.157324,0.426862,-6.606724,3.211390,3.739491,6.799282,-3.193073,-3.494937,0.018530,0.319992,-0.067423,307.392506,188.420303,1514.491296,-902.858491,0
0.071875,200.502976,-92.575578,-44.117705,-0.485141,-6.283810,0.697188,5.631960,6.335026,-0.732676,-5.436639,0.029468,0.327502,-0.059989,292.993109,188.495618,1515.279356,-903.407953,0
0.072916,185.564475,-39.511622,-119.397311,-1.960110,-4.988486,-1.595764,6.419227,5.279569,1.550166,-6.307188,0.058637,0.314411,-0.074856,219.892807,188.344957,1516.076183,-902.940526,0
0.073958,139.166982,8.619429,-185.429495,-3.333744,-3.267503,-3.699648,6.604689,3.502339,3.676592,-6.469943,0.033114,0.343487,-0.082290,125.525530,188.495705,1516.859519,-902.600345,0
0.075000,82.678655,64.232052,-201.980072,-3.626486,-0.431001,-5.469645,5.423788,0.883645,5.460591,-5.395004,0.029468,0.354993,-0.078573,11.377376,188.417163,1517.760599,-904.013880,0
0.076041,28.766711,143.863220,-176.777505,-3.187373,2.148639,-6.499462,3.906028,-1.597223,6.547055,-3.843156,0.022176,0.336941,-0.104590,-121.594696,188.495081,1519.417959,-904.964934,0
0.077083,-21.178959,185.933846,-121.511702,-2.095221,4.232899,-6.016736,1.381474,-3.628343,6.179264,-1.435900,-0.032517,0.332049,-0.063706,-209.488436,188.344632,1521.073857,-905.582138,0
0.078125,-88.232715,197.056371,-57.423786,-0.867958,6.225423,-5.023123,-1.392885,-5.536145,5.147757,1.497471,-0.123671,0.302767,-0.037689,-288.994725,188.419894,1522.314316,-906.506620,0
0.079166,-152.099893,157.745822,-5.050081,0.179157,6.735480,-3.096239,-3.550300,-6.112838,3.329938,3.670058,-0.163779,0.319027,-0.063706,-303.934521,188.419994,1522.859203,-907.098691,0
0.080208,-201.130269,92.208666,44.528740,1.136198,6.379541,-0.582038,-5.488188,-5.699360,0.848404,5.604191,-0.211179,0.324539,-0.045123,-293.104013,188.495443,1524.447808,-907.705832,0
0.081250,-185.016576,39.156455,119.893408,2.622425,5.106234,1.775278,-6.230036,-4.585871,-1.476714,6.493665,-0.222118,0.339008,-0.082290,-218.540129,188.344596,1525.190419,-908.778407,0
0.082291,-138.732082,-8.786676,185.974198,3.917245,3.337548,3.851002,-6.419283,-2.826776,-3.603140,6.762399,-0.236703,0.332601,-0.100873,-125.118551,188.419909,1526.630499,-909.878640,0
0.083333,-82.435854,-64.375809,201.771372,4.266283,0.479029,5.612955,-5.174038,-0.197201,-5.395594,5.543631,-0.156487,0.347896,-0.097156,-10.925365,188.419864,1527.253415,-911.024594,0
0.084375,-28.252712,-144.558992,177.006265,3.770874,-2.096941,6.622658,-3.697912,2.301802,-6.431328,4.006923,-0.145548,0.334254,-0.059989,122.575849,188.495300,1528.636744,-912.100568,0
0.085416,21.263561,-185.924918,121.521732,2.701241,-4.199549,6.115795,-1.150649,4.318414,-6.055082,1.546676,-0.120025,0.352719,-0.056273,209.726540,188.344623,1529.408186,-912.878929,0
0.086458,88.554616,-197.493753,57.713304,1.428940,-6.225098,5.142296,1.604786,6.258859,-5.061622,-1.299640,-0.079917,0.315445,-0.112023,289.131503,188.419932,1530.796551,-913.501024,0
0.087500,152.286195,-157.443269,5.400357,0.426862,-6.691121,3.191276,3.800050,6.835552,-3.269168,-3.612272,0.000299,0.319716,-0.048839,307.020981,188.419891,1531.683597,-914.424673,0
0.088541,201.519970,-92.141012,-44.275677,-0.518919,-6.320505,0.648915,5.681164,6.422074,-0.715766,-5.459349,0.022176,0.325573,-0.071140,292.576551,188.495421,1533.051771,-914.915990,0
0.089583,184.773480,-38.889137,-119.616041,-1.993888,-5.003164,-1.640014,6.460861,5.246926,1.600896,-6.363963,0.054991,0.343625,-0.071140,218.305383,188.344648,1532.891006,-915.559245,0
0.090625,138.319487,8.971779,-186.109989,-3.311226,-3.263834,-3.755966,6.669033,3.556744,3.685047,-6.572138,0.065930,0.317029,-0.033973,125.018905,188.419996,1534.705613,-915.421092,0
0.091666,81.944160,64.631382,-201.457550,-3.603968,-0.453018,-5.517918,5.446498,0.851002,5.456364,-5.421499,0.025822,0.346381,-0.059989,11.028368,188.419947,1534.715298,-915.198908,0
0.092708,28.631112,144.438726,-176.838263,-3.164855,2.163317,-6.527621,3.906028,-1.644374,6.534373,-3.850726,-0.006994,0.338457,-0.074856,-121.876154,188.495258,1534.844537,-915.537254,0
0.093750,-21.167659,185.839886,-121.195759,-2.106481,4.258586,-6.036849,1.358765,-3.617462,6.158126,-1.367770,-0.043455,0.336390,-0.097156,-209.578503,188.419967,1533.948846,-915.765625,0
0.094791,-88.865511,197.162076,-57.557454,-0.867958,6.302482,-5.027146,-1.381530,-5.547026,5.164667,1.508826,-0.116379,0.314411,-0.071140,-289.501349,188.419913,1534.406094,-915.928124,0
0.095833,-152.348492,157.287767,-5.135142,0.212935,6.772174,-3.148535,-3.622214,-6.120092,3.342621,3.723048,-0.152841,0.318614,-0.059989,-303.731871,188.419976,1534.575726,-916.385790,0
0.096875,-201.695266,91.915041,44.650257,1.169976,6.430913,-0.545833,-5.488188,-5.724749,0.852631,5.653396,-0.229410,0.325573,-0.071140,-292.935138,188.495389,1535.340915,-916.859041,0
0.097916,-184.790577,38.862830,120.002773,2.656203,5.091556,1.727005,-6.207326,-4.567736,-1.497851,6.497450,-0.229410,0.327226,-0.056273,-217.380522,188.419913,1535.106747,-916.982701,0
0.098958,-137.681189,-9.056811,186.630389,3.951023,3.304523,3.867093,-6.423068,-2.841284,-3.615822,6.735904,-0.240349,0.323781,-0.093440,-123.868877,188.419913,1535.110909,-916.496748,0
0.100000,-81.305861,-64.622454,201.649855,4.221246,0.449673,5.608932,-5.223242,-0.179066,-5.395594,5.539846,-0.192949,0.352582,-0.071140,-10.441257,188.419990,1534.954551,-916.134534,0
0.101041,-28.083213,-145.087518,176.945506,3.793393,-1.997866,6.646794,-3.678988,2.327191,-6.431328,4.003138,-0.171072,0.339422,-0.056273,122.801015,188.495425,1535.075297,-916.316250,0
0.102083,21.229661,-186.112838,121.363760,2.712500,-4.239914,6.139931,-1.078735,4.372819,-6.033944,1.478546,-0.134610,0.333290,-0.067423,209.884156,188.344648,1534.450398,-917.367274,0
0.103125,89.334311,-197.423283,57.822669,1.440199,-6.261793,5.142296,1.642635,6.331399,-5.048940,-1.329920,-0.047102,0.314893,-0.056273,289.694419,188.420036,1534.880661,-918.265051,0
0.104166,152.613893,-157.102663,5.497570,0.348047,-6.735155,3.171162,3.826544,6.853687,-3.239576,-3.585777,0.022176,0.321852,-0.045123,306.975948,188.419936,1534.806132,-918.135663,0
0.105208,202.197965,-91.812152,-44.457952,-0.608994,-6.368208,0.648915,5.760648,6.432955,-0.686174,-5.538834,0.025822,0.326813,-0.078573,292.767942,188.495325,1535.362762,-919.194013,0
0.106250,184.344083,-38.654236,-120.345142,-2.016406,-5.021511,-1.688286,6.494925,5.228791,1.626261,-6.409383,0.040407,0.365466,-0.074856,216.943126,188.419987,1535.637978,-919.631588,0
0.107291,137.460693,9.065740,-186.839089,-3.322485,-3.274842,-3.820329,6.718237,3.502339,3.752687,-6.602418,0.033114,0.338526,-0.078573,123.780489,188.419956,1535.701834,-920.604185,0
0.108333,80.633369,64.936753,-201.530460,-3.570190,-0.431001,-5.558145,5.469207,0.919915,5.490184,-5.463134,0.051345,0.315031,-0.071140,9.823728,188.420016,1536.879712,-919.719154,0
0.109375,27.840117,145.131681,-176.886870,-3.153596,2.222028,-6.604053,3.917383,-1.684271,6.640060,-3.858296,-0.003348,0.343005,-0.078573,-122.337745,188.495294,1538.199261,-920.549647,0
