1-Time,2-VGERA,3-VGERB,4-VGERC,5-VN,6-IGERAN,7-IGERBN,8-IGERCN,9-IGERAT,10-IGERBT,11-IGERCT,12-IN,13-IFD,14-IFAULT,15-VFAULT,16-Speed (rad/s),17-Active Power,18-Reactive Power,19-FAULT 
0.000000,-75.881897,-64.751649,196.363878,4.176209,-1.370330,5.891219,-3.531060,1.946671,-5.928766,3.416541,0.095606,0.197694,-0.018440,-13.244580,188.495801,1007.646209,-1300.657812,0
0.001042,-26.410824,-143.384491,168.913251,3.613244,-3.491285,6.161036,-1.690784,4.069701,-6.071120,1.470734,0.048206,0.203138,-0.029590,-18.761159,188.420256,1007.654668,-1301.338244,0
0.002083,17.749284,-186.359483,107.887556,2.431017,-4.753584,4.783335,0.880190,5.406564,-4.664834,-1.137638,-0.013779,0.199555,0.022444,-18.626059,188.495541,1008.325834,-1301.844737,0
0.003125,90.159206,-190.270572,55.635368,1.451458,-5.847087,3.217580,3.404771,6.481371,-3.025604,-3.597503,-0.035656,0.184535,-0.014723,-12.782988,188.495676,1008.051019,-1302.735258,0
0.004167,154.105483,-143.701607,8.717763,0.539455,-5.472800,0.989548,5.005347,6.116772,-0.765193,-5.200605,-0.079410,0.194112,0.011294,-7.739259,188.495685,1007.683497,-1303.239462,0
0.005208,201.565169,-85.739982,-43.838217,-0.496401,-4.232519,-1.471508,5.995076,4.825484,1.611689,-6.095448,-0.126811,0.201760,0.018727,-3.663745,188.495586,1008.246168,-1303.555927,0
0.006250,175.112044,-38.431081,-119.919833,-1.982628,-2.412460,-3.597336,6.072398,2.987298,3.708177,-6.171604,-0.137749,0.206376,0.033594,0.423027,188.495642,1008.795427,-1303.230051,0
0.007292,129.437746,5.413041,-186.498842,-3.232411,-0.456631,-4.975037,5.388094,0.959216,4.980737,-5.322456,-0.097641,0.213197,0.026161,6.558813,188.495465,1009.289665,-1303.524999,0
0.008333,77.096492,64.513932,-196.208028,-3.435078,2.240431,-5.849897,3.505290,-1.813255,5.912509,-3.475652,-0.083057,0.217607,0.015011,14.045599,188.495655,1009.290418,-1302.977073,0
0.009375,27.286421,143.311205,-168.684492,-2.950928,4.346709,-6.131979,1.661148,-3.917295,6.072119,-1.529845,-0.021072,0.204860,0.003860,18.852904,188.420296,1009.239692,-1302.796431,0
0.010417,-17.303084,185.851631,-108.011195,-1.757442,5.590660,-4.721573,-0.894362,-5.250360,4.678774,1.078526,0.026329,0.180745,0.029877,19.111845,188.495676,1008.892184,-1302.702141,0
0.011458,-89.769505,190.349970,-55.151423,-0.755365,6.702510,-3.155818,-3.388013,-6.363146,3.026603,3.496506,0.055498,0.182881,-0.014723,12.458176,188.495671,1008.400578,-1302.767582,0
0.012500,-153.489784,143.722280,-8.185212,0.134120,6.317216,-0.935962,-5.050448,-5.983355,0.822271,5.118647,0.117483,0.191493,0.003860,6.581330,188.495714,1007.950339,-1302.155510,0
0.013542,-201.616166,85.044210,44.030521,1.169976,5.109959,1.516917,-6.040176,-4.718653,-1.610691,6.047760,0.139360,0.196248,-0.025873,3.811782,188.420292,1007.854400,-1302.242192,0
0.014583,-175.095241,37.711819,119.626071,2.622425,3.260545,3.585512,-6.105900,-2.853881,-3.698551,6.082031,0.117483,0.193009,0.007577,0.332960,188.495781,1006.861947,-1301.530083,0
0.015625,-128.686448,-5.815188,186.764057,3.917245,1.341411,5.012270,-5.421596,-0.856183,-5.014248,5.213843,0.110191,0.217744,0.044744,-5.836602,188.495709,1006.531838,-1301.589803,0
0.016667,-76.559893,-64.246613,196.278816,4.176209,-1.370330,5.883043,-3.515596,1.939076,-5.859746,3.359424,0.102898,0.208512,0.015011,-13.222063,188.495604,1005.274584,-1301.111017,0
0.017708,-27.066220,-143.642882,168.901100,3.624503,-3.465599,6.193741,-1.694650,4.069701,-6.062493,1.463118,0.015390,0.201071,-0.003573,-18.637317,188.420209,1005.051692,-1301.306074,0
0.018750,17.353787,-185.666528,108.689566,2.487314,-4.735236,4.742454,0.876324,5.368584,-4.621696,-1.122406,0.000805,0.200450,0.003860,-18.198242,188.495571,1004.225222,-1300.876062,0
0.019792,90.046206,-190.564197,56.133586,1.428940,-5.806723,3.184875,3.389306,6.466179,-3.064428,-3.555617,-0.075764,0.185086,0.029877,-12.501530,188.495631,1004.639572,-1300.513305,0
0.020833,153.687386,-144.277112,9.033707,0.539455,-5.454453,0.960931,4.993749,6.112974,-0.860096,-5.173950,-0.104934,0.193354,0.003860,-8.065750,188.495597,1005.280183,-1299.913334,0
0.021875,201.678169,-85.986627,-43.485818,-0.451364,-4.250866,-1.512389,6.026005,4.836878,1.659141,-6.053561,-0.108580,0.201002,0.015011,-3.573679,188.420173,1004.782605,-1300.052158,0
0.022917,175.213744,-38.689472,-119.701103,-1.971369,-2.386774,-3.556455,6.068532,2.991096,3.699550,-6.129718,-0.112226,0.204516,0.026161,0.490577,188.495778,1004.392219,-1299.711193,0
0.023958,129.234347,5.483511,-186.353022,-3.187373,-0.537360,-5.015918,5.407424,0.947822,5.023875,-5.330071,-0.090349,0.218640,0.018727,6.536297,188.495803,1004.394091,-1300.163319,0
0.025000,76.350697,64.337757,-196.208028,-3.468856,2.255109,-5.853986,3.513022,-1.813255,5.947019,-3.490884,-0.064826,0.195214,-0.025873,13.899241,188.495678,1004.769761,-1300.221642,0
0.026042,26.958723,143.088050,-168.915373,-2.939669,4.361387,-6.172860,1.657282,-3.947678,6.110942,-1.560308,-0.017425,0.215540,0.015011,19.201912,188.420258,1005.387343,-1300.650252,0
0.027083,-17.133585,186.004317,-107.756010,-1.813739,5.649372,-4.778807,-0.917559,-5.307328,4.687401,1.078526,0.037267,0.189426,0.015011,19.348270,188.495575,1005.624115,-1301.256579,0
0.028125,-89.554807,190.455675,-55.345850,-0.777883,6.783239,-3.172171,-3.457604,-6.423913,3.099937,3.504122,0.077375,0.184535,0.003860,12.874734,188.495718,1006.671788,-1301.889934,0
0.029167,-153.647983,143.722280,-8.598369,0.145379,6.394275,-0.964579,-5.077511,-6.036526,0.839526,5.130070,0.095606,0.189909,0.041027,7.853521,188.495691,1007.259307,-1302.346448,0
0.030208,-201.627466,85.349580,43.678123,1.181235,5.135645,1.521005,-6.109766,-4.718653,-1.627946,6.021105,0.143006,0.198108,0.011294,4.014432,188.420283,1006.869580,-1302.359338,0
0.031250,-175.072642,38.087659,119.613919,2.622425,3.300909,3.638658,-6.148428,-2.861477,-3.707179,6.146764,0.106545,0.205618,-0.007290,0.513093,188.495655,1007.345476,-1303.057268,0
0.032292,-129.307944,-5.498073,186.314445,3.872208,1.352419,5.036799,-5.498918,-0.856183,-4.992680,5.297615,0.099252,0.221878,0.003860,-5.960443,188.495712,1007.964360,-1303.399614,0
0.033333,-76.989290,-64.164398,196.388181,4.041097,-1.355652,5.854426,-3.561989,1.897299,-5.933080,3.435580,0.084667,0.208994,-0.029590,-13.233321,188.491216,1009.413346,-1303.916464,0
0.034375,-27.619916,-143.067376,169.131981,3.658281,-3.487616,6.222358,-1.725579,4.035520,-6.045237,1.520236,0.029975,0.204102,0.003860,-18.783675,188.416821,1009.598851,-1303.388337,0
0.035417,16.980889,-185.854448,108.981207,2.498573,-4.735236,4.807864,0.841529,5.398968,-4.669148,-1.114791,-0.002841,0.203000,0.018727,-18.569767,188.495083,1010.143835,-1304.019118,0
0.036458,89.436010,-190.552452,55.951311,1.462718,-5.836078,3.160346,3.381574,6.473775,-3.038546,-3.608927,-0.053887,0.181779,-0.003573,-12.861796,188.495256,1009.473373,-1304.639657,0
0.037500,153.698686,-144.300602,9.483319,0.550714,-5.450784,0.981372,5.013080,6.109176,-0.838527,-5.215836,-0.072118,0.193492,-0.007290,-7.896875,188.495229,1009.089454,-1305.318209,0
0.038542,201.587769,-86.010117,-43.242785,-0.473882,-4.269213,-1.496036,5.995076,4.859665,1.641886,-6.087832,-0.134103,0.202655,0.007577,-3.787587,188.344455,1009.476073,-1305.577102,0
0.039583,175.270243,-38.290141,-119.105671,-1.960110,-2.427138,-3.617777,6.068532,2.960712,3.716805,-6.156373,-0.119518,0.199348,0.033594,0.423027,188.495334,1009.182224,-1305.906831,0
0.040625,128.951849,5.471766,-186.170747,-3.243670,-0.533690,-5.003654,5.411291,0.978206,5.010933,-5.322456,-0.086703,0.227046,0.007577,6.412455,188.495287,1009.282959,-1305.391722,0
0.041667,76.554096,63.809232,-196.366000,-3.446337,2.280796,-5.837633,3.485960,-1.817053,5.921137,-3.445190,-0.064826,0.184052,-0.011006,13.955533,188.495282,1008.419665,-1305.330776,0
0.042708,27.218622,142.923620,-168.781705,-2.950928,4.372395,-6.131979,1.634085,-3.909699,6.085060,-1.545077,-0.017425,0.196110,0.026161,18.864162,188.344449,1007.971846,-1304.820649,0
0.043750,-16.749388,185.428811,-108.254228,-1.779961,5.623685,-4.709308,-0.925291,-5.307328,4.700342,1.078526,0.029975,0.196592,0.026161,19.111845,188.490479,1007.768579,-1304.992197,0
0.044792,-89.170609,190.584870,-55.491670,-0.744105,6.742875,-3.147642,-3.399612,-6.336561,3.043858,3.500314,0.081021,0.181985,0.003860,12.491951,188.495720,1006.462515,-1304.347859,0
0.045833,-153.173386,144.380001,-8.744189,0.134120,6.346572,-0.944139,-5.065912,-5.979558,0.817957,5.103415,0.095606,0.189633,0.003860,6.603847,188.495845,1005.535347,-1304.053803,0
0.046875,-201.559667,85.842870,43.459393,1.136198,5.128307,1.512829,-6.051775,-4.695865,-1.632259,6.047760,0.157591,0.197901,0.015011,3.834299,188.344818,1005.219519,-1304.509142,0
0.047917,-175.456839,38.733635,118.848364,2.667463,3.282562,3.589600,-6.121365,-2.831094,-3.711493,6.074415,0.128422,0.205894,0.003860,0.411768,188.495647,1003.936738,-1304.317281,0
0.048958,-129.545242,-4.758137,186.581782,3.905986,1.367097,4.991830,-5.440927,-0.859981,-4.971111,5.251921,0.102898,0.207961,-0.025873,-5.757794,188.495788,1003.324119,-1304.145537,0
0.050000,-77.791584,-63.600638,196.096541,4.176209,-1.344644,5.838073,-3.519462,1.939076,-5.885628,3.374655,0.051852,0.206858,-0.040740,-13.177030,188.495711,1001.770480,-1304.312449,0
0.051042,-28.218812,-143.231806,169.095526,3.613244,-3.483946,6.148771,-1.713981,4.077297,-6.084061,1.466926,0.037267,0.206789,-0.011006,-18.671092,188.344945,1001.377911,-1305.439463,0
0.052083,16.754891,-185.314177,109.491577,2.476055,-4.749914,4.795599,0.864726,5.387574,-4.656206,-1.114791,-0.017425,0.195214,0.000144,-18.153209,188.495660,1000.938017,-1305.394232,0
0.053125,89.210012,-190.763862,56.461681,1.485236,-5.872773,3.201228,3.362243,6.473775,-3.008349,-3.540386,-0.072118,0.184810,0.029877,-12.546563,188.495579,1000.756380,-1304.966631,0
0.054167,152.918991,-144.605972,9.143072,0.550714,-5.450784,0.981372,4.962820,6.063601,-0.821272,-5.116832,-0.093995,0.192045,-0.003573,-8.133300,188.495559,1000.008662,-1303.623495,0
0.055208,201.700769,-85.422867,-42.768870,-0.440104,-4.243527,-1.483772,6.037603,4.871059,1.616003,-6.091640,-0.119518,0.197557,-0.025873,-3.551162,188.344930,1000.233924,-1303.314949,0
0.056250,175.439742,-38.254906,-118.546694,-1.937591,-2.423469,-3.593248,6.083997,2.975904,3.751315,-6.160181,-0.108580,0.231111,-0.022156,0.490577,188.495645,1000.151415,-1303.682080,0
0.057292,129.279547,5.213376,-186.097837,-3.254929,-0.493326,-4.975037,5.403558,0.966812,5.002306,-5.311032,-0.093995,0.205205,0.011294,6.333647,188.494781,999.824267,-1303.771157,0
0.058333,76.870493,63.539096,-196.378152,-3.446337,2.251440,-5.853986,3.485960,-1.839840,5.921137,-3.479460,-0.042949,0.201897,-0.018440,13.831691,188.473830,999.944117,-1304.123848,0
0.059375,27.625419,142.629994,-169.097649,-2.973447,4.368726,-6.148331,1.665014,-3.978061,6.080746,-1.564116,-0.039302,0.197212,-0.011006,19.213170,188.467724,999.796655,-1304.973705,0
0.060417,-16.466890,185.499281,-108.570172,-1.813739,5.642033,-4.758366,-0.913692,-5.303530,4.696029,1.101373,0.015390,0.199348,0.003860,19.325754,188.473526,999.459223,-1305.291219,0
0.061458,-88.978511,190.702321,-55.977737,-0.777883,6.757552,-3.151730,-3.411210,-6.401125,3.061113,3.496506,0.077375,0.182468,0.018727,12.942284,188.486171,999.918202,-1306.017029,0
0.062500,-153.286386,144.438726,-9.327469,0.122861,6.383266,-0.976844,-5.046582,-6.013739,0.805016,5.160533,0.124775,0.189495,0.011294,7.977362,188.483139,999.964613,-1307.098532,0
0.063542,-201.446667,86.206966,43.046236,1.169976,5.146654,1.500565,-6.078837,-4.707259,-1.619318,6.040144,0.099252,0.197557,-0.011006,4.070724,188.339311,999.916577,-1307.067088,0
0.064583,-175.490739,39.356121,118.994184,2.633685,3.337604,3.622305,-6.140695,-2.861477,-3.694237,6.082031,0.128422,0.206169,0.000144,0.546868,188.490968,1000.275226,-1307.081284,0
0.065625,-130.053739,-4.711157,186.132170,3.872208,1.381775,4.971389,-5.475722,-0.863779,-4.988366,5.255729,0.102898,0.216780,-0.048173,-5.847860,188.495624,1000.230058,-1307.374510,0
0.066667,-77.576886,-63.365738,196.363878,4.176209,-1.307949,5.858514,-3.554257,1.885905,-5.902883,3.416541,0.055498,0.199072,-0.014723,-13.154513,188.495606,1001.106248,-1307.065796,0
0.067708,-27.710315,-142.644556,169.423622,3.714578,-3.472938,6.152859,-1.694650,4.020328,-6.079748,1.497389,0.055498,0.206100,-0.025873,-18.783675,188.269418,1001.435459,-1306.202087,0
0.068750,16.619292,-185.443373,109.127027,2.498573,-4.735236,4.754718,0.860860,5.338201,-4.647579,-1.072904,-0.024718,0.209132,0.003860,-18.603542,188.495674,1001.581063,-1305.228771,0
0.069792,88.633716,-190.881312,56.060676,1.462718,-5.806723,3.172611,3.354511,6.485169,-3.055801,-3.525154,-0.057533,0.183363,0.000144,-12.906830,188.495732,1002.119153,-1305.042107,0
0.070833,152.772092,-144.899598,9.313195,0.561974,-5.414089,0.977284,5.016946,6.071197,-0.842841,-5.147295,-0.086703,0.189495,-0.014723,-8.009459,188.495674,1002.297098,-1305.446832,0
0.071875,201.576469,-85.751727,-42.537988,-0.462623,-4.243527,-1.479684,6.033737,4.825484,1.672082,-6.057369,-0.145042,0.198452,-0.014723,-3.663745,188.344844,1001.119983,-1305.592605,0
0.072917,175.677041,-38.619001,-118.097082,-1.881295,-2.386774,-3.544191,6.041469,2.907542,3.747001,-6.160181,-0.108580,0.201760,0.029877,0.389252,188.495649,1000.185615,-1305.871374,0
0.073958,129.607245,4.943241,-186.012776,-3.198633,-0.515343,-4.970949,5.422889,0.974408,4.985051,-5.314840,-0.090349,0.220638,0.015011,6.266097,188.495611,1000.169165,-1305.813242,0
0.075000,77.412890,63.139766,-196.414607,-3.457597,2.218415,-5.845809,3.482093,-1.782872,5.886627,-3.422343,-0.061180,0.201484,0.000144,13.876724,188.495756,999.474857,-1305.181156,0
0.076042,28.258215,142.536034,-169.085497,-2.973447,4.339370,-6.091097,1.672746,-3.943880,6.072119,-1.518422,-0.006487,0.200450,-0.003573,18.897937,188.269447,998.795696,-1305.122948,0
0.077083,-16.139192,184.994246,-109.420789,-1.813739,5.605338,-4.742014,-0.898228,-5.242764,4.661519,1.040448,0.044560,0.198108,0.022444,19.066812,188.495796,998.455997,-1304.157854,0
0.078125,-88.650813,190.866751,-56.512410,-0.777883,6.731866,-3.131289,-3.376415,-6.359348,3.086996,3.450812,0.099252,0.184535,0.000144,12.604534,188.495718,998.467330,-1303.514929,0
0.079167,-152.619690,145.413562,-9.400379,0.145379,6.317216,-0.976844,-4.973125,-5.975760,0.835212,5.091992,0.084667,0.192320,0.003860,6.772722,188.495758,998.187564,-1302.659623,0
0.080208,-201.412768,86.864686,42.815354,1.158716,5.113629,1.492388,-6.040176,-4.722451,-1.593436,6.009682,0.084667,0.199968,0.018727,3.901849,188.344827,998.239241,-1302.396000,0
0.081250,-175.976636,39.520551,118.192174,2.588648,3.271553,3.552807,-6.063373,-2.842488,-3.646786,6.085838,0.106545,0.205825,0.011294,0.501835,188.495747,997.952800,-1302.132268,0
0.082292,-129.522643,-4.640687,186.338749,3.838430,1.352419,4.963213,-5.460257,-0.859981,-4.992680,5.270960,0.110191,0.231731,-0.014723,-5.645210,188.495759,998.104583,-1302.121537,0
0.083333,-77.203988,-62.848957,196.363878,4.142431,-1.348313,5.813544,-3.527194,1.870713,-5.807981,3.420349,0.088314,0.202793,0.007577,-13.075705,188.495790,997.578090,-1300.958775,0
0.084375,-27.518217,-142.656301,169.289953,3.658281,-3.392209,6.132419,-1.725579,4.016530,-6.062493,1.482158,0.066437,0.183983,-0.003573,-18.704867,188.344963,997.316990,-1300.755861,0
0.085417,16.393293,-184.797397,109.564487,2.498573,-4.716889,4.762894,0.826064,5.364787,-4.664834,-1.091943,-0.006487,0.199968,0.029877,-18.164467,188.495790,997.108240,-1301.307588,0
0.086458,88.362518,-191.127957,56.182193,1.507755,-5.821400,3.168523,3.373842,6.496562,-3.055801,-3.513731,-0.032010,0.182743,0.033594,-12.569080,188.495602,997.147067,-1301.422999,0
0.087500,152.263595,-145.345908,9.191679,0.550714,-5.410419,1.014077,4.966686,6.044612,-0.834214,-5.139679,-0.068472,0.188737,0.003860,-8.245883,188.495682,996.689035,-1301.308738,0
0.088542,201.508670,-86.104077,-42.234196,-0.451364,-4.232519,-1.459243,6.006674,4.844473,1.603062,-6.026906,-0.108580,0.197281,-0.003573,-3.483612,188.342482,997.067188,-1300.567743,0
0.089583,176.004738,-39.030077,-117.756836,-1.915073,-2.416130,-3.572808,6.080130,2.960712,3.695236,-6.141142,-0.090349,0.203620,0.000144,0.501835,188.495607,997.482538,-1299.952225,0
0.090625,129.980143,4.661361,-185.806197,-3.243670,-0.522682,-4.946420,5.446086,1.012387,4.972109,-5.307224,-0.075764,0.218227,0.003860,6.209805,188.495622,997.587342,-1299.692161,0
0.091667,78.294284,62.846141,-196.402455,-3.468856,2.192728,-5.821280,3.540085,-1.786670,5.869372,-3.456613,-0.064826,0.209407,0.007577,13.775400,188.495745,997.652404,-1299.909902,0
0.092708,28.857111,142.254154,-169.377137,-2.950928,4.306345,-6.144243,1.688211,-3.962870,6.106629,-1.556500,-0.024718,0.202242,-0.014723,19.179395,188.269624,998.088310,-1300.458923,0
0.093750,-15.947093,184.923776,-109.906856,-1.768702,5.642033,-4.774719,-0.871165,-5.246562,4.665832,1.070911,0.026329,0.195834,0.018727,19.303237,188.495788,997.776058,-1300.959581,0
0.094792,-88.503914,190.819771,-56.876960,-0.822920,6.739205,-3.163994,-3.360951,-6.393529,3.082682,3.485082,0.044560,0.182536,0.007577,13.077383,188.495635,997.649314,-1301.740791,0
0.095833,-152.630990,145.413562,-9.789233,0.122861,6.375927,-0.972755,-5.034983,-6.013739,0.861095,5.103415,0.073729,0.191080,0.000144,8.202529,188.495653,998.128539,-1302.045053,0
0.096875,-201.412768,86.265691,42.535866,1.158716,5.120968,1.463771,-6.047908,-4.745238,-1.606377,6.021105,0.153945,0.198039,0.018727,4.070724,188.269653,998.285689,-1302.126335,0
0.097917,-175.750637,38.956790,117.949140,2.611166,3.297240,3.614129,-6.109766,-2.857679,-3.672669,6.127725,0.132068,0.210854,0.007577,0.580643,188.495774,998.693235,-1302.439948,0
0.098958,-129.692141,-4.875587,185.876985,3.917245,1.370766,4.979565,-5.440927,-0.901758,-4.971111,5.312846,0.143006,0.192389,-0.007290,-5.735277,188.420273,999.409817,-1302.053165,0
0.100000,-77.181389,-62.684527,196.546153,4.187468,-1.326296,5.858514,-3.534926,1.885905,-5.907197,3.420349,0.073729,0.199830,0.011294,-13.098221,188.495823,999.832006,-1303.202126,0
0.101042,-27.845915,-142.186500,169.581593,3.635763,-3.476607,6.136507,-1.679185,4.058307,-6.036610,1.512620,0.037267,0.194938,0.007577,-18.806192,188.344813,999.622569,-1303.520022,0
0.102083,16.314194,-184.985317,109.649548,2.487314,-4.709550,4.750630,0.884056,5.357191,-4.613069,-1.088136,-0.006487,0.196523,0.018727,-18.581025,188.495631,999.112937,-1303.343637,0
0.103125,87.989620,-191.245408,56.571047,1.473977,-5.821400,3.201228,3.373842,6.488967,-3.042859,-3.502307,-0.068472,0.181572,0.003860,-13.019413,188.420263,998.770573,-1303.354876,0
0.104167,152.286195,-145.651278,9.726352,0.584492,-5.469131,0.956843,4.982150,6.078793,-0.821272,-5.124448,-0.083057,0.189564,0.003860,-8.167075,188.495636,998.820241,-1303.690184,0
0.105208,201.282671,-86.550388,-41.930404,-0.440104,-4.225180,-1.483772,5.979611,4.814090,1.650513,-6.099255,-0.119518,0.197626,0.003860,-3.697520,188.344829,998.241715,-1304.932100,0
0.106250,176.140337,-39.711287,-117.489499,-1.892554,-2.423469,-3.523750,6.049201,2.949319,3.712491,-6.110679,-0.083057,0.204309,-0.003573,0.400510,188.495774,997.596047,-1305.125655,0
0.107292,130.522539,4.144580,-185.721135,-3.221151,-0.522682,-4.962773,5.403558,1.008589,4.993678,-5.307224,-0.126811,0.224910,0.007577,6.142255,188.495797,997.417071,-1305.675953,0
0.108333,78.712381,62.482045,-196.499668,-3.412560,2.200067,-5.821280,3.528487,-1.775276,5.860744,-3.471845,-0.057533,0.207547,-0.011006,13.809175,188.495678,997.451763,-1305.697245,0
0.109375,29.015310,142.312879,-169.547260,-2.894632,4.343039,-6.099273,1.692077,-3.894507,6.080746,-1.560308,-0.010133,0.193423,-0.014723,18.920454,188.345073,997.398883,-1304.881467,0
0.110417,-15.754994,184.524445,-110.356468,-1.802480,5.645702,-4.754278,-0.851834,-5.242764,4.657205,1.029024,0.026329,0.163451,0.041027,19.010521,188.495850,997.423494,-1304.603670,0
