1-Time,2-VGERA,3-VGERB,4-VGERC,5-VN,6-IGERAN,7-IGERBN,8-IGERCN,9-IGERAT,10-IGERBT,11-IGERCT,12-IN,13-IFD,14-IFAULT,15-VFAULT,16-Speed (rad/s),17-Active Power,18-Reactive Power,19-FAULT 
0.000000,62.783192,90.827128,-197.080872,-0.792942,2.699227,-6.121050,2.972232,-2.036236,6.296272,-2.958025,-0.026156,0.204554,-0.035692,32.258458,188.571158,1034.851640,-1313.044377,0
0.001042,19.262018,161.911168,-150.583713,0.077928,4.698033,-5.791658,0.677440,-4.083629,5.926963,-0.702350,-0.095563,0.197564,-0.013287,10.678978,188.495694,1035.527168,-1314.084077,0
0.002083,-33.900282,208.531376,-90.741856,1.186308,5.990335,-4.172475,-1.986758,-5.395872,4.525267,1.845068,-0.190541,0.186002,-0.043161,-15.763801,188.495673,1035.661850,-1314.829137,0
0.003125,-108.794813,177.676747,-45.451137,2.113728,6.615184,-2.219932,-4.404686,-5.991343,2.414331,4.161226,-0.190541,0.178555,-0.020755,-54.217800,188.495499,1035.551384,-1316.007923,0
0.004167,-181.488899,127.661805,-1.034470,2.939358,6.000986,-0.120551,-5.557679,-5.506144,0.475459,5.424262,-0.223418,0.194951,-0.043161,-86.767980,188.570846,1035.902976,-1316.540079,0
0.005208,-192.797372,73.454789,63.842424,4.149528,4.307503,2.609834,-6.408432,-3.796920,-2.260785,6.153621,-0.259948,0.196389,-0.024490,-93.259920,188.494762,1036.740104,-1317.846426,0
0.006250,-168.762613,27.341978,146.692803,5.698998,2.557216,4.443320,-6.233057,-2.106075,-4.212247,6.196315,-0.241683,0.207951,-0.024490,-79.088490,188.495508,1036.907235,-1318.298082,0
0.007292,-110.609613,-20.039328,196.796970,6.649038,0.089772,5.494995,-4.762898,0.338299,-5.206863,4.737598,-0.234377,0.225458,-0.009553,-49.218780,188.495566,1037.966560,-1318.794258,0
0.008333,-62.381301,-90.350189,197.141667,6.637728,-2.512582,6.399832,-3.009154,2.977487,-6.214069,3.133009,-0.208806,0.192992,-0.020755,-26.779741,188.571078,1038.385265,-1319.168320,0
0.009375,-19.620074,-161.929545,150.866099,5.800788,-4.461684,6.006942,-0.706899,4.980771,-5.853154,0.891565,-0.161317,0.190967,-0.009553,-5.912791,188.495544,1038.496199,-1319.803046,0
0.010417,33.666993,-208.090679,91.295076,4.692408,-5.718483,4.423477,1.923717,6.329771,-4.401098,-1.652295,-0.044421,0.188615,-0.005818,19.941868,188.495658,1037.580767,-1320.299608,0
0.011458,108.516154,-177.586397,45.573485,3.832848,-6.357533,2.439185,4.311794,6.910540,-2.327932,-3.989800,-0.022503,0.178424,-0.039427,59.097087,188.495671,1037.205218,-1321.443026,0
0.012500,180.972047,-126.774115,1.169129,2.973288,-5.700731,0.351710,5.464787,6.443720,-0.347093,-5.270625,-0.015197,0.194951,0.009119,89.566226,188.646353,1036.911709,-1321.663617,0
0.013542,192.507370,-72.603341,-63.350758,1.729188,-4.060503,-2.303272,6.308077,4.701414,2.322004,-5.939500,-0.000585,0.193384,-0.050629,96.883796,188.495539,1037.355096,-1322.129712,0
0.014583,168.234419,-27.420760,-146.841288,0.179718,-2.327967,-4.132789,6.132703,2.948081,4.277663,-5.989310,0.035945,0.206253,-0.039427,81.807567,188.473644,1036.879608,-1322.420254,0
0.015625,111.022847,19.936384,-196.650001,-0.736392,0.199831,-5.275742,4.696125,0.474301,5.305852,-4.537709,-0.011544,0.215855,-0.031958,52.616457,188.494715,1036.330065,-1323.367987,0
0.016667,61.932505,90.621753,-197.056251,-0.792942,2.731179,-6.093270,2.919993,-2.050939,6.300468,-2.936678,-0.055380,0.188484,-0.005818,30.177418,188.646482,1036.091532,-1323.258113,0
0.017708,19.239333,161.669550,-150.719129,0.111858,4.722885,-5.763877,0.707291,-4.072602,5.943750,-0.737929,-0.091910,0.216966,-0.005818,10.769458,188.495595,1036.544166,-1323.055063,0
0.018750,-33.820885,208.362244,-91.382008,1.186308,5.990335,-4.160570,-1.997953,-5.417926,4.466514,1.841510,-0.164970,0.186590,-0.039427,-14.881621,188.495819,1035.850642,-1323.360512,0
0.019800,-109.770268,177.205592,-44.897159,2.091108,6.572580,-2.128655,-4.415880,-5.987667,2.397544,4.211036,-0.219765,0.176464,-0.039427,-54.964260,188.495615,1035.924202,-1323.590435,0
0.020845,-181.783804,125.897993,-0.086553,2.961978,5.940631,-0.013399,-5.527828,-5.469387,0.374738,5.442051,-0.208806,0.190705,-0.028224,-84.777420,188.571078,1035.074239,-1323.480328,0
0.021876,-192.649919,72.609125,63.522349,4.149528,4.286201,2.589992,-6.371118,-3.730757,-2.260785,6.132274,-0.259948,0.194102,-0.002084,-90.511590,188.495674,1034.176153,-1322.890616,0
0.022917,-168.433681,27.958104,147.012879,5.676378,2.610470,4.467132,-6.221863,-2.095048,-4.216444,6.178526,-0.245336,0.208147,-0.024490,-77.324130,188.495721,1033.804243,-1322.934131,0
0.023958,-111.687151,-19.544011,196.329167,6.615108,0.128825,5.491026,-4.747972,0.378732,-5.169093,4.734040,-0.219765,0.215529,-0.046895,-48.042540,188.497685,1033.012850,-1323.202252,0
0.025000,-62.880371,-90.398513,197.252463,6.660348,-2.494830,6.364115,-2.990497,2.988514,-6.176299,3.090315,-0.175929,0.201680,-0.031958,-26.304721,188.571364,1032.184299,-1323.239717,0
0.026041,-19.313827,-161.228853,150.706061,5.812098,-4.454584,6.014879,-0.747944,4.995474,-5.790203,0.863103,-0.154011,0.191947,-0.020755,-5.709211,188.496069,1031.112811,-1322.949494,0
0.027083,33.485513,-208.332297,90.987311,4.681098,-5.729134,4.415540,1.919986,6.315068,-4.417885,-1.638064,-0.088257,0.204424,-0.009553,20.677018,188.496154,1031.382711,-1322.673981,0
0.028125,108.232592,-177.441426,46.459849,3.821538,-6.361083,2.439185,4.308063,6.906864,-2.348915,-3.972011,-0.026156,0.179469,-0.028224,58.226217,188.496118,1031.292138,-1322.608093,0
0.029166,181.266952,-127.160703,1.649242,2.961978,-5.746885,0.296150,5.472250,6.454747,-0.347093,-5.235047,0.010374,0.193710,-0.002084,91.828226,188.571571,1031.312108,-1322.538827,0
0.030208,192.155753,-72.784554,-63.190720,1.740498,-4.060503,-2.342958,6.337928,4.649953,2.342987,-5.943058,0.024986,0.195278,-0.017021,96.273056,188.496035,1030.455708,-1322.713918,0
0.031250,168.245762,-26.973767,-146.533523,0.202338,-2.331517,-4.168507,6.173748,2.970136,4.277663,-6.042678,-0.000585,0.193514,-0.031958,83.854677,188.496188,1031.162908,-1322.866696,0
0.032291,110.966134,19.791413,-196.551516,-0.691152,0.139476,-5.251930,4.725976,0.511059,5.276475,-4.523477,-0.015197,0.217097,-0.013287,54.833217,188.493438,1031.153163,-1322.205510,0
0.033333,63.202865,90.404297,-197.093182,-0.781632,2.709878,-6.152799,2.968501,-2.113427,6.342435,-2.954467,-0.055380,0.207690,-0.050629,32.473348,188.495579,1031.059097,-1323.669281,0
0.034375,19.761088,161.911168,-150.608334,0.077928,4.726436,-5.767846,0.681171,-4.076277,5.926963,-0.698792,-0.077298,0.197630,-0.002084,10.927798,188.495651,1030.435037,-1323.959586,0
0.035416,-33.503295,208.507214,-90.852652,1.197618,6.022287,-4.188350,-1.990490,-5.384844,4.521071,1.845068,-0.154011,0.188158,-0.035692,-15.537601,188.495577,1030.876312,-1323.625397,0
0.036458,-108.477223,177.725071,-45.771212,2.034558,6.636485,-2.231838,-4.378567,-6.006046,2.489871,4.168342,-0.234377,0.178163,-0.005818,-54.025530,188.495450,1031.514499,-1323.503773,0
0.037500,-181.273391,127.722209,-1.502273,2.916738,6.004536,-0.092771,-5.572605,-5.506144,0.391525,5.484745,-0.227071,0.192730,-0.013287,-86.688810,188.497591,1031.437447,-1324.937371,0
0.038541,-192.831399,73.817216,63.423864,4.138218,4.307503,2.586023,-6.386044,-3.778542,-2.273375,6.164294,-0.234377,0.195474,-0.054364,-93.259920,188.495311,1031.916335,-1325.902577,0
0.039583,-168.830668,27.644001,146.446591,5.687688,2.592718,4.475069,-6.251714,-2.072994,-4.208050,6.242567,-0.223418,0.208539,-0.061832,-79.122420,188.495369,1032.196061,-1326.349964,0
0.040625,-110.847806,-19.459444,196.784660,6.671658,0.118175,5.530712,-4.777823,0.341974,-5.253027,4.762503,-0.234377,0.241332,-0.031958,-49.252710,188.495434,1033.146915,-1326.881190,0
0.041666,-62.506068,-89.842791,197.264773,6.660348,-2.462878,6.399832,-3.024079,2.988514,-6.218266,3.147240,-0.150358,0.208016,-0.054364,-26.858911,188.495374,1033.920548,-1327.072386,0
0.042708,-20.062432,-161.627523,151.026137,5.812098,-4.486536,6.054565,-0.770332,4.973419,-5.806990,0.870218,-0.157664,0.188223,-0.054364,-6.116371,188.495394,1034.113506,-1327.275133,0
0.043750,33.326718,-208.139003,91.442803,4.692408,-5.739785,4.395697,1.942374,6.322420,-4.375918,-1.666527,-0.055380,0.188223,-0.024490,19.749598,188.495253,1033.304618,-1327.674768,0
0.044791,107.960372,-177.707206,46.090530,3.844158,-6.364633,2.439185,4.285674,6.932594,-2.407669,-3.954222,-0.007891,0.177248,-0.046895,58.803027,188.495360,1034.217598,-1327.517341,0
0.045833,180.745197,-126.870762,1.636932,3.007218,-5.746885,0.363616,5.487176,6.447395,-0.355486,-5.263510,-0.015197,0.191163,-0.009553,89.566226,188.495217,1034.060573,-1327.555610,0
0.046875,192.496028,-73.376519,-62.882955,1.751808,-4.060503,-2.315178,6.315540,4.683035,2.317807,-5.964405,0.028639,0.197499,-0.024490,96.838556,188.495197,1034.585438,-1327.873695,0
0.047916,168.257104,-27.855672,-146.385796,0.202338,-2.310216,-4.192318,6.158822,2.977487,4.273466,-6.032004,0.003068,0.205338,0.001650,81.965907,188.495151,1034.291830,-1327.958928,0
0.048958,111.306409,19.453148,-196.342235,-0.747702,0.143027,-5.236056,4.699856,0.533113,5.255492,-4.548382,-0.029809,0.215464,-0.024490,52.718247,188.495260,1034.509608,-1327.789764,0
0.050000,62.306807,90.053951,-197.376326,-0.781632,2.724079,-6.125019,2.942381,-2.065642,6.321452,-2.947351,-0.048074,0.187700,-0.002084,30.290518,188.495273,1034.578363,-1326.903353,0
0.051041,19.386785,161.101747,-151.113069,0.066618,4.712235,-5.755940,0.696097,-4.050547,5.914373,-0.705908,-0.095563,0.186786,-0.028224,10.916488,188.495218,1034.383255,-1326.488538,0
0.052083,-33.412555,208.507214,-91.652841,1.197618,6.000986,-4.172475,-1.997953,-5.406899,4.500087,1.827279,-0.161317,0.191816,-0.043161,-14.734591,188.495289,1034.238323,-1326.838233,0
0.053125,-107.978153,177.894204,-46.386743,2.045868,6.569030,-2.140560,-4.386029,-5.972964,2.473085,4.132764,-0.223418,0.177510,-0.009553,-53.414790,188.495209,1033.609792,-1326.463864,0
0.054166,-181.556954,127.347701,-1.674621,2.916738,5.954832,-0.080865,-5.531560,-5.509820,0.429295,5.442051,-0.212459,0.190640,-0.002084,-85.060170,188.495265,1033.982739,-1325.677519,0
0.055208,-192.797372,73.189009,62.672917,4.138218,4.318154,2.589992,-6.367387,-3.730757,-2.243998,6.110927,-0.245336,0.193449,-0.039427,-90.443730,188.495401,1033.124767,-1324.620646,0
0.056250,-168.581133,28.139318,146.766667,5.687688,2.599819,4.391729,-6.244251,-2.043588,-4.208050,6.174968,-0.252642,0.206971,-0.020755,-77.493780,188.495300,1032.172774,-1324.316033,0
0.057291,-112.197563,-19.084936,195.873675,6.603798,0.089772,5.463246,-4.744241,0.386083,-5.160700,4.716251,-0.201500,0.211871,-0.002084,-48.257430,188.495200,1030.648574,-1323.853314,0
0.058333,-62.959768,-89.879034,197.412501,6.660348,-2.533883,6.379989,-2.945720,2.984839,-6.214069,3.133009,-0.168623,0.202529,-0.024490,-26.406511,188.419889,1030.448146,-1324.010343,0
0.059375,-19.586047,-160.503998,151.321591,5.834718,-4.433282,5.983131,-0.699436,4.973419,-5.794400,0.866660,-0.139399,0.180776,-0.031958,-5.822311,188.487897,1030.036051,-1323.786701,0
0.060417,33.190608,-208.465187,91.061175,4.669788,-5.722033,4.411571,1.893866,6.311392,-4.426278,-1.648737,-0.121134,0.182866,0.012853,20.575228,188.473029,1030.767261,-1323.564988,0
0.061458,107.325191,-177.695125,46.681440,3.821538,-6.314930,2.427280,4.308063,6.873782,-2.340522,-3.996916,-0.022503,0.181037,-0.002084,57.739887,188.492198,1029.062877,-1323.893649,0
0.062500,181.142185,-127.486888,2.055492,2.950668,-5.739785,0.351710,5.498370,6.410638,-0.351290,-5.227931,-0.018850,0.193253,-0.031958,91.884776,188.439139,1028.632987,-1323.711429,0
0.063541,192.291863,-73.219467,-62.612121,1.740498,-4.042752,-2.327084,6.289420,4.657305,2.313610,-5.939500,0.014027,0.195605,-0.005818,96.193886,188.443968,1028.099457,-1323.299203,0
0.064583,168.245762,-27.432841,-146.139584,0.213648,-2.317316,-4.184381,6.184942,2.966460,4.328023,-6.003542,0.017680,0.187570,-0.017021,83.888607,188.498427,1027.655761,-1323.587876,0
0.065625,111.272382,19.549795,-195.911364,-0.759012,0.153677,-5.212244,4.662543,0.536789,5.289065,-4.534151,-0.026156,0.177248,-0.002084,55.093347,188.495691,1027.523908,-1323.746644,0
0.066666,63.191522,89.896899,-197.437879,-0.792942,2.702777,-6.113113,2.927456,-2.080345,6.296272,-2.901099,-0.055380,0.196193,-0.005818,32.495968,188.420314,1026.574359,-1324.061444,0
0.067708,19.953910,160.908453,-151.211553,0.043998,4.708684,-5.755940,0.625201,-4.087305,5.889193,-0.677445,-0.113828,0.193188,-0.024490,11.018278,188.495620,1025.794095,-1324.643471,0
0.068750,-33.026910,208.519295,-91.074243,1.186308,5.990335,-4.120884,-2.042729,-5.381169,4.483300,1.837953,-0.183235,0.182670,-0.050629,-15.334021,188.495618,1025.362400,-1324.285481,0
0.069793,-107.592508,177.725071,-45.697349,2.091108,6.537078,-2.132623,-4.378567,-5.906801,2.401741,4.171900,-0.186888,0.174374,-0.028224,-53.618370,188.495633,1023.955701,-1324.084825,0
0.070833,-181.114596,127.879261,-1.674621,2.928048,5.979684,-0.080865,-5.565142,-5.476738,0.450279,5.392241,-0.234377,0.190640,-0.017021,-86.666190,188.495582,1023.608418,-1323.352515,0
0.071875,-192.797372,74.107157,62.783712,4.149528,4.289751,2.570149,-6.363655,-3.727081,-2.235605,6.096695,-0.223418,0.194233,-0.031958,-93.146820,188.495582,1023.460397,-1323.449684,0
0.072916,-169.091546,27.970185,146.175758,5.676378,2.553665,4.443320,-6.218132,-2.043588,-4.199657,6.171410,-0.248989,0.203444,-0.035692,-79.314690,188.495658,1023.345482,-1323.406589,0
0.073958,-111.494328,-19.097017,195.947538,6.615108,0.057820,5.459278,-4.710658,0.408138,-5.169093,4.677114,-0.241683,0.191881,-0.005818,-49.558080,188.495528,1022.784976,-1323.265582,0
0.075000,-62.347273,-89.371636,197.609470,6.637728,-2.494830,6.324429,-2.938258,3.014245,-6.197283,3.079641,-0.186888,0.177510,-0.043161,-26.836291,188.353470,1021.860577,-1323.312960,0
0.076041,-20.107802,-160.419432,151.801705,5.812098,-4.422631,5.951382,-0.703167,4.951365,-5.727253,0.848871,-0.124787,0.198087,-0.020755,-6.138991,188.499093,1020.894663,-1323.089224,0
0.077083,33.020471,-208.163165,91.516667,4.703718,-5.714933,4.411571,1.964762,6.311392,-4.317164,-1.659411,-0.040768,0.179208,-0.009553,19.591258,188.504165,1019.409655,-1323.108436,0
0.078125,106.950889,-177.840096,46.262879,3.832848,-6.290078,2.395531,4.289406,6.866431,-2.353112,-3.957780,-0.011544,0.175289,-0.035692,58.135737,188.434641,1019.600382,-1322.510569,0
0.079166,180.552375,-127.233189,1.735417,2.973288,-5.718483,0.351710,5.457325,6.395935,-0.321913,-5.252836,-0.011544,0.191163,-0.046895,89.600156,188.361854,1019.104395,-1322.670122,0
0.080208,192.303205,-73.449004,-62.279735,1.763118,-4.003698,-2.311210,6.248375,4.602169,2.301020,-5.864786,0.024986,0.195931,-0.020755,96.499256,188.508161,1018.014345,-1321.854279,0
0.081250,168.574694,-28.266423,-146.139584,0.202338,-2.317316,-4.148664,6.110314,2.922351,4.269269,-5.939500,0.035945,0.205665,-0.043161,82.282587,188.507644,1016.922753,-1321.245935,0
0.082291,112.111727,19.296096,-195.505114,-0.725082,0.185630,-5.172558,4.636423,0.518410,5.238705,-4.491457,-0.026156,0.215659,-0.024490,53.046237,188.513428,1015.959224,-1320.961195,0
0.083333,62.431575,89.619038,-197.721023,-0.781632,2.756031,-6.061521,2.878948,-2.084021,6.229125,-2.879752,-0.037115,0.196650,-0.028224,30.358378,188.369873,1015.318611,-1320.233084,0
0.084375,19.409470,159.917818,-151.864016,0.100548,4.666081,-5.700380,0.666246,-4.039520,5.834636,-0.681003,-0.113828,0.184042,-0.017021,10.859938,188.444022,1014.693944,-1319.332328,0
0.085416,-33.060937,208.495133,-91.751326,1.174998,5.961933,-4.105009,-1.994221,-5.384844,4.424547,1.834395,-0.150358,0.191685,-0.031958,-14.564941,188.515795,1014.013404,-1319.474184,0
0.086458,-106.980013,178.087498,-46.522159,2.045868,6.519326,-2.164372,-4.371104,-5.928855,2.414331,4.122090,-0.183235,0.175811,0.001650,-52.634400,188.442877,1014.094748,-1319.449005,0
0.087500,-181.330104,127.722209,-1.797727,2.916738,5.933530,-0.084834,-5.516634,-5.491441,0.383132,5.417146,-0.238030,0.189072,-0.005818,-85.195890,188.428367,1013.692742,-1320.244015,0
0.088541,-192.638577,73.466869,62.180493,4.115598,4.240048,2.562211,-6.281565,-3.668269,-2.206228,6.046885,-0.278213,0.194298,0.001650,-90.138360,188.498809,1012.760690,-1319.169758,0
0.089583,-168.558448,28.187641,146.348107,5.687688,2.585618,4.395697,-6.206938,-2.061966,-4.195460,6.146505,-0.248989,0.211609,-0.013287,-77.742600,188.504384,1012.669283,-1318.759257,0
0.090625,-112.957511,-18.831237,194.901137,6.581178,0.050719,5.419592,-4.662151,0.375056,-5.143913,4.645094,-0.230724,0.206645,-0.024490,-48.721140,188.495680,1012.120944,-1318.503196,0
0.091666,-63.197961,-89.432040,197.794129,6.671658,-2.480629,6.312523,-2.953183,2.999542,-6.125939,3.076083,-0.190541,0.190117,-0.031958,-26.451751,188.420097,1011.606858,-1318.084598,0
0.092708,-19.495307,-159.283827,152.171023,5.868648,-4.411980,5.919633,-0.684510,4.969744,-5.739843,0.884450,-0.139399,0.195539,-0.035692,-5.844931,188.495671,1011.859284,-1317.991081,0
0.093750,32.850333,-208.561835,91.258144,4.692408,-5.686530,4.395697,1.938643,6.234202,-4.342344,-1.627390,-0.084604,0.208996,-0.043161,20.405578,188.495539,1012.172670,-1316.977519,0
0.094791,106.213626,-177.864258,46.361364,3.810228,-6.258125,2.391562,4.285674,6.851728,-2.294358,-3.950664,-0.044421,0.174309,-0.028224,56.902947,188.495698,1011.137072,-1316.966812,0
0.095833,180.903992,-127.921800,2.314015,2.984598,-5.722033,0.339804,5.472250,6.425341,-0.347093,-5.206584,-0.000585,0.191097,-0.061832,91.997876,188.420193,1011.550687,-1316.838542,0
0.096875,192.178438,-73.630218,-61.836553,1.751808,-3.989497,-2.342958,6.192404,4.602169,2.338790,-5.879017,0.024986,0.192404,-0.005818,96.012926,188.495683,1011.177603,-1317.390728,0
0.097916,168.472612,-27.710702,-145.819508,0.224958,-2.260512,-4.192318,6.121508,2.933378,4.328023,-5.967963,0.021333,0.184630,-0.024490,84.126117,188.495640,1011.451310,-1317.985366,0
0.098958,112.066357,19.223610,-194.926516,-0.691152,0.167878,-5.168590,4.621498,0.481653,5.217722,-4.452321,-0.040768,0.208082,-0.024490,55.557057,188.485775,1010.466295,-1317.746615,0
0.100000,63.191522,89.461986,-197.893372,-0.792942,2.706327,-6.041678,2.938650,-2.084021,6.250108,-2.915331,-0.055380,0.197564,-0.024490,32.484658,188.345183,1010.864396,-1318.236178,0
0.101041,19.863170,159.676200,-152.184091,0.021378,4.673182,-5.617040,0.614006,-4.017465,5.813652,-0.659656,-0.084604,0.190183,-0.039427,10.893868,188.495955,1010.263768,-1318.198357,0
0.102083,-32.720662,208.615943,-91.332765,1.186308,5.965483,-4.105009,-2.031535,-5.355438,4.411957,1.869973,-0.172276,0.185153,-0.013287,-15.107821,188.495873,1009.714260,-1318.108662,0
0.103125,-106.424230,178.196226,-46.115909,2.079798,6.512226,-2.124686,-4.344984,-5.873719,2.397544,4.139879,-0.197847,0.171892,-0.031958,-52.871910,188.495913,1008.964341,-1317.802316,0
0.104166,-180.831034,128.229607,-1.797727,2.916738,5.937081,-0.061022,-5.531560,-5.462035,0.416705,5.410031,-0.223418,0.189921,-0.031958,-86.700120,188.345028,1008.794741,-1317.470717,0
0.105208,-192.865427,74.735364,62.155871,4.115598,4.218746,2.566180,-6.292759,-3.664593,-2.218818,6.071790,-0.263601,0.192926,-0.039427,-93.045030,188.495723,1008.696665,-1318.353441,0
0.106250,-169.204971,28.284288,145.769508,5.687688,2.535914,4.427446,-6.158430,-2.025209,-4.203854,6.135831,-0.227071,0.202137,-0.002084,-79.552200,188.495830,1008.060802,-1318.698876,0
0.107291,-112.435756,-18.831237,194.950379,6.569868,0.061370,5.423560,-4.665882,0.419165,-5.122929,4.613073,-0.230724,0.205665,-0.035692,-49.999170,188.495980,1007.305561,-1318.489058,0
0.108333,-62.392643,-88.852157,197.941857,6.660348,-2.480629,6.320460,-2.934526,2.984839,-6.184693,3.093872,-0.172276,0.177444,-0.028224,-26.836291,188.345241,1007.898828,-1318.623159,0
0.109375,-19.914979,-159.175099,152.663447,5.800788,-4.401330,5.903759,-0.662122,4.947689,-5.739843,0.834640,-0.106522,0.186329,0.001650,-6.003271,188.496708,1007.274988,-1318.933607,0
