1-Time,2-VGERA,3-VGERB,4-VGERC,5-VN,6-IGERAN,7-IGERBN,8-IGERCN,9-IGERAT,10-IGERBT,11-IGERCT,12-IN,13-IFD,14-IFAULT,15-VFAULT,16-Speed (rad/s),17-FAULT 
0.000000,140.286498,60.668610,-172.306980,-0.498882,-6.098363,1.173358,5.285878,6.112902,-1.287497,-5.100476,-0.048074,0.609373,-0.028224,28.842838,188.269501,0
0.001042,59.766087,113.459983,-192.185162,-0.838182,-5.019078,-1.444003,6.602306,5.046934,1.456133,-6.547096,0.024986,0.607218,-0.035692,20.631778,188.420314,0
0.002083,-8.322944,165.813302,-162.746071,-0.295302,-3.101928,-3.276536,6.488685,3.190681,3.172413,-6.322489,-0.000585,0.612705,-0.031958,12.318928,188.495626,0
0.003125,-76.559427,184.850872,-113.204253,0.699978,-0.456971,-5.166217,5.595395,0.566195,5.223085,-5.606793,-0.029809,0.590690,-0.061832,-2.938261,188.269514,0
0.004167,-125.706481,184.270747,-30.429709,2.294688,2.202188,-6.175825,3.898928,-2.065642,6.145686,-3.859428,-0.055380,0.587881,-0.009553,-7.281301,188.269559,0
0.005208,-166.346660,158.165124,41.720290,3.753678,4.534721,-6.358697,1.583426,-4.491637,6.472021,-1.685690,-0.102869,0.594349,-0.043161,-17.234101,188.420291,0
0.006250,-183.530549,88.396216,98.423926,4.862058,6.118145,-5.059542,-1.276669,-6.039128,5.206970,1.104764,-0.168623,0.595394,-0.035692,-21.803341,188.495575,0
0.007292,-188.623331,9.783362,147.244835,5.823408,6.632935,-3.512746,-3.259146,-6.660330,3.667958,3.194750,-0.223418,0.606891,-0.046895,-26.055901,188.344956,0
0.008333,-140.916774,-59.985545,172.039380,6.332358,6.260156,-0.971583,-5.417930,-6.259673,1.274836,5.159109,-0.219765,0.614403,-0.061832,-24.721321,188.269483,0
0.009375,-60.793351,-113.061061,191.976653,6.694278,5.177321,1.619109,-6.703014,-5.215760,-1.384188,6.651412,-0.256295,0.608067,-0.050629,-15.944761,188.420325,0
0.010417,6.569760,-165.710362,163.057562,6.174018,3.260171,3.432593,-6.573722,-3.370533,-3.229390,6.442032,-0.278213,0.614534,-0.017021,-7.439641,188.495682,0
0.011458,75.622903,-184.700575,114.059381,5.190048,0.615214,5.345133,-5.688268,-0.716642,-5.163226,5.722529,-0.245336,0.599705,-0.061832,6.890128,188.344789,0
0.012500,125.382452,-184.155968,31.651200,3.538788,-2.061696,6.366170,-3.886016,1.922547,-6.202663,3.982778,-0.230724,0.591736,-0.043161,13.110628,188.269494,0
0.013542,166.691839,-157.955630,-41.278800,2.091108,-4.383578,6.514754,-1.727232,4.400002,-6.484681,1.786199,-0.146705,0.597549,-0.054364,21.502648,188.420269,0
0.014583,182.911615,-87.796026,-98.478799,1.039278,-5.974103,5.230838,1.215140,5.914411,-5.267976,-1.046132,-0.069992,0.582329,-0.065566,26.660008,188.495716,0
0.015625,188.231248,-8.591208,-147.075162,0.010068,-6.453390,3.699282,3.142766,6.498856,-3.737022,-3.021911,-0.088257,0.580761,-0.050629,31.353658,188.420403,0
0.016667,140.774225,61.438164,-171.479707,-0.498882,-6.098363,1.226695,5.215355,6.142308,-1.376131,-4.978655,-0.022503,0.574947,-0.043161,29.430958,188.269588,0
0.017708,59.505209,113.531018,-192.137889,-0.894732,-5.033279,-1.329708,6.574880,5.091043,1.303038,-6.489993,-0.000585,0.597484,-0.065566,21.185968,188.420359,0
0.018750,-7.823874,165.268695,-163.088798,-0.340542,-3.158732,-3.177480,6.437752,3.260520,3.067663,-6.341524,0.006721,0.606564,-0.043161,12.137968,188.495607,0
0.019792,-75.844849,185.241569,-113.783344,0.643428,-0.567029,-5.109070,5.638493,0.661765,5.090134,-5.656283,-0.011544,0.594936,-0.065566,-2.723371,188.344869,0
0.020833,-125.411576,183.939247,-31.729709,2.283378,2.053076,-6.118677,3.898928,-1.955370,6.101369,-3.905111,-0.018850,0.592977,-0.054364,-7.462261,188.269519,0
0.021875,-167.424198,158.200641,40.503018,3.697128,4.456615,-6.362507,1.708800,-4.429149,6.492165,-1.788476,-0.088257,0.598791,-0.031958,-17.019211,188.420309,0
0.022917,-182.384956,90.456252,98.636654,4.816818,6.029388,-5.093830,-1.194392,-5.958261,5.271431,1.017206,-0.150358,0.600685,-0.050629,-22.086091,188.495767,0
0.023958,-188.929579,10.683148,147.363017,5.823408,6.600983,-3.592753,-3.149444,-6.641951,3.748535,3.038668,-0.175929,0.605780,-0.017021,-25.739221,188.420206,0
0.025000,-142.527409,-60.222331,170.668471,6.287118,6.224653,-1.101117,-5.272966,-6.270700,1.351384,5.044902,-0.230724,0.607283,-0.028224,-24.721321,188.269543,0
0.026042,-61.405846,-113.108418,192.201198,6.660348,5.180871,1.508624,-6.699096,-5.241490,-1.343900,6.617150,-0.267254,0.607675,-0.009553,-15.401881,188.420249,0
0.027083,6.615130,-164.597469,163.282108,6.151398,3.299224,3.337347,-6.526707,-3.399939,-3.056151,6.400157,-0.256295,0.607152,-0.031958,-6.105061,188.495723,0
0.028125,75.452765,-185.541165,113.740290,5.144808,0.693320,5.272746,-5.754873,-0.749724,-5.106823,5.745371,-0.230724,0.603167,-0.065566,6.347248,188.419258,0
0.029167,124.747272,-184.013897,31.533018,3.572718,-1.962288,6.316642,-3.995718,1.863735,-6.146260,4.028461,-0.208806,0.591801,-0.073035,12.805258,188.269691,0
0.030208,167.122854,-157.730684,-41.077891,2.181588,-4.330324,6.541423,-1.793837,4.330163,-6.476623,1.904213,-0.194194,0.595655,-0.065566,21.480028,188.420209,0
0.031250,181.731995,-89.394330,-98.797890,1.005348,-5.935050,5.310845,1.062340,5.844572,-5.316322,-0.909083,-0.102869,0.593565,-0.028224,26.773108,188.420168,0
0.032292,188.594208,-9.277887,-147.027890,-0.012552,-6.471142,3.798338,3.056571,6.498856,-3.821628,-2.972421,-0.088257,0.591082,-0.031958,31.116148,188.420236,0
0.033333,141.817735,61.236896,-170.581526,-0.464952,-6.183569,1.314322,5.168340,6.145984,-1.432534,-4.952007,-0.026156,0.598203,-0.035692,28.774978,188.270513,0
0.034375,61.115844,113.365268,-192.196980,-0.872112,-5.104285,-1.291609,6.594470,5.160883,1.226490,-6.516641,0.024986,0.611006,-0.035692,20.869288,188.427123,0
0.035417,-6.451431,164.972713,-163.171526,-0.351852,-3.236838,-3.108903,6.476932,3.326683,3.023346,-6.375786,0.006721,0.612182,-0.028224,13.144558,188.420258,0
0.036458,-75.209669,185.241569,-114.480617,0.620808,-0.630934,-5.112880,5.716851,0.749983,5.082076,-5.698158,-0.022503,0.606107,-0.024490,-2.644201,188.495501,0
0.037500,-125.184726,183.868212,-32.876072,2.238138,2.053076,-6.114868,3.922436,-1.922288,6.117484,-4.015510,-0.037115,0.595655,-0.020755,-7.168201,188.269366,0
0.038542,-167.548966,158.425588,39.959381,3.708438,4.417562,-6.381556,1.720554,-4.388716,6.508280,-1.872228,-0.077298,0.602449,-0.028224,-17.347201,188.419980,0
0.039583,-182.067366,89.627502,98.648472,4.862058,6.000986,-5.093830,-1.186556,-5.906801,5.219056,0.963909,-0.146705,0.584942,-0.054364,-21.611071,188.419958,0
0.040625,-189.008976,10.458202,146.854835,5.800788,6.554829,-3.577514,-3.122018,-6.561084,3.752564,3.053895,-0.172276,0.577037,-0.043161,-26.123761,188.495484,0
0.041667,-142.448012,-60.624867,170.278471,6.298428,6.185600,-1.101117,-5.198526,-6.215564,1.375557,4.961150,-0.267254,0.562862,-0.024490,-24.845731,188.269266,0
0.042708,-60.827378,-112.918989,192.283925,6.682968,5.198623,1.462905,-6.640327,-5.234139,-1.275410,6.548626,-0.274560,0.595916,-0.024490,-15.944761,188.420115,0
0.043753,7.341050,-164.573791,163.199380,6.128778,3.370229,3.264960,-6.495363,-3.451400,-3.011834,6.411577,-0.270907,0.619956,-0.065566,-7.631911,188.430113,0
0.044794,75.713643,-185.126790,113.787563,5.178738,0.746574,5.242267,-5.758791,-0.826914,-5.082650,5.764405,-0.238030,0.595263,-0.069301,6.878818,188.502404,0
0.045833,124.543107,-183.883665,32.490291,3.617958,-1.816727,6.240446,-4.081913,1.764490,-6.105972,4.104598,-0.230724,0.592911,-0.028224,12.986218,188.269781,0
0.046875,167.202252,-157.884594,-39.872436,2.170278,-4.238017,6.537613,-1.887867,4.205188,-6.492739,2.022226,-0.154011,0.600032,-0.043161,21.525268,188.495667,0
0.047917,181.312322,-91.359651,-98.585163,0.994038,-5.800139,5.379422,0.921295,5.734300,-5.380783,-0.753001,-0.121134,0.601338,-0.043161,26.535598,188.420249,0
0.048958,188.730318,-10.521012,-146.933344,0.021378,-6.424988,3.828817,2.935115,6.469450,-3.910262,-2.858214,-0.099216,0.609439,-0.046895,31.342348,188.495819,0
0.050000,143.428371,60.680449,-169.777889,-0.431022,-6.094812,1.424807,5.039048,6.157011,-1.593687,-4.807345,-0.037115,0.614469,-0.073035,29.453578,188.269490,0
0.051042,62.397547,113.258715,-192.007889,-0.872112,-5.143338,-1.192553,6.484767,5.135152,1.145914,-6.421469,0.017680,0.610549,-0.073035,21.525268,188.495721,0
0.052083,-5.623428,164.274195,-163.667889,-0.340542,-3.318495,-2.998418,6.469096,3.433280,2.926654,-6.360558,-0.011544,0.613423,-0.046895,12.748708,188.420301,0
0.053125,-74.778654,185.786176,-114.362435,0.654738,-0.723241,-5.029063,5.720769,0.834525,4.981355,-5.671510,-0.029809,0.598464,-0.054364,-2.678131,188.495694,0
0.054174,-125.332179,183.690622,-31.339709,2.260758,1.939467,-6.053910,3.969451,-1.845097,6.044965,-3.973635,-0.033462,0.591736,-0.069301,-7.631911,188.269469,0
0.055209,-167.991323,157.940177,39.935745,3.663198,4.307503,-6.320599,1.830256,-4.245362,6.455905,-1.910297,-0.102869,0.595720,-0.054364,-16.951351,188.495702,0
0.056250,-180.876404,91.202127,98.932108,4.850748,5.887377,-5.147168,-0.971070,-5.844313,5.315748,0.834475,-0.121134,0.588861,-0.043161,-21.803341,188.420405,0
0.057292,-188.963606,9.830720,146.677562,5.800788,6.519326,-3.665140,-3.012316,-6.561084,3.796881,2.916847,-0.164970,0.608001,-0.069301,-25.773151,188.495705,0
0.058333,-143.548234,-61.311545,168.765744,6.241878,6.235304,-1.280180,-5.088823,-6.274376,1.468220,4.827909,-0.227071,0.609439,-0.024490,-24.653461,188.269628,0
0.059375,-61.530613,-113.049221,192.189380,6.682968,5.251877,1.356230,-6.624655,-5.289275,-1.182747,6.537205,-0.267254,0.595132,-0.054364,-15.605461,188.440134,0
0.060417,5.900552,-163.543773,163.660289,6.185328,3.508690,3.150665,-6.538461,-3.543294,-2.890969,6.426805,-0.263601,0.599901,-0.017021,-6.625321,188.444858,0
0.061458,74.375228,-185.979218,114.555744,5.178738,0.892135,5.166071,-5.805806,-0.970269,-4.994016,5.848157,-0.234377,0.602710,-0.050629,5.974018,188.371931,0
0.062500,124.078065,-183.516647,33.766654,3.606648,-1.727970,6.213777,-4.148518,1.665244,-6.041510,4.161702,-0.205153,0.597419,-0.050629,12.612988,188.284941,0
0.063542,168.211734,-157.955630,-38.607891,2.181588,-4.188313,6.549043,-1.958390,4.094915,-6.508854,2.048875,-0.186888,0.605454,-0.009553,21.581818,188.358930,0
0.064583,180.529690,-93.052669,-98.738799,0.982728,-5.761086,5.413710,0.897787,5.726948,-5.421071,-0.604532,-0.117481,0.603625,-0.031958,26.558218,188.432080,0
0.065625,188.968510,-11.266887,-146.815162,0.010068,-6.393036,3.912633,2.939033,6.451071,-3.966665,-2.766849,-0.066339,0.615579,-0.054364,31.195318,188.502864,0
0.066667,144.267716,60.858039,-168.938798,-0.431022,-6.140966,1.459096,5.015540,6.219499,-1.650091,-4.757855,-0.040768,0.600881,-0.013287,28.639258,188.269841,0
0.067708,62.420232,113.199518,-192.149707,-0.860802,-5.157539,-1.131596,6.531783,5.245425,1.117712,-6.455731,-0.029809,0.604605,-0.028224,20.824048,188.419857,0
0.068759,-7.097954,164.795123,-162.994253,-0.306612,-3.314944,-2.994608,6.461260,3.433280,2.874280,-6.307262,-0.004238,0.600489,-0.028224,13.054078,188.419983,0
0.069801,-75.708739,185.419158,-113.606072,0.620808,-0.712591,-5.010014,5.744277,0.819822,5.013586,-5.705772,0.003068,0.600685,-0.035692,-2.847781,188.495381,0
0.070840,-124.969219,183.702462,-31.871527,2.238138,1.896864,-6.061530,4.039974,-1.789961,6.085253,-4.080228,-0.055380,0.596504,-0.031958,-7.269991,188.344614,0
0.071878,-167.945953,157.928338,39.971200,3.697128,4.275550,-6.385366,1.912533,-4.230659,6.476049,-1.994049,-0.091910,0.603298,-0.065566,-17.415061,188.419893,0
0.072921,-180.955801,91.829609,99.203926,4.862058,5.926430,-5.227175,-0.935808,-5.803880,5.360065,0.773565,-0.124787,0.602318,-0.031958,-21.497971,188.419951,0
0.073962,-189.077031,10.517398,146.736653,5.812098,6.554829,-3.737527,-2.984890,-6.561084,3.869400,2.855937,-0.197847,0.605976,-0.031958,-26.067211,188.495365,0
0.075004,-144.013277,-60.660384,169.143926,6.275808,6.260156,-1.322088,-5.108413,-6.311133,1.556854,4.881205,-0.230724,0.610876,-0.005818,-24.845731,188.344467,0
0.076053,-62.006998,-113.641186,191.752107,6.739518,5.294480,1.340991,-6.663835,-5.333384,-1.170661,6.556239,-0.256295,0.616886,-0.073035,-16.012621,188.344435,0
0.077097,5.968607,-164.751380,162.986653,6.140088,3.508690,3.173524,-6.542379,-3.572700,-2.951401,6.502943,-0.241683,0.615906,-0.050629,-7.892041,188.419849,0
0.078131,74.363885,-185.564843,114.886653,5.178738,0.877934,5.150831,-5.876329,-0.962917,-4.994016,5.825315,-0.248989,0.606695,-0.050629,6.550828,188.495303,0
0.079177,124.962780,-183.457450,33.246654,3.584028,-1.713769,6.229016,-4.113257,1.628487,-6.093885,4.188350,-0.208806,0.599640,-0.024490,13.054078,188.419826,0
0.080213,168.347844,-157.920112,-38.867891,2.192898,-4.078254,6.545233,-2.021077,4.094915,-6.496768,2.079330,-0.190541,0.603233,-0.043161,21.446098,188.344433,0
0.081254,180.291497,-91.774026,-98.916072,0.982728,-5.700731,5.364182,0.823346,5.660785,-5.376754,-0.638794,-0.110175,0.581349,-0.031958,26.343328,188.419871,0
0.082295,188.741660,-10.059280,-146.578799,0.043998,-6.396586,3.939302,2.856756,6.406962,-3.950550,-2.747814,-0.088257,0.598399,-0.061832,31.342348,188.495329,0
0.083333,144.483223,61.603914,-167.993344,-0.363162,-6.101913,1.600060,4.905838,6.160687,-1.686350,-4.651262,-0.037115,0.603037,-0.028224,29.476198,188.419809,0
0.084375,62.193382,113.341590,-191.925162,-0.860802,-5.207243,-1.063019,6.425998,5.204992,1.012963,-6.379593,0.032292,0.608132,-0.031958,21.672298,188.344556,0
0.085417,-5.997731,162.948195,-164.258798,-0.306612,-3.474707,-2.823165,6.414245,3.525174,2.701040,-6.269193,-0.029809,0.613554,-0.035692,13.291588,188.419894,0
0.086458,-74.166159,186.105837,-114.669708,0.632118,-0.851051,-4.899528,5.783456,0.970528,4.880635,-5.728614,-0.033462,0.601469,-0.031958,-2.474551,188.495269,0
0.087500,-123.948394,183.761658,-34.152436,2.249448,1.726451,-5.939615,4.126168,-1.620876,5.936187,-4.175400,-0.048074,0.598856,-0.031958,-7.439641,188.419822,0
0.088542,-168.842011,157.774427,37.761200,3.663198,4.137090,-6.366317,2.010481,-4.098332,6.443819,-2.096835,-0.091910,0.602318,-0.050629,-17.143621,188.344467,0
0.089583,-180.014374,94.671037,98.884835,4.828128,5.763117,-5.246224,-0.775173,-5.686256,5.388267,0.590834,-0.110175,0.601861,-0.031958,-21.633691,188.423217,0
0.090625,-189.179114,12.281452,146.547562,5.823408,6.519326,-3.764196,-2.890860,-6.483894,3.970120,2.768378,-0.175929,0.609047,-0.046895,-25.795771,188.495794,0
0.091667,-146.111640,-60.269688,167.489380,6.219258,6.253055,-1.413524,-4.951695,-6.259673,1.738151,4.671826,-0.245336,0.615253,-0.024490,-24.664771,188.420200,0
0.092708,-64.071334,-112.871632,191.669380,6.705588,5.340634,1.253364,-6.585476,-5.362790,-1.025623,6.472488,-0.267254,0.616624,-0.031958,-15.876901,188.344856,0
0.093750,4.165149,-162.608469,164.404835,6.174018,3.540643,2.979222,-6.471856,-3.701351,-2.753989,6.384929,-0.296478,0.604343,-0.050629,-6.874141,188.420336,0
0.094792,73.467828,-186.168647,114.815744,5.178738,0.966691,5.078444,-5.860657,-1.084217,-4.901353,5.840543,-0.241683,0.592585,-0.054364,5.872228,188.495781,0
0.095833,123.544967,-183.682397,34.239381,3.595338,-1.614361,6.160439,-4.226877,1.518214,-6.017337,4.272102,-0.230724,0.596831,-0.028224,12.612988,188.420412,0
0.096875,168.461269,-157.387344,-38.087891,2.192898,-4.060503,6.537613,-2.107272,4.003021,-6.500796,2.182116,-0.190541,0.598856,-0.061832,21.581818,188.269460,0
0.097917,179.565577,-93.585437,-98.868799,0.948798,-5.672329,5.455618,0.705808,5.583594,-5.457331,-0.516973,-0.124787,0.600685,-0.031958,26.354638,188.420426,0
0.098958,188.753003,-10.722280,-146.070617,0.021378,-6.375284,4.015499,2.778397,6.403286,-3.978752,-2.664062,-0.051727,0.605650,-0.009553,31.297108,188.495644,0
0.100002,145.061691,61.627592,-167.780617,-0.442332,-6.140966,1.657207,4.878413,6.168038,-1.762898,-4.670297,-0.048074,0.607348,-0.031958,28.627948,188.420396,0
0.101042,63.361660,113.246876,-191.688798,-0.860802,-5.267598,-1.028730,6.496521,5.241749,0.968645,-6.394820,-0.018850,0.614665,-0.035692,20.959768,188.269521,0
0.102083,-4.579918,162.948195,-164.436071,-0.363162,-3.481808,-2.796496,6.378983,3.561931,2.688954,-6.311069,0.006721,0.622046,-0.039427,14.117218,188.420186,0
0.103125,-73.587691,186.011122,-115.366981,0.564258,-0.932708,-4.933817,5.799128,0.988906,4.880635,-5.793331,-0.048074,0.603755,-0.043161,-2.248352,188.420490,0
0.104167,-124.141216,183.666944,-34.967891,2.192898,1.683847,-5.985333,4.157512,-1.595146,6.012735,-4.262959,-0.048074,0.601012,-0.054364,-7.077721,188.495725,0
0.105208,-168.864696,157.952016,37.004836,3.617958,4.158391,-6.366317,2.053579,-4.113035,6.455905,-2.127290,-0.084604,0.608132,-0.046895,-17.573401,188.269590,0
0.106250,-179.969004,93.605501,98.731199,4.828128,5.795069,-5.192886,-0.814352,-5.700959,5.364094,0.602254,-0.154011,0.588404,-0.035692,-21.271771,188.420329,0
0.107292,-189.111059,12.388005,145.956653,5.823408,6.458971,-3.714668,-2.883024,-6.450812,3.941918,2.779799,-0.190541,0.594610,-0.028224,-26.067211,188.420280,0
0.108333,-145.873447,-60.376242,167.501198,6.253188,6.224653,-1.451623,-4.869419,-6.270700,1.673690,4.721316,-0.252642,0.610353,-0.024490,-24.970141,188.495745,0
0.109375,-63.697031,-112.682204,191.633925,6.716898,5.347734,1.180977,-6.550214,-5.373817,-1.021594,6.430612,-0.267254,0.601273,-0.061832,-16.182271,188.269449,0
0.110417,5.015837,-162.276969,164.605744,6.174018,3.565495,2.986842,-6.460102,-3.660918,-2.737874,6.365895,-0.256295,0.601338,-0.050629,-8.480161,188.419797,0
0.111458,73.683335,-185.896343,114.780290,5.223978,1.055448,4.998438,-5.864575,-1.106271,-4.889266,5.779633,-0.234377,0.600750,-0.050629,6.347248,188.420260,0
0.112500,123.216035,-183.741593,34.593927,3.629268,-1.525604,6.110911,-4.281728,1.459402,-6.001222,4.245454,-0.227071,0.594806,-0.017021,12.850498,188.495653,0
0.113542,168.427242,-157.529416,-37.284254,2.215518,-4.007249,6.503325,-2.107272,3.933182,-6.440364,2.223992,-0.183235,0.600816,-0.020755,21.400858,188.269438,0
0.114583,179.474837,-94.911437,-98.443345,1.039278,-5.597773,5.432759,0.635285,5.554188,-5.457331,-0.398959,-0.132093,0.601534,-0.054364,26.241538,188.420370,0
0.115625,188.537495,-12.024601,-145.999708,0.021378,-6.353983,4.011689,2.700039,6.340798,-4.002925,-2.599345,-0.051727,0.609308,-0.017021,31.263178,188.420303,0
0.116667,146.479503,60.715967,-167.225162,-0.442332,-6.140966,1.683876,4.807890,6.127605,-1.807215,-4.567510,-0.062686,0.615318,-0.043161,29.510128,188.495727,0
0.117708,64.779472,113.045608,-191.416980,-0.917352,-5.260497,-0.979202,6.375065,5.241749,0.924328,-6.314876,-0.015197,0.615710,-0.017021,21.932428,188.269584,0
0.118750,-3.706546,162.415427,-164.837889,-0.363162,-3.488908,-2.724109,6.351558,3.617068,2.648666,-6.307262,0.003068,0.612313,-0.035692,13.800538,188.420260,0
0.119792,-72.884456,186.295265,-115.378799,0.609498,-0.936258,-4.834761,5.752113,1.029340,4.820202,-5.728614,-0.026156,0.601142,-0.035692,-2.304902,188.420253,0
0.120833,-123.619461,183.714301,-34.967891,2.204208,1.648344,-5.886277,4.141840,-1.573092,5.920072,-4.198241,-0.037115,0.595328,-0.046895,-7.450951,188.495875,0
0.121875,-169.182286,157.490284,36.910291,3.617958,4.108687,-6.362507,2.045743,-3.988059,6.439790,-2.153938,-0.077298,0.603429,-0.043161,-17.109691,188.269492,0
0.122917,-179.526646,94.623680,98.849381,4.839438,5.727614,-5.223365,-0.712486,-5.653174,5.412440,0.499468,-0.132093,0.592389,-0.020755,-21.497971,188.344912,0
0.123958,-189.008976,11.476380,145.944835,5.778168,6.462522,-3.809914,-2.804665,-6.443460,3.970120,2.692240,-0.179582,0.600554,-0.035692,-25.750531,188.420307,0
0.125000,-146.383860,-61.287867,166.614835,6.219258,6.221103,-1.520200,-4.853747,-6.274376,1.754266,4.683247,-0.223418,0.612182,-0.065566,-24.687391,188.495723,0
0.126042,-63.583606,-112.918989,191.539380,6.671658,5.361936,1.150499,-6.530625,-5.417926,-0.981306,6.419191,-0.248989,0.608001,-0.017021,-15.978691,188.269521,0
0.127083,4.652877,-161.957309,164.936653,6.185328,3.679104,2.910645,-6.483609,-3.723405,-2.713701,6.350667,-0.238030,0.598856,-0.054364,-7.111651,188.344811,0
