1-Time,2-VGERA,3-VGERB,4-VGERC,5-VN,6-IGERAN,7-IGERBN,8-IGERCN,9-IGERAT,10-IGERBT,11-IGERCT,12-IN,13-IFD,14-IFAULT,15-VFAULT,16-Speed (rad/s),17-FAULT 
0.000000,-144.523690,170.838956,-18.675568,2.520888,6.682639,-3.561313,-3.303932,-6.336864,3.811830,3.093872,-0.157664,0.301627,-0.058098,12.137968,188.495881,0
0.001042,-187.908754,104.732249,29.409659,3.448308,6.245955,-1.033326,-5.080064,-5.822259,1.402928,4.790965,-0.230724,0.313908,-0.002084,16.650658,188.495873,0
0.002083,-191.753862,49.268819,101.229735,4.816818,5.351285,1.296233,-6.244251,-5.101812,-1.039547,6.125158,-0.248989,0.316260,-0.017021,17.894758,188.495892,0
0.003125,-148.402825,-0.045431,166.562122,6.060918,3.579696,3.482923,-6.475596,-3.315397,-3.209237,6.271030,-0.267254,0.339908,-0.024490,15.282148,188.269651,0
0.004167,-88.151462,-50.785228,207.014773,6.784758,1.126454,5.320377,-5.624844,-0.782805,-5.089356,5.591481,-0.230724,0.315933,-0.035692,11.357578,188.495879,0
0.005208,-39.231257,-127.728506,182.885985,6.400218,-1.472350,6.376020,-4.080057,1.749787,-6.142726,4.008239,-0.201500,0.299471,-0.054364,5.069218,188.495866,0
0.006250,8.883630,-187.649790,131.747728,5.438868,-3.609618,6.336335,-1.900937,3.966264,-6.306397,2.079886,-0.143052,0.313059,-0.054364,3.225688,188.495910,0
0.007292,67.013945,-197.773587,70.207008,4.262628,-5.594223,5.336252,0.908785,5.870302,-5.282404,-0.705908,-0.117481,0.305939,-0.073035,-0.766742,188.269675,0
0.008333,144.619333,-171.002304,19.548864,3.301278,-6.499544,3.709132,3.162532,6.899513,-3.750611,-2.918889,-0.066339,0.306265,-0.076769,-7.179511,188.495879,0
0.009375,187.471300,-105.644613,-29.287311,2.339928,-6.094812,1.272422,4.983441,6.403286,-1.345906,-4.669349,-0.026156,0.314300,-0.043161,-12.212461,188.495743,0
0.010417,191.668025,-50.531529,-100.935038,0.948798,-5.214343,-1.112697,6.140165,5.668136,1.050406,-5.932385,-0.015197,0.321225,-0.050629,-12.902371,188.495743,0
0.011458,148.838743,-0.661558,-166.735228,-0.250062,-3.432104,-3.275575,6.412555,3.833937,3.173932,-6.124509,-0.000585,0.332918,-0.043161,-10.255831,188.269767,0
0.012500,88.904971,50.694365,-206.769319,-1.053072,-0.922057,-5.140810,5.517027,1.349130,5.171558,-5.402266,0.032292,0.330109,-0.061832,-6.930691,188.495940,0
0.013542,39.996109,128.120879,-182.492804,-0.578052,1.673196,-6.228202,4.009553,-1.205517,6.208141,-3.907970,-0.026156,0.317305,-0.061832,-0.212552,188.420421,0
0.014583,-8.742616,187.474361,-131.859281,0.383298,3.803363,-6.192484,1.830433,-3.458751,6.396992,-1.933365,-0.073645,0.328998,-0.039427,1.483948,188.495922,0
0.015625,-67.065754,198.020990,-70.072349,1.559538,5.834123,-5.184464,-1.061379,-5.337060,5.326836,0.880892,-0.124787,0.301366,-0.046895,5.272798,188.269754,0
0.016667,-144.240127,171.116816,-19.291099,2.486958,6.703941,-3.533533,-3.274081,-6.403027,3.803436,3.140124,-0.179582,0.302150,-0.013287,11.832598,188.495843,0
0.017708,-188.203659,105.106757,29.003409,3.436998,6.263706,-1.061106,-5.177080,-5.899449,1.318994,4.862122,-0.248989,0.311426,-0.039427,17.001268,188.420392,0
0.018750,-191.946684,49.739974,100.848106,4.816818,5.340634,1.331950,-6.326342,-5.112839,-1.094104,6.110927,-0.256295,0.318285,-0.073035,17.510218,188.495852,0
0.019792,-148.357455,0.461966,166.845266,6.072228,3.593897,3.506734,-6.550224,-3.252909,-3.251204,6.299492,-0.230724,0.327627,-0.054364,14.999398,188.269650,0
0.020833,-88.174147,-50.398639,207.113258,6.841308,1.062549,5.356094,-5.654695,-0.808536,-5.160700,5.566576,-0.270907,0.329260,-0.039427,10.769458,188.495765,0
0.021875,-39.038435,-127.813072,182.910607,6.388908,-1.554006,6.415706,-4.121102,1.801247,-6.188889,4.047375,-0.223418,0.297773,-0.039427,5.001358,188.420473,0
0.022917,8.917657,-187.226958,131.673864,5.450178,-3.641570,6.320460,-1.923325,3.980967,-6.314790,2.040750,-0.135746,0.329260,-0.061832,3.248308,188.495931,0
0.023958,66.446820,-198.293066,69.825379,4.285248,-5.654578,5.379906,0.856545,5.910736,-5.236240,-0.709466,-0.106522,0.302607,-0.013287,-0.642332,188.345079,0
0.025000,143.677906,-170.845252,19.388826,3.346518,-6.527946,3.709132,3.155069,6.939946,-3.733824,-2.997161,-0.062686,0.302999,-0.058098,-6.919381,188.495873,0
0.026042,187.528012,-104.666060,-28.745644,2.396478,-6.101913,1.264485,4.972246,6.425341,-1.316529,-4.633771,-0.033462,0.311230,-0.076769,-12.155911,188.420538,0
0.027083,191.486545,-49.154306,-100.233334,0.982728,-5.200142,-1.088886,6.132703,5.605648,1.079783,-5.982195,-0.007891,0.323576,-0.043161,-12.585691,188.495855,0
0.028125,148.555181,0.063297,-166.304357,-0.238752,-3.432104,-3.247795,6.393898,3.793504,3.249473,-6.124509,0.024986,0.341475,-0.024490,-9.351031,188.345164,0
0.029167,88.213078,50.549395,-206.966289,-1.007832,-0.929158,-5.101124,5.539415,1.385887,5.129591,-5.423613,-0.022503,0.321878,-0.099175,-6.704491,188.495785,0
0.030208,39.428984,127.468510,-182.862122,-0.611982,1.605741,-6.156767,3.994628,-1.205517,6.166174,-3.929317,-0.022503,0.330109,-0.069301,-0.201242,188.420495,0
0.031250,-8.527109,187.655574,-131.883902,0.371988,3.778511,-6.172642,1.871478,-3.363182,6.384402,-1.947596,-0.091910,0.312145,-0.061832,1.540498,188.495893,0
0.032292,-66.328491,197.984747,-70.540152,1.525608,5.716963,-5.192401,-0.990483,-5.281923,5.343623,0.841755,-0.146705,0.304959,-0.061832,5.216248,188.269765,0
0.033333,-144.671142,171.479244,-19.931250,2.464338,6.657787,-3.565282,-3.281544,-6.347891,3.811830,3.072525,-0.183235,0.308160,-0.050629,12.183208,188.495919,0
0.034375,-187.352971,106.556465,28.757197,3.425688,6.277907,-1.116666,-5.106184,-5.895774,1.411321,4.783850,-0.259948,0.316260,-0.039427,16.594108,188.420549,0
0.035417,-192.343672,51.298411,100.626515,4.816818,5.379687,1.284327,-6.274102,-5.123866,-1.047941,6.078906,-0.274560,0.322988,-0.061832,17.906068,188.495834,0
0.036458,-149.854665,1.380115,165.872728,6.015678,3.586796,3.482923,-6.471865,-3.267612,-3.188254,6.249683,-0.259948,0.330174,-0.058098,15.372628,188.269521,0
0.037500,-89.784782,-50.012050,207.174811,6.807378,1.130004,5.348157,-5.650964,-0.867348,-5.097749,5.587923,-0.230724,0.335139,-0.043161,11.323648,188.495868,0
0.038542,-40.422220,-126.907004,183.144508,6.400218,-1.486551,6.391895,-4.091251,1.724056,-6.138529,4.093627,-0.205153,0.322401,-0.073035,5.012668,188.420669,0
0.039583,7.964887,-187.770599,132.289394,5.461488,-3.623819,6.352209,-1.923325,3.955237,-6.306397,2.087002,-0.164970,0.319592,-0.013287,3.236998,188.495873,0
0.040625,66.072517,-197.846073,70.822538,4.285248,-5.611975,5.352126,0.908785,5.870302,-5.240437,-0.709466,-0.124787,0.302868,-0.065566,-0.631022,188.269660,0
0.041667,144.188318,-171.388893,20.102841,3.312588,-6.524396,3.740881,3.166263,6.962000,-3.721234,-2.950909,-0.044421,0.303718,-0.050629,-7.077721,188.420466,0
0.042708,186.926860,-105.535885,-28.585606,2.362548,-6.098363,1.288296,4.979709,6.451071,-1.350103,-4.626655,-0.029809,0.312406,-0.046895,-12.155911,188.420537,0
0.043750,191.962930,-49.830837,-100.011743,1.005348,-5.253396,-1.092854,6.188673,5.712245,1.071389,-5.967963,0.003068,0.318742,-0.061832,-12.936301,188.495930,0
0.044792,148.918141,-0.190402,-165.885796,-0.238752,-3.442755,-3.275575,6.375242,3.841288,3.211703,-6.117393,0.006721,0.334028,-0.065566,-10.391551,188.344916,0
0.045833,88.428586,50.211129,-207.163258,-1.019142,-0.929158,-5.180496,5.531952,1.374860,5.133788,-5.469865,-0.007891,0.322466,-0.050629,-6.874141,188.420482,0
0.046875,39.281531,127.202730,-182.837501,-0.589362,1.641244,-6.244076,4.002090,-1.220220,6.199748,-3.918644,-0.029809,0.329456,-0.050629,-0.144692,188.420428,0
0.047917,-8.527109,187.583089,-132.007008,0.338058,3.835316,-6.204390,1.845358,-3.410967,6.405386,-1.926249,-0.110175,0.296009,-0.024490,1.472638,188.495892,0
0.048958,-66.090299,198.117637,-70.183144,1.548228,5.798620,-5.204307,-1.012871,-5.359114,5.314246,0.870218,-0.164970,0.306527,-0.054364,5.182318,188.345155,0
0.050000,-143.956564,171.503405,-19.475758,2.520888,6.714592,-3.581156,-3.266618,-6.392000,3.811830,3.133009,-0.201500,0.303914,-0.076769,11.809978,188.420428,0
0.051042,-187.500424,105.372537,28.547917,3.425688,6.295659,-1.156352,-5.139766,-5.888422,1.381944,4.862122,-0.227071,0.311949,-0.046895,16.922098,188.420437,0
0.052083,-192.332329,50.029916,99.961743,4.828128,5.429391,1.280359,-6.344998,-5.153272,-1.043744,6.157179,-0.234377,0.321551,-0.058098,17.544148,188.496277,0
0.053125,-149.038005,1.066012,165.934281,6.072228,3.664903,3.482923,-6.587538,-3.267612,-3.205041,6.306608,-0.270907,0.301301,-0.043161,15.123808,188.345341,0
0.054167,-88.843355,-49.746271,207.150190,6.807378,1.144205,5.368000,-5.706934,-0.882051,-5.185880,5.637733,-0.259948,0.329717,-0.028224,10.882558,188.346686,0
0.055209,-39.968520,-127.076137,183.193751,6.377598,-1.475900,6.415706,-4.165878,1.720381,-6.218266,4.100743,-0.201500,0.313320,-0.061832,5.137078,188.420748,0
0.056250,7.851462,-187.299444,132.634091,5.461488,-3.645120,6.356178,-1.960639,3.977291,-6.373544,2.104791,-0.183235,0.315803,-0.054364,3.361408,188.496272,0
0.057292,65.732242,-198.136014,71.216477,4.262628,-5.626176,5.403717,0.849083,5.925439,-5.269814,-0.663214,-0.091910,0.309989,-0.061832,-0.597092,188.420851,0
0.058333,143.870728,-171.642592,20.619886,3.323898,-6.552798,3.788504,3.128950,6.984055,-3.842938,-2.968698,-0.044421,0.309727,-0.050629,-6.964621,188.345263,0
0.059375,187.142367,-106.695652,-28.253220,2.396478,-6.101913,1.304170,4.983441,6.498856,-1.396266,-4.648002,-0.029809,0.319592,-0.031958,-12.088051,188.420862,0
0.060417,192.099040,-51.159736,-99.765531,0.994038,-5.306651,-1.053168,6.158822,5.715921,1.037816,-6.010657,0.003068,0.322923,-0.065566,-12.664861,188.495660,0
0.061458,149.995678,-1.326007,-165.614963,-0.216132,-3.488908,-3.247795,6.408824,3.870694,3.173932,-6.145856,-0.000585,0.333310,-0.039427,-9.452821,188.420741,0
0.062500,90.084591,49.897026,-206.966289,-0.996522,-0.989512,-5.109061,5.558072,1.404266,5.154771,-5.509001,0.039598,0.333244,-0.058098,-6.715801,188.346883,0
0.063542,40.676659,126.695332,-183.194508,-0.578052,1.627043,-6.180579,4.028210,-1.135677,6.216535,-3.939991,-0.029809,0.326255,-0.061832,-0.099452,188.422800,0
0.064584,-7.631051,187.752221,-132.573296,0.349368,3.831766,-6.204390,1.871478,-3.370533,6.396992,-1.979617,-0.106522,0.324360,-0.046895,1.517878,188.495629,0
0.065625,-65.330351,197.996828,-71.131061,1.502988,5.748916,-5.208276,-0.983020,-5.281923,5.347819,0.799061,-0.164970,0.305155,-0.035692,5.091838,188.420486,0
0.066666,-144.444292,171.853752,-20.312879,2.475648,6.703941,-3.612905,-3.259156,-6.347891,3.853797,3.079641,-0.197847,0.305743,-0.039427,12.104038,188.344961,0
0.067708,-186.887929,106.604789,28.240152,3.403068,6.267256,-1.156352,-5.065139,-5.884746,1.478468,4.766060,-0.238030,0.315803,-0.054364,16.492318,188.420330,0
0.068750,-192.786029,50.803093,99.580114,4.771578,5.425841,1.276390,-6.300222,-5.134893,-1.001777,6.142947,-0.227071,0.319134,-0.024490,17.973928,188.495707,0
0.069791,-150.092857,1.029769,164.924811,6.060918,3.604548,3.435300,-6.561418,-3.274964,-3.154680,6.288819,-0.296478,0.317240,-0.054364,15.463108,188.420401,0
0.070833,-89.115575,-49.395924,207.408713,6.841308,1.130004,5.332283,-5.669621,-0.859996,-5.093552,5.623501,-0.248989,0.328541,-0.031958,11.301028,188.345010,0
0.071875,-39.991205,-125.723076,183.563069,6.400218,-1.447498,6.368083,-4.139759,1.727732,-6.142726,4.086512,-0.205153,0.317762,-0.043161,4.967428,188.420311,0
0.072916,7.658640,-187.879327,132.572538,5.450178,-3.630919,6.423643,-2.016609,3.951561,-6.360954,2.097675,-0.190541,0.324752,-0.069301,3.282238,188.495718,0
0.073958,64.745445,-197.942720,71.056440,4.240008,-5.604874,5.395780,0.841620,5.877654,-5.257224,-0.705908,-0.132093,0.305612,-0.039427,-0.517922,188.344921,0
0.075000,143.745961,-171.787563,20.496780,3.369138,-6.552798,3.784535,3.121487,6.969352,-3.826151,-2.911773,-0.069992,0.305612,-0.039427,-7.032481,188.344968,0
0.076041,186.314365,-106.067445,-27.920833,2.419098,-6.080611,1.375605,4.994635,6.462098,-1.442430,-4.626655,-0.048074,0.316391,-0.043161,-12.088051,188.420287,0
0.077083,192.427973,-49.951646,-99.113068,1.016658,-5.320852,-1.057137,6.199867,5.708569,1.021029,-5.999984,0.014027,0.319722,-0.024490,-12.970231,188.495669,0
0.078125,149.768828,-0.576991,-165.036364,-0.216132,-3.492458,-3.243827,6.420018,3.867019,3.173932,-6.138740,0.010374,0.326516,-0.061832,-10.459411,188.344932,0
0.079166,88.859601,49.595003,-207.397160,-1.041762,-0.985962,-5.109061,5.587923,1.448375,5.167361,-5.501885,-0.004238,0.337883,-0.061832,-6.953311,188.269523,0
0.080208,40.381754,126.127530,-183.403788,-0.544122,1.570238,-6.232170,4.058061,-1.113623,6.199748,-3.986243,-0.026156,0.313451,-0.039427,-0.212552,188.420383,0
0.081250,-7.506284,187.583089,-132.893372,0.338058,3.814014,-6.279793,1.908792,-3.388912,6.443156,-1.976059,-0.080951,0.317305,-0.054364,1.370848,188.495741,0
0.082291,-65.046789,197.996828,-71.574243,1.491678,5.763117,-5.255899,-0.923318,-5.315005,5.406573,0.774156,-0.161317,0.308748,-0.028224,5.091838,188.420339,0
0.083333,-144.092675,172.433635,-20.792992,2.475648,6.735893,-3.668465,-3.229305,-6.355242,3.937730,3.100988,-0.208806,0.310119,-0.050629,11.809978,188.269613,0
0.084375,-186.978669,107.692070,27.821591,3.414378,6.277907,-1.200006,-5.080064,-5.947234,1.478468,4.762503,-0.267254,0.317828,-0.043161,16.820308,188.420164,0
0.085416,-192.967509,52.156155,99.173864,4.760268,5.468444,1.260516,-6.330073,-5.160624,-0.993384,6.185641,-0.274560,0.323576,-0.043161,17.589388,188.420247,0
0.086458,-150.886832,2.382830,165.121781,6.026988,3.661352,3.482923,-6.568881,-3.377885,-3.192451,6.313724,-0.256295,0.334682,-0.039427,15.248218,188.420213,0
0.087500,-90.499360,-48.948931,207.347160,6.852618,1.115803,5.344189,-5.736785,-0.871023,-5.118733,5.687543,-0.274560,0.322270,-0.073035,10.950418,188.269380,0
0.088541,-41.579155,-125.916370,183.723107,6.377598,-1.426196,6.427612,-4.195729,1.668920,-6.188889,4.111417,-0.212459,0.326059,-0.073035,5.080528,188.420291,0
0.089583,6.955405,-187.371929,133.323485,5.472798,-3.627369,6.423643,-2.020341,3.958912,-6.402921,2.154601,-0.190541,0.322009,-0.017021,3.361408,188.420309,0
0.090625,64.643362,-198.111853,71.979735,4.285248,-5.608424,5.371969,0.800575,5.892357,-5.357944,-0.634751,-0.102869,0.308225,-0.039427,-0.438752,188.495758,0
0.091666,143.655221,-172.174152,21.198485,3.335208,-6.566999,3.796441,3.136412,6.943622,-3.830348,-2.922446,-0.080951,0.306396,-0.046895,-6.840211,188.269465,0
0.092708,186.291680,-107.154726,-27.489962,2.430408,-6.140966,1.351793,4.927470,6.506207,-1.459217,-4.644444,-0.000585,0.316456,-0.050629,-11.963641,188.420305,0
0.093750,192.598110,-50.773147,-98.620644,1.050588,-5.292449,-1.061106,6.192404,5.704894,1.033619,-5.978637,-0.000585,0.320833,-0.028224,-12.777961,188.420381,0
0.094791,150.710256,-0.830690,-164.334660,-0.261372,-3.492458,-3.196204,6.420018,3.889073,3.136162,-6.145856,0.006721,0.333571,-0.017021,-9.520681,188.495577,0
0.095833,89.415383,49.280900,-207.249432,-1.007832,-1.010814,-5.120967,5.614042,1.444699,5.100214,-5.501885,-0.026156,0.333898,-0.061832,-6.636631,188.269545,0
0.096875,40.302356,125.136896,-183.760796,-0.589362,1.545386,-6.172642,4.054329,-1.065838,6.149388,-3.972011,-0.011544,0.307702,-0.054364,-0.008972,188.420162,0
0.097916,-7.438229,187.848869,-132.868750,0.326748,3.739458,-6.248045,1.968494,-3.341127,6.392796,-2.015195,-0.091910,0.312798,-0.065566,1.495258,188.420314,0
0.098958,-64.128046,198.045152,-71.340341,1.514298,5.734715,-5.204307,-0.893467,-5.263545,5.301656,0.806177,-0.124787,0.299929,-0.039427,4.967428,188.495767,0
0.100000,-143.809112,172.312826,-20.706818,2.464338,6.707491,-3.632748,-3.225573,-6.351567,3.837010,3.040505,-0.197847,0.302934,-0.028224,12.058798,188.269583,0
0.101041,-185.901131,107.220915,27.809280,3.425688,6.249505,-1.215880,-5.024094,-5.888422,1.495255,4.709135,-0.241683,0.317044,-0.046895,16.401838,188.420197,0
0.102083,-193.228387,50.791013,98.570644,4.760268,5.486195,1.193050,-6.303953,-5.175327,-0.968203,6.107369,-0.270907,0.322335,-0.069301,18.075718,188.420345,0
0.103125,-151.090997,1.162659,163.656819,6.004368,3.647151,3.383708,-6.490522,-3.330100,-3.104320,6.281703,-0.274560,0.329064,-0.020755,15.655378,188.495723,0
0.104166,-89.750755,-48.731475,207.457955,6.818688,1.179708,5.272754,-5.695740,-0.874699,-5.047389,5.641291,-0.248989,0.312275,-0.046895,11.368888,188.269519,0
0.105208,-40.898605,-124.466662,184.104735,6.400218,-1.376493,6.352209,-4.162147,1.646866,-6.109152,4.111417,-0.205153,0.316521,-0.031958,5.069218,188.420314,0
0.106250,7.091515,-187.843084,133.495834,5.484108,-3.574115,6.407769,-2.098700,3.944209,-6.360954,2.225758,-0.168623,0.310642,-0.009553,3.395338,188.420276,0
0.107291,63.906100,-197.676940,72.398296,4.330488,-5.530318,5.383875,0.804306,5.833545,-5.290797,-0.581383,-0.106522,0.298165,-0.020755,-0.483992,188.495774,0
0.108333,144.018181,-172.536579,21.567803,3.346518,-6.531497,3.824221,3.091636,6.932594,-3.901692,-2.869079,-0.018850,0.310381,-0.065566,-7.089031,188.269507,0
0.109375,185.486362,-108.471545,-27.403788,2.407788,-6.119664,1.403385,4.867768,6.458423,-1.446626,-4.601750,-0.018850,0.317697,-0.031958,-11.963641,188.344865,0
0.110416,192.972413,-52.005400,-98.423675,1.039278,-5.317301,-1.001577,6.184942,5.708569,0.966472,-5.953732,-0.015197,0.322205,-0.043161,-13.015471,188.420175,0
0.111458,151.651683,-1.700515,-163.891478,-0.238752,-3.527961,-3.168424,6.416287,3.878046,3.131965,-6.124509,0.010374,0.335139,-0.020755,-10.606441,188.495685,0
0.112500,90.799168,48.882230,-207.249432,-1.007832,-1.088920,-5.097155,5.625236,1.474105,5.096018,-5.509001,0.003068,0.333310,-0.054364,-6.953311,188.269436,0
0.113541,41.856279,124.991925,-183.846970,-0.611982,1.538286,-6.125019,4.084180,-1.058487,6.178764,-4.004032,-0.037115,0.325471,-0.039427,-0.133382,188.344934,0
0.114583,-6.791706,187.619331,-133.607387,0.349368,3.767861,-6.259950,1.942374,-3.348479,6.413779,-2.040100,-0.099216,0.320179,-0.054364,1.348228,188.420321,0
0.115625,-64.025964,197.827695,-72.300568,1.480368,5.741815,-5.196370,-0.927049,-5.274572,5.335229,0.763483,-0.124787,0.308225,-0.065566,4.944808,188.495676,0
0.116666,-143.695687,172.759819,-21.396212,2.475648,6.725242,-3.597031,-3.259156,-6.395676,3.908354,3.058294,-0.179582,0.304501,-0.031958,11.708188,188.269434,0
0.117708,-186.116639,107.873284,27.427652,3.380448,6.309860,-1.196037,-5.016631,-5.928855,1.474272,4.748271,-0.245336,0.313974,-0.054364,16.707208,188.420244,0
0.118750,-193.296442,51.467543,98.238258,4.715028,5.454243,1.224799,-6.274102,-5.179002,-0.993384,6.135831,-0.263601,0.318742,-0.031958,17.747728,188.420256,0
0.119791,-151.351875,1.706300,163.792235,6.026988,3.615199,3.375771,-6.501716,-3.337452,-3.150484,6.295935,-0.259948,0.336772,-0.069301,15.395248,188.495673,0
0.120833,-90.057002,-48.381128,207.421023,6.841308,1.112252,5.328314,-5.680815,-0.889402,-5.110339,5.651964,-0.230724,0.322139,-0.046895,10.961728,188.269559,0
0.121875,-41.012030,-124.321691,184.166288,6.434148,-1.408445,6.372052,-4.136027,1.676272,-6.088169,4.107859,-0.216112,0.306069,-0.080503,5.001358,188.344968,0
0.122916,6.807952,-187.384010,133.582008,5.484108,-3.609618,6.419675,-2.050192,3.980967,-6.386134,2.175948,-0.157664,0.294899,-0.065566,3.372718,188.420341,0
0.123958,63.338975,-197.966882,72.102841,4.307868,-5.590673,5.407686,0.759530,5.829869,-5.253027,-0.663214,-0.128440,0.301693,-0.069301,-0.348272,188.495821,0
0.125000,143.224206,-172.270799,21.247727,3.346518,-6.520846,3.800410,3.065516,6.936270,-3.826151,-2.922446,-0.055380,0.301497,-0.028224,-6.794971,188.269622,0
0.126041,185.236827,-107.686286,-27.009849,2.441718,-6.101913,1.387511,4.871500,6.465774,-1.425643,-4.566172,-0.015197,0.314953,-0.046895,-11.782681,188.344885,0
0.127083,193.029125,-50.724824,-97.512690,1.027968,-5.299550,-1.021420,6.158822,5.730624,1.021029,-5.978637,0.010374,0.300451,-0.046895,-12.868441,188.420235,0
0.128125,151.560943,-0.830690,-163.177463,-0.216132,-3.510210,-3.140644,6.337928,3.925831,3.089998,-6.142298,0.006721,0.307114,0.012853,-9.633781,188.495689,0
