1-Time,2-VGERA,3-VGERB,4-VGERC,5-VN,6-IGERAN,7-IGERBN,8-IGERCN,9-IGERAT,10-IGERBT,11-IGERCT,12-IN,13-IFD,14-IFAULT,15-VFAULT,16-Speed (rad/s),17-FAULT 
0.000000,-135.358949,175.663587,-24.922436,2.407788,0.430599,-4.545213,3.992958,-0.404203,4.514012,-4.000283,-0.055380,0.561098,-0.054364,81.909357,188.495700,0
0.001042,-171.223936,149.439570,47.983927,3.844158,2.507512,-5.078591,2.414029,-2.429541,5.098191,-2.549856,-0.091910,0.557962,-0.039427,105.354986,188.646547,0
0.002083,-174.615343,84.915466,112.865744,5.133498,4.080285,-4.583312,0.314014,-3.995411,4.667107,-0.482711,-0.121134,0.552475,-0.009553,113.905346,188.646406,0
0.003125,-178.902809,1.708970,153.130289,5.902578,4.843595,-3.741337,-1.311930,-4.877591,3.808967,1.188516,-0.154011,0.561359,-0.043161,122.116406,188.571132,0
0.004167,-136.255007,-71.765634,164.570289,6.162708,4.996257,-1.916423,-3.263064,-5.013594,2.124918,3.046281,-0.183235,0.556852,-0.046895,97.087376,188.495645,0
0.005208,-54.781826,-124.900346,184.708471,6.558558,4.666081,0.045645,-4.794978,-4.719534,0.058131,4.706088,-0.212459,0.560902,-0.046895,52.175367,188.721933,0
0.006250,15.246772,-165.485415,153.662108,5.981748,3.505140,1.573391,-5.049644,-3.613133,-1.376131,4.923081,-0.248989,0.564103,-0.009553,7.138948,188.571080,0
0.007292,86.420963,-180.971201,103.990290,5.009088,1.527635,3.569747,-5.006547,-1.639255,-3.450976,4.896433,-0.227071,0.553912,-0.054364,-44.355481,188.571073,0
0.008333,135.080290,-175.359379,24.631200,3.459618,-0.375314,4.647932,-4.015308,0.319920,-4.570989,4.055109,-0.230724,0.552410,-0.058098,-76.679460,188.495626,0
0.009375,171.001989,-149.028809,-48.747890,1.966698,-2.395422,5.215599,-2.557835,2.319528,-5.147111,2.597068,-0.186888,0.555676,-0.054364,-100.113779,188.721871,0
0.010417,174.313999,-83.995616,-113.086072,0.677358,-3.961095,4.731749,-0.446066,3.881722,-4.752286,0.548958,-0.132093,0.543460,-0.054364,-108.336149,188.571071,0
0.011458,178.658177,0.193541,-152.594253,-0.057792,-4.791860,3.870725,1.156371,4.785956,-3.894147,-1.107042,-0.099216,0.523732,-0.069301,-115.947779,188.571147,0
0.012500,135.284455,73.336645,-164.365162,-0.306612,-4.919670,2.026762,3.174109,4.892553,-2.181896,-2.991455,-0.069992,0.577625,-0.039427,-91.699140,188.495705,0
0.013542,52.801792,125.618929,-184.597889,-0.713772,-4.617897,0.064694,4.729531,4.660981,-0.147339,-4.670297,-0.026156,0.546073,-0.065566,-46.289491,188.646458,0
0.014583,-17.204121,165.789623,-153.480617,-0.125652,-3.499559,-1.409714,5.007705,3.587662,1.307067,-4.913938,-0.000585,0.529350,-0.031958,-1.241762,188.571132,0
0.015625,-87.527625,180.801837,-103.702435,0.880938,-1.518504,-3.432740,4.972443,1.580702,3.337595,-4.917745,-0.040768,0.554304,-0.039427,48.363897,188.571141,0
0.016667,-135.290894,175.592551,-24.059709,2.441718,0.437700,-4.529974,3.942025,-0.338040,4.457608,-3.996476,-0.066339,0.553194,-0.061832,82.531407,188.497146,0
0.017708,-170.792921,149.285660,48.633927,3.900708,2.475559,-5.063352,2.449291,-2.422190,5.090134,-2.549856,-0.088257,0.556329,-0.046895,104.959136,188.646464,0
0.018750,-174.660713,84.370859,112.972108,5.133498,4.037682,-4.583312,0.384537,-3.966005,4.663078,-0.478904,-0.117481,0.557440,-0.054364,113.000546,188.571185,0
0.019792,-178.891466,1.105166,152.763926,5.925198,4.914600,-3.748957,-1.292341,-4.862888,3.825083,1.173289,-0.139399,0.560118,-0.039427,121.121126,188.571154,0
0.020833,-135.846677,-72.073455,164.771198,6.207948,5.017559,-1.885944,-3.266982,-5.035648,2.120889,3.091964,-0.208806,0.562143,-0.058098,97.732046,188.495683,0
0.021875,-54.577661,-125.054257,184.483925,6.603798,4.733536,0.045645,-4.802814,-4.730561,0.074246,4.740350,-0.197847,0.568937,-0.024490,52.627767,188.646554,0
0.022917,15.428252,-165.745880,153.792108,5.947818,3.522891,1.542912,-5.077069,-3.598430,-1.392246,4.957343,-0.234377,0.562666,-0.031958,6.935368,188.571118,0
0.023958,86.273511,-180.698897,104.533926,5.009088,1.570238,3.558318,-4.990875,-1.595146,-3.422774,4.926888,-0.227071,0.558028,-0.035692,-45.101941,188.571109,0
0.025000,135.171030,-175.229147,25.245745,3.448308,-0.371764,4.693650,-4.054488,0.327271,-4.554874,4.043688,-0.172276,0.557113,-0.043161,-76.905660,188.495745,0
0.026042,171.194812,-149.028809,-47.932436,1.966698,-2.384772,5.215599,-2.577425,2.308501,-5.191428,2.585647,-0.208806,0.558681,-0.020755,-101.459669,188.646518,0
0.027083,174.416082,-84.883562,-112.967890,0.688668,-3.914942,4.743178,-0.461738,3.878046,-4.796603,0.583220,-0.164970,0.555284,-0.035692,-108.754619,188.571176,0
0.028125,178.669520,-1.014066,-152.806980,-0.114342,-4.749257,3.927872,1.152453,4.760226,-3.986810,-1.088008,-0.102869,0.563188,-0.031958,-116.298389,188.571096,0
0.029167,136.021718,72.874913,-164.341526,-0.340542,-4.926771,2.091529,3.127094,4.969744,-2.214126,-2.991455,-0.055380,0.542350,-0.039427,-94.040309,188.495776,0
0.030209,53.992754,125.583411,-184.361526,-0.747702,-4.635648,0.129461,4.690352,4.653629,-0.191656,-4.632228,-0.059033,0.552018,-0.061832,-46.481761,188.721927,0
0.031250,-16.625654,165.588355,-153.669708,-0.080412,-3.460506,-1.375426,4.976361,3.587662,1.234548,-4.913938,-0.048074,0.545616,-0.069301,0.036268,188.571158,0
0.032292,-87.153322,181.074140,-103.442435,0.858318,-1.525604,-3.360353,4.968525,1.617460,3.273133,-4.891097,-0.029809,0.552345,-0.058098,48.974637,188.571116,0
0.033333,-135.234182,175.568873,-23.764254,2.441718,0.391546,-4.476636,4.020384,-0.301282,4.417320,-4.061193,-0.073645,0.553259,-0.046895,82.045077,188.495664,0
0.034375,-171.053798,148.812088,48.693018,3.878088,2.411654,-5.074781,2.511978,-2.333972,5.078047,-2.587925,-0.084604,0.553194,-0.058098,105.151406,188.721871,0
0.035417,-174.172986,84.299823,113.314835,5.133498,3.984428,-4.659508,0.439388,-3.918220,4.655020,-0.593111,-0.132093,0.537712,-0.043161,113.328536,188.495747,0
0.036458,-178.675959,0.288256,152.787562,5.913888,4.868447,-3.771816,-1.174803,-4.811427,3.861342,1.089537,-0.175929,0.563515,-0.046895,121.980686,188.571190,0
0.037500,-136.016814,-72.996920,163.908471,6.207948,5.049511,-2.000240,-3.212131,-5.006242,2.137005,2.966337,-0.183235,0.562078,-0.058098,97.132616,188.495709,0
0.038542,-53.953823,-125.326560,184.531198,6.603798,4.708684,-0.015313,-4.755799,-4.741588,0.114535,4.706088,-0.227071,0.555088,-0.031958,52.243227,188.721963,0
0.039583,16.040747,-165.189433,153.638471,5.981748,3.586796,1.520053,-5.092741,-3.631512,-1.303612,4.961150,-0.289172,0.569002,-0.031958,7.670518,188.495604,0
0.040625,86.647813,-180.947522,103.990290,5.009088,1.627043,3.535459,-5.073152,-1.657634,-3.410688,4.949729,-0.234377,0.559138,-0.035692,-43.903081,188.571058,0
0.041667,134.989550,-175.217308,25.434836,3.482238,-0.318510,4.636503,-4.128928,0.261108,-4.550845,4.104598,-0.219765,0.558616,-0.054364,-76.724700,188.495711,0
0.042708,171.444347,-148.792023,-47.365163,2.034558,-2.292464,5.227028,-2.632276,2.282770,-5.207544,2.650364,-0.190541,0.566389,-0.043161,-100.634039,188.721895,0
0.043750,174.109834,-85.297937,-112.861526,0.733908,-3.851036,4.762227,-0.540097,3.878046,-4.796603,0.644130,-0.164970,0.554827,-0.043161,-108.053399,188.495687,0
0.044792,178.431327,-1.570512,-152.972435,-0.057792,-4.735056,3.939302,1.101520,4.730820,-3.930406,-1.046132,-0.095563,0.563188,-0.039427,-115.789439,188.571047,0
0.045833,136.464075,72.069842,-164.270617,-0.317922,-4.944522,2.114388,3.068325,4.944013,-2.270530,-2.968614,-0.077298,0.559922,-0.046895,-92.219400,188.495665,0
0.046875,55.092977,125.524214,-184.184253,-0.736392,-4.632098,0.140891,4.651172,4.675684,-0.227916,-4.620807,-0.048074,0.567108,-0.013287,-46.877611,188.646464,0
0.047917,-15.264554,165.659391,-153.622435,-0.170892,-3.510210,-1.322088,4.933264,3.606040,1.210375,-4.883483,-0.026156,0.566389,-0.028224,-1.920362,188.495698,0
0.048958,-86.699622,180.849194,-104.056981,0.813078,-1.571758,-3.329874,4.917592,1.624811,3.248961,-4.879676,-0.037115,0.557048,-0.017021,48.058527,188.571038,0
0.050000,-135.495059,175.509676,-24.485163,2.385168,0.363144,-4.453777,4.000794,-0.260849,4.393147,-4.061193,-0.059033,0.552802,-0.035692,82.463547,188.495810,0
0.051042,-171.246621,149.037035,48.137563,3.866778,2.315797,-5.040493,2.508060,-2.267808,5.057903,-2.603152,-0.062686,0.557636,-0.050629,104.981756,188.646473,0
0.052083,-174.399836,84.595805,113.125744,5.133498,3.970226,-4.579502,0.443306,-3.848381,4.638905,-0.615952,-0.099216,0.553520,-0.028224,112.457666,188.495727,0
0.053125,-178.437766,0.465845,152.456653,5.891268,4.758388,-3.775625,-1.202228,-4.737912,3.812996,1.062889,-0.157664,0.525235,-0.005818,120.962786,188.571042,0
0.054167,-135.733252,-73.044277,163.967562,6.174018,4.939452,-1.946902,-3.180787,-4.929051,2.108803,2.966337,-0.194194,0.531049,-0.054364,97.573706,188.495769,0
0.055208,-53.636233,-125.409435,184.294835,6.569868,4.690933,-0.000073,-4.728373,-4.708506,0.094390,4.580460,-0.223418,0.566193,-0.017021,52.017027,188.646536,0
0.056250,16.846065,-165.284148,153.815744,5.970438,3.569045,1.459096,-5.049644,-3.649890,-1.267353,4.873591,-0.267254,0.544636,-0.031958,6.426418,188.495743,0
0.057292,86.886006,-180.758093,104.002108,5.009088,1.630593,3.455452,-4.971285,-1.687040,-3.322053,4.923081,-0.248989,0.560249,-0.050629,-45.215041,188.571111,0
0.058333,134.819413,-175.394897,24.808472,3.470928,-0.297208,4.571735,-4.070159,0.279487,-4.474297,4.066529,-0.212459,0.551495,-0.050629,-76.905660,188.495721,0
0.059375,171.172127,-148.401327,-47.790618,2.011938,-2.221459,5.169880,-2.628358,2.227634,-5.155169,2.688433,-0.183235,0.557832,-0.058098,-101.685869,188.571087,0
0.060417,173.871642,-84.895401,-113.227890,0.745218,-3.826185,4.739368,-0.614537,3.815558,-4.808690,0.701234,-0.143052,0.559008,-0.035692,-108.279599,188.495707,0
0.061458,178.193135,-1.227173,-152.925162,-0.057792,-4.752807,3.969781,0.995735,4.701414,-3.990838,-0.973801,-0.091910,0.565932,-0.054364,-116.094809,188.571029,0
0.062500,136.543473,72.496056,-163.880617,-0.283992,-4.905469,2.175346,3.017392,4.921959,-2.339020,-2.877249,-0.066339,0.559008,-0.031958,-94.571879,188.495683,0
0.063542,55.240429,125.725482,-183.687889,-0.725082,-4.692452,0.236137,4.651172,4.657305,-0.284319,-4.590352,-0.044421,0.567239,-0.039427,-47.556211,188.646580,0
0.064583,-15.355294,165.339730,-153.728799,-0.114342,-3.620268,-1.238272,4.948935,3.661177,1.133827,-4.841607,-0.069992,0.568480,-0.046895,-1.354862,188.495562,0
0.065625,-86.450087,180.967587,-104.151526,0.847008,-1.642763,-3.318445,4.945018,1.720381,3.188528,-4.925359,-0.018850,0.562470,-0.054364,48.160317,188.495624,0
0.066667,-135.324922,175.272891,-25.536982,2.385168,0.267286,-4.419489,4.047810,-0.220415,4.364945,-4.095455,-0.059033,0.559138,-0.058098,82.090317,188.495635,0
0.067708,-171.927171,148.563463,47.003018,3.855468,2.283844,-5.051922,2.582501,-2.197969,5.037759,-2.656449,-0.091910,0.562274,-0.046895,105.603806,188.646473,0
0.068750,-173.934793,86.087555,113.137563,5.144808,3.895671,-4.598551,0.502075,-3.833678,4.650992,-0.669249,-0.110175,0.554827,-0.054364,113.011856,188.495754,0
0.069792,-178.312999,1.922077,152.917562,5.959128,4.761938,-3.806104,-1.135623,-4.730561,3.913717,0.952489,-0.139399,0.558289,-0.050629,121.844966,188.495779,0
0.070833,-136.924214,-72.464152,163.353017,6.162708,4.960754,-2.068817,-3.114182,-4.980512,2.209524,2.882585,-0.212459,0.546465,-0.031958,97.268336,188.491250,0
0.071875,-55.076731,-125.610703,183.975744,6.603798,4.712235,-0.099129,-4.689194,-4.759967,0.227342,4.595688,-0.259948,0.565997,-0.031958,51.903927,188.570980,0
0.072917,15.802555,-164.763219,153.922108,6.004368,3.643601,1.348610,-4.994793,-3.701351,-1.231093,4.873591,-0.230724,0.551169,-0.043161,7.240738,188.495660,0
0.073958,86.579758,-180.947522,103.647563,4.975158,1.694498,3.421164,-5.006547,-1.723797,-3.305938,4.949729,-0.241683,0.554696,-0.050629,-44.174521,188.495682,0
0.075000,134.785385,-175.371219,24.548472,3.436998,-0.236853,4.567926,-4.132846,0.143484,-4.470269,4.100792,-0.212459,0.556721,-0.039427,-76.713390,188.495785,0
0.076042,171.364949,-148.010631,-47.873345,2.045868,-2.210808,5.185120,-2.683209,2.194552,-5.122938,2.764571,-0.143052,0.558028,-0.031958,-100.656659,188.495687,0
0.077083,173.712847,-84.919080,-113.393344,0.745218,-3.787131,4.853664,-0.657635,3.815558,-4.804661,0.743109,-0.154011,0.538561,-0.046895,-107.420039,188.495756,0
0.078125,178.079710,-0.268191,-152.913344,-0.103032,-4.713754,4.015499,0.968310,4.701414,-4.010982,-0.947152,-0.099216,0.551430,-0.009553,-115.698959,188.495691,0
0.079167,136.532130,73.289288,-163.715162,-0.329232,-4.926771,2.266782,2.966459,4.991798,-2.326934,-2.842987,-0.059033,0.555741,-0.054364,-92.456910,188.495767,0
0.080208,54.695989,126.033304,-183.723344,-0.725082,-4.667600,0.236137,4.651172,4.705090,-0.328636,-4.548476,-0.051727,0.557375,-0.031958,-47.205601,188.571167,0
0.081250,-15.911076,165.351570,-153.858799,-0.125652,-3.588316,-1.230652,4.948935,3.661177,1.093539,-4.875869,-0.026156,0.565214,-0.035692,-2.395381,188.495689,0
0.082292,-86.824390,180.718962,-104.056981,0.858318,-1.674716,-3.310825,4.995951,1.713029,3.208672,-4.948200,-0.033462,0.559988,-0.043161,47.560887,188.495805,0
0.083334,-135.438347,175.403123,-25.312436,2.396478,0.242434,-4.446157,4.130086,-0.146900,4.381060,-4.152559,-0.073645,0.559792,-0.046895,82.520097,188.495702,0
0.084375,-171.779718,148.563463,46.979381,3.855468,2.273193,-5.090020,2.660859,-2.223699,5.106249,-2.744007,-0.073645,0.567565,-0.043161,105.660356,188.420301,0
0.085417,-174.116273,86.300663,112.995744,5.156118,3.849517,-4.617600,0.513829,-3.815299,4.691280,-0.692090,-0.106522,0.556852,-0.020755,112.197536,188.495727,0
0.086458,-178.233601,2.383809,152.941199,5.913888,4.783240,-3.840393,-1.119951,-4.730561,3.917745,1.021013,-0.143052,0.560771,-0.009553,120.804446,188.495705,0
0.087500,-136.833474,-71.848509,163.719380,6.140088,4.974955,-2.042148,-3.102428,-5.013594,2.245783,2.894006,-0.212459,0.561098,-0.039427,97.913006,188.495707,0
0.088542,-56.029501,-125.456792,183.609380,6.592488,4.740637,-0.125798,-4.689194,-4.759967,0.207197,4.584267,-0.248989,0.568610,-0.020755,52.695627,188.420345,0
0.089583,14.804415,-165.000005,153.898471,5.981748,3.611648,1.344800,-4.959531,-3.730757,-1.202891,4.877398,-0.245336,0.564495,-0.039427,7.138948,188.495781,0
0.090625,85.921893,-180.616022,104.380290,4.975158,1.722900,3.394495,-5.045726,-1.760555,-3.253563,4.911660,-0.270907,0.556133,-0.058098,-44.909671,188.495721,0
0.091667,134.751358,-175.359379,25.434836,3.436998,-0.201350,4.491729,-4.144600,0.121429,-4.438038,4.127440,-0.194194,0.555088,-0.039427,-76.871730,188.495651,0
0.092708,171.376292,-148.057988,-47.554254,2.045868,-2.196607,5.143212,-2.663619,2.154119,-5.122938,2.680819,-0.190541,0.554370,-0.028224,-101.629319,188.420361,0
0.093750,173.656134,-85.108508,-113.369708,0.699978,-3.797782,4.750798,-0.677224,3.760422,-4.748257,0.804020,-0.143052,0.542676,-0.050629,-107.849819,188.495814,0
0.094792,178.113737,-0.540494,-152.866071,-0.057792,-4.642749,3.969781,0.944802,4.649953,-3.994867,-0.912890,-0.106522,0.523667,-0.050629,-116.026949,188.495673,0
0.095833,136.520788,73.632627,-163.348798,-0.295302,-4.898369,2.209634,2.939033,4.874174,-2.355135,-2.797304,-0.106522,0.540521,-0.065566,-94.526639,188.495763,0
0.096875,54.333029,126.305607,-183.546071,-0.713772,-4.642749,0.274235,4.557142,4.653629,-0.344752,-4.498986,-0.044421,0.550646,-0.065566,-46.979401,188.420428,0
0.097917,-16.784449,164.854320,-153.823344,-0.125652,-3.595416,-1.173504,4.870577,3.686907,1.053251,-4.795924,-0.026156,0.539149,-0.065566,-0.698882,188.495729,0
0.098958,-87.107952,180.861033,-103.454254,0.858318,-1.656965,-3.230818,4.937182,1.731408,3.128096,-4.887290,-0.048074,0.551691,-0.024490,48.329967,188.495765,0
0.100000,-135.064044,175.462319,-24.910618,2.396478,0.224683,-4.389010,4.094825,-0.154252,4.312570,-4.091648,-0.059033,0.553912,-0.031958,82.101627,188.495689,0
0.101042,-171.836431,148.089892,46.979381,3.866778,2.170235,-5.051922,2.668695,-2.102400,5.017615,-2.709745,-0.073645,0.559008,-0.035692,105.784766,188.420263,0
0.102083,-173.651231,86.158591,113.433017,5.144808,3.810464,-4.667128,0.647039,-3.745460,4.683222,-0.741580,-0.095563,0.556525,-0.035692,112.751726,188.495765,0
0.103125,-178.063463,1.803684,153.059380,5.925198,4.733536,-3.859442,-1.025921,-4.690128,3.949976,0.910613,-0.172276,0.561621,-0.046895,121.731866,188.495723,0
0.104167,-137.445969,-72.239205,163.175744,6.128778,4.967855,-2.087866,-3.016234,-4.969485,2.278014,2.852130,-0.183235,0.559596,-0.039427,97.652876,188.495711,0
0.105208,-55.779966,-125.918524,183.526653,6.547248,4.758388,-0.182946,-4.638260,-4.774670,0.279716,4.534778,-0.241683,0.566847,-0.069301,52.650387,188.420352,0
0.106250,14.963210,-164.881612,154.016653,5.981748,3.693305,1.299082,-4.967367,-3.763839,-1.146488,4.858364,-0.238030,0.568937,-0.024490,8.496148,188.495700,0
0.107292,86.126058,-180.769933,104.297563,4.986468,1.758403,3.413544,-5.057480,-1.812015,-3.249535,4.923081,-0.241683,0.562797,-0.054364,-43.461991,188.495703,0
0.108333,135.012235,-175.098915,26.061200,3.482238,-0.151647,4.541257,-4.164190,0.055266,-4.466240,4.146474,-0.197847,0.563580,-0.028224,-76.815180,188.495702,0
0.109375,172.022814,-147.939595,-46.443345,2.023248,-2.168205,5.147021,-2.710635,2.113686,-5.163226,2.764571,-0.161317,0.563123,-0.080503,-100.950719,188.269539,0
0.110417,173.599422,-86.233240,-113.227890,0.688668,-3.797782,4.800326,-0.665471,3.753070,-4.812719,0.781178,-0.124787,0.555676,-0.065566,-107.216459,188.495678,0
0.111458,177.943600,-1.641548,-153.066980,-0.103032,-4.688902,3.985020,0.917377,4.679359,-4.055300,-0.905277,-0.099216,0.559008,-0.058098,-115.631099,188.495767,0
0.112500,137.076570,72.851235,-163.466980,-0.317922,-4.887718,2.243923,2.939033,4.936662,-2.387366,-2.793497,-0.029809,0.561163,-0.039427,-92.536080,188.495828,0
0.113542,55.399224,126.151696,-183.534253,-0.725082,-4.642749,0.300904,4.561060,4.664656,-0.320579,-4.533248,-0.069992,0.577037,-0.050629,-46.854991,188.344961,0
0.114583,-16.081214,165.150302,-153.929708,-0.159582,-3.602517,-1.200173,4.866659,3.697934,1.057280,-4.803538,-0.059033,0.541827,-0.028224,-1.682852,188.495756,0
0.115625,-87.153322,180.742640,-103.513344,0.858318,-1.656965,-3.242248,4.925428,1.764490,3.120038,-4.906324,-0.037115,0.552214,-0.024490,48.103767,188.495682,0
0.116667,-135.279552,175.557033,-24.284254,2.407788,0.231783,-4.392820,4.079153,-0.165279,4.324657,-4.122104,-0.088257,0.551822,-0.050629,82.520097,188.495622,0
0.117708,-171.711663,148.231963,47.924836,3.832848,2.216389,-5.025253,2.641270,-2.164887,5.045817,-2.747814,-0.073645,0.556656,-0.046895,105.502016,188.344860,0
0.118750,-173.855396,85.152252,113.645744,5.144808,3.831766,-4.621410,0.615695,-3.796920,4.751712,-0.783456,-0.117481,0.563450,-0.050629,111.971336,188.495703,0
0.119792,-178.188231,0.785506,152.799380,5.936508,4.719335,-3.848012,-1.072936,-4.697479,3.929832,0.948682,-0.161317,0.542480,-0.069301,120.793136,188.495727,0
0.120833,-136.311719,-73.032437,163.412108,6.162708,4.989156,-2.084056,-3.106346,-4.936403,2.286071,2.859743,-0.186888,0.536013,-0.069301,97.935626,188.495729,0
0.121875,-54.827196,-125.930364,183.526653,6.660348,4.740637,-0.190565,-4.700947,-4.741588,0.247486,4.546198,-0.194194,0.570113,-0.035692,52.695627,188.344923,0
0.122917,15.938665,-165.094719,153.933926,5.959128,3.682654,1.318132,-5.006547,-3.767514,-1.126344,4.869784,-0.230724,0.571681,-0.054364,7.297288,188.495669,0
0.123958,86.466333,-180.616022,104.380290,5.009088,1.758403,3.402114,-5.073152,-1.797312,-3.273707,4.938309,-0.238030,0.555872,-0.035692,-44.773951,188.495694,0
0.125000,135.057605,-175.087076,25.659382,3.482238,-0.158747,4.548876,-4.203369,0.106726,-4.450124,4.176929,-0.183235,0.562666,-0.013287,-77.120550,188.495709,0
0.126042,171.739252,-148.046148,-46.667890,2.045868,-2.175305,5.173690,-2.734142,2.121037,-5.143082,2.783606,-0.190541,0.564168,-0.054364,-102.059099,188.344853,0
0.127083,173.565394,-85.889901,-113.381526,0.677358,-3.769380,4.788896,-0.681142,3.753070,-4.796603,0.750723,-0.146705,0.557832,-0.009553,-108.019469,188.495743,0
