1-Time,2-VGERA,3-VGERB,4-VGERC,5-VN,6-IGERAN,7-IGERBN,8-IGERCN,9-IGERAT,10-IGERBT,11-IGERCT,12-IN,13-IFD,14-IFAULT,15-VFAULT,16-Speed (rad/s),17-Active Power,18-Reactive Power,19-FAULT 
0.000000,159.156550,-157.819109,-10.724911,0.145379,-3.395879,3.724509,0.222949,3.777262,-3.655414,-0.448418,-0.039302,0.418243,-0.007290,8.371404,188.496101,1192.284124,11.983969,0
0.001042,183.338390,-107.879326,-74.654856,-1.104403,-3.979325,2.637065,1.719140,4.210223,-2.512267,-1.903014,-0.057533,0.422722,0.000144,-2.661754,188.366415,1192.060004,12.257635,0
0.002083,184.400583,-31.137430,-130.236602,-2.151518,-3.953639,1.091751,3.153473,4.331756,-1.058529,-3.365225,-0.112226,0.421895,-0.018440,-7.694225,188.511877,1192.656280,12.642028,0
0.003125,154.444481,37.159804,-167.651600,-2.939669,-3.476607,-0.351359,3.915100,3.758272,0.395208,-4.020174,-0.086703,0.430025,-0.018440,-16.543269,188.423840,1192.831989,12.853967,0
0.004167,85.548836,90.787520,-190.423832,-3.378782,-2.151928,-2.203283,4.278515,2.383431,2.293263,-4.427613,-0.064826,0.430852,-0.011006,-22.262498,188.495618,1192.913759,12.886297,0
0.005208,15.240701,141.984019,-176.996235,-3.097299,-0.647444,-3.360225,3.872572,0.940226,3.363076,-3.871668,-0.097641,0.421895,-0.025873,-23.838663,188.495769,1193.068671,13.039263,0
0.006250,-50.660464,179.297916,-128.705492,-2.185296,1.007489,-4.042943,2.809387,-0.856183,4.092102,-2.854974,-0.075764,0.424720,-0.033307,-24.615487,188.495696,1192.863953,13.017411,0
0.007303,-104.176910,189.269429,-52.137808,-0.654031,2.728471,-4.181939,1.274535,-2.542453,4.079161,-1.198563,-0.017425,0.415832,-0.007290,-14.854520,188.495736,1191.609528,12.695800,0
0.008343,-159.207546,157.311257,13.213882,0.561974,3.807296,-3.687275,-0.337640,-3.723602,3.652098,0.370268,0.000805,0.409011,-0.011006,-7.288926,188.495731,1191.427736,12.965034,0
0.009377,-183.411987,106.408383,75.260318,1.755459,4.332031,-2.612097,-1.857027,-4.160361,2.448559,1.859134,0.051852,0.408804,-0.011006,2.832308,188.495609,1190.736658,13.080047,0
0.010417,-183.965683,29.443332,129.699807,2.870130,4.317353,-1.034077,-3.264297,-4.213531,0.960311,3.256612,0.051852,0.402259,0.011294,9.136970,188.495611,1190.215213,13.202189,0
0.011458,-154.133880,-37.914301,167.722388,3.624503,3.818305,0.376328,-3.991129,-3.674229,-0.463230,3.892521,0.073729,0.425960,-0.029590,16.544947,188.420424,1190.159089,13.957616,0
0.012500,-85.385134,-90.790336,190.470317,4.108653,2.412897,2.248693,-4.308152,-2.231025,-2.365599,4.288537,0.073729,0.427269,-0.011006,22.703251,188.495698,1189.623554,13.576208,0
0.013542,-15.630695,-142.080795,177.504483,3.793393,1.007489,3.385194,-3.921539,-0.795416,-3.409529,3.797325,0.033621,0.426925,-0.018440,24.909883,188.495617,1189.599775,14.030712,0
0.014583,50.236569,-179.206772,129.383863,2.892649,-0.662122,4.088352,-2.889283,0.909843,-4.155810,2.742553,0.015390,0.426580,0.022444,24.853591,188.495716,1189.611360,14.749223,0
0.015625,103.176720,-190.376277,55.076391,1.462718,-2.324393,4.235525,-1.366029,2.611305,-4.168751,1.173722,0.022683,0.419552,-0.025873,15.374082,188.495589,1190.458417,14.715617,0
0.016667,158.930551,-157.795619,-10.153783,0.167898,-3.395879,3.691804,0.172689,3.762070,-3.685610,-0.406532,-0.046595,0.417072,-0.025873,8.022396,188.495776,1190.509301,15.291122,0
0.017708,183.666088,-108.172951,-74.071576,-1.048106,-3.971986,2.620713,1.715274,4.255798,-2.516581,-1.906822,-0.061180,0.421619,0.000144,-2.324005,188.495571,1191.142802,15.040633,0
0.018750,184.084185,-31.102195,-129.835597,-2.162777,-3.979325,1.099928,3.145740,4.289979,-1.015392,-3.353802,-0.061180,0.420862,0.007577,-7.728000,188.495604,1190.302054,14.478034,0
0.019792,154.591380,37.042354,-167.785268,-2.928410,-3.513302,-0.351359,3.938296,3.777262,0.386581,-3.993519,-0.108580,0.432230,0.003860,-16.306844,188.420316,1190.231768,14.774877,0
0.020833,85.548836,90.693560,-190.314467,-3.412560,-2.093216,-2.235988,4.297846,2.417612,2.310519,-4.419997,-0.119518,0.417417,-0.014723,-22.239981,188.495774,1190.403982,14.929074,0
0.021875,15.082502,141.866569,-177.360785,-3.119818,-0.698816,-3.384754,3.903501,0.887056,3.376018,-3.856437,-0.079410,0.419759,-0.011006,-23.545947,188.495696,1190.341282,14.138913,0
0.022917,-50.513565,179.297916,-128.778402,-2.185296,1.062531,-4.132882,2.875112,-0.878970,4.169750,-2.874013,-0.053887,0.417485,-0.037023,-24.863171,188.495698,1191.434602,13.797473,0
0.023958,-102.741820,190.479165,-53.474492,-0.744105,2.754158,-4.239173,1.243606,-2.527261,4.156808,-1.240449,-0.064826,0.411629,0.000144,-14.437962,188.495682,1192.576979,13.833196,0
0.025000,-158.405252,157.734077,11.670620,0.561974,3.847661,-3.695452,-0.356970,-3.708410,3.665040,0.339805,-0.017425,0.408735,-0.022156,-6.433293,188.495573,1192.414982,13.764759,0
0.026042,-183.344187,107.019124,74.689189,1.755459,4.346709,-2.587568,-1.806768,-4.221127,2.431304,1.881981,0.022683,0.413489,-0.044457,2.348200,188.495714,1193.116499,13.003006,0
0.027083,-184.315981,30.007093,129.614745,2.847611,4.357717,-1.038166,-3.287494,-4.259106,0.955997,3.340384,0.070083,0.415350,-0.018440,8.731670,188.495749,1194.437992,12.250636,0
0.028125,-154.337279,-37.526716,167.722388,3.568207,3.821974,0.409033,-4.018192,-3.678027,-0.536564,3.942023,0.062790,0.426305,-0.003573,16.252231,188.495660,1195.185009,11.112736,0
0.029167,-85.690232,-90.391006,190.980687,4.108653,2.401888,2.277310,-4.319750,-2.272802,-2.417364,4.338039,0.088314,0.427958,0.007577,22.984709,188.495550,1196.443938,10.876790,0
0.030208,-16.127892,-141.810660,177.516635,3.815911,1.000150,3.430163,-3.917673,-0.787821,-3.405215,3.724976,0.062790,0.428165,-0.025873,24.380741,188.495669,1195.598749,10.291187,0
0.031250,49.615074,-179.606103,129.639048,2.870130,-0.680469,4.145586,-2.869952,0.955418,-4.186006,2.719706,0.015390,0.425064,0.000144,24.741008,188.420361,1196.005969,9.317918,0
0.032292,102.939421,-190.164867,55.453093,1.496495,-2.357418,4.235525,-1.389226,2.630294,-4.190320,1.124220,0.008098,0.418106,0.003860,15.407857,188.495579,1196.120994,8.506860,0
0.033333,158.828852,-158.159714,-9.789233,0.167898,-3.436243,3.724509,0.222949,3.800049,-3.702865,-0.425571,-0.028364,0.420999,0.003860,8.562795,188.495696,1196.728218,8.010760,0
0.034375,183.451389,-108.231676,-73.925756,-1.070625,-3.986664,2.612537,1.757801,4.270990,-2.555404,-1.914437,-0.068472,0.420862,-0.025873,-2.492880,188.495636,1197.129265,8.214575,0
0.035417,184.411883,-31.019980,-129.410289,-2.162777,-4.012350,1.083575,3.165071,4.350746,-1.024019,-3.365225,-0.075764,0.411216,0.003860,-7.547867,188.495618,1197.922207,8.333559,0
0.036458,154.455781,37.124569,-167.445021,-2.928410,-3.535319,-0.347271,3.957627,3.781060,0.425405,-4.027790,-0.072118,0.448146,-0.025873,-16.475719,188.495553,1198.290588,7.797018,0
0.037500,85.594036,90.364699,-190.411681,-3.401300,-2.096885,-2.235988,4.317177,2.387229,2.314832,-4.431421,-0.083057,0.411284,-0.007290,-22.273756,188.495656,1198.261838,7.367043,0
0.038542,15.026002,141.549453,-177.628122,-3.108558,-0.706155,-3.425635,3.876438,0.928833,3.371704,-3.917362,-0.090349,0.429612,-0.033307,-23.939988,188.495618,1198.918930,8.099514,0
0.039583,-50.310166,178.980800,-129.082194,-2.174036,1.047853,-4.104265,2.813254,-0.863779,4.130926,-2.862590,-0.042949,0.391441,-0.059323,-24.671779,188.495651,1198.306102,8.132770,0
0.040625,-102.414122,190.608360,-53.839043,-0.721587,2.724802,-4.243261,1.278401,-2.565240,4.122298,-1.263296,-0.061180,0.409700,-0.022156,-15.181011,188.493753,1198.288658,7.792672,0
0.041667,-157.930655,157.851527,11.160249,0.528196,3.821974,-3.662747,-0.310577,-3.723602,3.639157,0.374076,0.022683,0.407839,0.000144,-7.660451,188.495586,1198.107513,6.925145,0
0.042708,-183.694485,107.465434,74.239577,1.777978,4.379734,-2.587568,-1.841563,-4.183148,2.487383,1.912444,0.037267,0.412938,0.000144,2.719725,188.495642,1198.299558,7.000729,0
0.043750,-184.135182,30.265483,129.274498,2.836352,4.346709,-1.017725,-3.310691,-4.243915,0.955997,3.348000,0.073729,0.417968,0.018727,9.035645,188.420267,1198.092044,6.779602,0
0.044792,-154.597177,-36.833760,167.770994,3.601985,3.899033,0.392681,-4.025924,-3.689420,-0.506368,3.968678,0.088314,0.419001,0.003860,16.499914,188.495709,1198.471016,6.873840,0
0.045833,-86.605526,-90.156106,190.348800,4.086135,2.423905,2.228252,-4.300419,-2.269004,-2.361285,4.311384,0.062790,0.433195,0.018727,22.669476,188.495712,1197.732437,7.119748,0
0.046875,-16.805887,-141.798915,177.893337,3.815911,0.992811,3.438339,-3.979531,-0.825800,-3.431098,3.793518,0.077375,0.429198,-0.022156,24.909883,188.495693,1198.876697,7.478848,0
0.047917,49.264776,-178.842677,130.076509,2.903908,-0.662122,4.121058,-2.920212,0.921237,-4.207575,2.773016,0.029975,0.426787,0.003860,24.853591,188.495772,1199.296292,8.023036,0
0.048958,102.476124,-190.528962,55.866250,1.462718,-2.375765,4.272318,-1.373761,2.626497,-4.194634,1.207993,0.033621,0.419208,-0.003573,15.464148,188.495721,1199.717629,8.749535,0
0.050000,158.422055,-158.077499,-9.315317,0.212935,-3.432574,3.720421,0.203618,3.853220,-3.737375,-0.414148,-0.010133,0.416590,-0.025873,8.180012,188.495598,1200.457362,8.608855,0
0.051042,183.993786,-108.454831,-73.391082,-1.070625,-4.067392,2.628889,1.761667,4.331756,-2.568346,-1.944900,-0.017425,0.420241,-0.025873,-2.188905,188.495662,1201.502349,8.168124,0
0.052083,184.242384,-31.031725,-128.984980,-2.174036,-4.030698,1.083575,3.234661,4.419108,-1.006764,-3.399496,-0.061180,0.416452,-0.011006,-7.615417,188.420282,1202.378830,7.840814,0
0.053125,154.749579,36.936648,-167.530083,-2.894632,-3.494955,-0.408593,4.019485,3.841826,0.468542,-4.062060,-0.097641,0.414109,-0.018440,-16.239294,188.495645,1203.473125,7.551290,0
0.054167,85.560136,90.212014,-190.545349,-3.378782,-2.115233,-2.264605,4.309444,2.398622,2.401108,-4.431421,-0.126811,0.427476,-0.014723,-22.251239,188.495598,1204.076717,6.796795,0
0.055208,15.252001,141.396768,-177.834700,-3.108558,-0.577724,-3.437899,3.922832,0.890854,3.488175,-3.913554,-0.083057,0.392061,-0.044457,-23.636013,188.495613,1205.098878,5.458269,0
0.056250,-49.892069,179.156976,-129.142952,-2.185296,1.058861,-4.177851,2.832584,-0.894162,4.152495,-2.851166,-0.083057,0.435813,-0.011006,-24.919462,188.420242,1205.372858,4.852276,0
0.057292,-102.029924,190.725811,-54.167138,-0.755365,2.805530,-4.296407,1.247472,-2.610815,4.208574,-1.198563,-0.042949,0.410940,0.003860,-14.482995,188.495671,1206.402284,3.721284,0
0.058333,-158.066254,158.109918,10.710638,0.528196,3.906372,-3.703628,-0.349238,-3.784368,3.712491,0.396923,0.022683,0.410320,-0.007290,-6.512101,188.495702,1207.812410,3.417135,0
0.059375,-183.728384,107.782549,73.814269,1.755459,4.427437,-2.628449,-1.899555,-4.274298,2.483069,1.923867,0.026329,0.413834,-0.007290,2.179325,188.495627,1208.889905,2.949232,0
0.060417,-184.632378,30.911458,129.238043,2.847611,4.401751,-1.013637,-3.326155,-4.323671,0.943056,3.389886,0.066437,0.416452,-0.022156,8.619087,188.420287,1210.271567,2.505515,0
0.061458,-154.970074,-36.293489,167.673781,3.613244,3.895364,0.433562,-4.095515,-3.742591,-0.553819,4.025796,0.059144,0.434435,0.003860,16.195939,188.495763,1211.509047,1.896894,0
0.062500,-86.820225,-89.474895,191.090052,4.108653,2.438583,2.314103,-4.397072,-2.272802,-2.451874,4.398964,0.051852,0.431748,0.007577,22.928417,188.495655,1213.236858,0.859521,0
0.063542,-17.178785,-141.575760,177.747517,3.793393,0.989141,3.507838,-3.994995,-0.765033,-3.465608,3.808749,0.066437,0.427131,-0.025873,24.403258,188.495636,1213.563753,-0.114392,0
0.064583,48.857979,-179.570868,130.125115,2.892649,-0.676799,4.182379,-2.924078,1.012387,-4.246399,2.792055,0.037267,0.426511,-0.011006,24.819816,188.344927,1214.597077,-1.147744,0
0.065625,102.103227,-190.493727,56.072828,1.485236,-2.383104,4.305023,-1.362163,2.679667,-4.242085,1.143260,0.026329,0.419552,-0.037023,15.497923,188.495732,1215.190184,-2.385400,0
0.066667,158.410755,-158.476829,-9.339621,0.190417,-3.513302,3.732685,0.230681,3.853220,-3.767571,-0.421763,-0.010133,0.418588,-0.033307,8.630345,188.495807,1215.576910,-2.340834,0
0.067708,183.654788,-108.231676,-73.281717,-1.025588,-4.078401,2.616625,1.796462,4.343150,-2.520894,-1.952516,-0.035656,0.419621,0.015011,-2.414071,188.495640,1215.285000,-2.877321,0
0.068750,184.739581,-30.796825,-128.790554,-2.140259,-4.008681,1.030429,3.246260,4.407714,-1.032647,-3.426151,-0.072118,0.416590,-0.007290,-7.469059,188.344934,1215.530014,-2.835262,0
0.069792,154.772179,36.983629,-167.262746,-2.928410,-3.502294,-0.457651,3.996288,3.796252,0.498739,-4.077291,-0.090349,0.412180,0.000144,-16.396910,188.495689,1215.272165,-3.573018,0
0.070833,85.763535,89.683489,-190.861293,-3.367522,-2.071199,-2.268693,4.305578,2.356845,2.383852,-4.461883,-0.083057,0.420999,-0.040740,-22.251239,188.495714,1215.319011,-3.990418,0
0.071875,15.387600,141.255828,-177.968369,-3.131077,-0.625427,-3.470604,3.918966,0.841481,3.423469,-3.898323,-0.079410,0.423549,-0.037023,-23.996280,188.495680,1214.484324,-4.275380,0
0.072917,-49.654770,179.156976,-129.361682,-2.174036,1.091886,-4.141058,2.817120,-0.882768,4.230142,-2.839743,-0.042949,0.404394,-0.037023,-24.728071,188.420182,1215.252614,-4.554314,0
0.073958,-101.860425,190.960711,-54.555991,-0.721587,2.761497,-4.284143,1.286134,-2.599422,4.182691,-1.202371,-0.021072,0.412731,-0.011006,-15.248561,188.495696,1214.961664,-4.607573,0
0.075000,-157.851555,158.250858,10.358239,0.483158,3.854999,-3.703628,-0.356970,-3.761581,3.695236,0.404538,-0.013779,0.410802,-0.025873,-7.739259,188.495617,1214.541120,-4.816488,0
0.076042,-184.044782,108.005705,73.486174,1.755459,4.409090,-2.591656,-1.868626,-4.266702,2.435618,1.950522,0.008098,0.411905,-0.007290,2.584625,188.495569,1214.345762,-5.643849,0
0.077083,-184.609779,31.510454,128.837038,2.825093,4.387073,-1.001372,-3.299092,-4.285692,0.917174,3.367039,0.040913,0.417761,-0.037023,8.878028,188.344957,1213.608991,-6.090465,0
0.078125,-155.173473,-35.694494,167.928966,3.590725,3.862338,0.474443,-4.091648,-3.719804,-0.536564,4.021988,0.124775,0.431334,-0.007290,16.477397,188.495571,1213.412457,-6.211233,0
0.079167,-87.520820,-89.322210,190.470317,4.108653,2.412897,2.232340,-4.362277,-2.276600,-2.447560,4.376117,0.044560,0.429819,-0.007290,22.658218,188.495721,1213.058833,-6.323740,0
0.080208,-17.449983,-141.411330,178.136370,3.804652,0.992811,3.450604,-4.029790,-0.787821,-3.465608,3.839212,0.048206,0.429061,-0.018440,24.909883,188.495606,1213.486720,-6.067510,0
0.081250,48.846679,-178.877912,130.477514,2.915167,-0.713494,4.182379,-2.908614,0.993397,-4.242085,2.753977,0.055498,0.425685,-0.011006,24.876108,188.344854,1212.957511,-6.285548,0
0.082292,101.922428,-190.940037,56.145738,1.507755,-2.401452,4.317288,-1.354431,2.679667,-4.220516,1.185146,0.019036,0.420862,-0.011006,15.520440,188.495745,1212.981651,-5.951581,0
0.083333,158.026557,-158.371124,-9.291014,0.212935,-3.472938,3.712244,0.265476,3.841826,-3.776199,-0.429379,-0.002841,0.415694,-0.037023,8.225046,188.495604,1212.838193,-5.976876,0
0.084375,184.140685,-108.302146,-73.014380,-1.036847,-4.060053,2.616625,1.819659,4.346948,-2.533836,-1.956324,-0.028364,0.418519,0.000144,-2.155130,188.495577,1213.097047,-5.958172,0
0.085417,184.536182,-30.761590,-128.413852,-2.140259,-4.005011,1.034518,3.253992,4.415310,-1.019705,-3.429958,-0.050241,0.403981,-0.029590,-7.592901,188.420289,1213.044317,-6.154630,0
0.086458,154.828678,36.783963,-167.287049,-2.883372,-3.505963,-0.445386,4.034949,3.792454,0.498739,-4.107754,-0.064826,0.388616,0.015011,-16.149227,188.420263,1213.350318,-6.367344,0
0.087500,85.820034,89.659999,-190.666866,-3.356263,-2.093216,-2.309575,4.336507,2.353047,2.414049,-4.461883,-0.083057,0.438569,-0.029590,-22.262498,188.495653,1213.464634,-6.713315,0
0.088542,15.839597,141.150123,-178.235706,-3.131077,-0.588732,-3.486957,3.891903,0.845279,3.470920,-3.928786,-0.101287,0.391166,-0.014723,-23.681046,188.495658,1214.299780,-7.016660,0
0.089583,-49.134974,178.992545,-129.580412,-2.185296,1.102895,-4.161499,2.836450,-0.920747,4.178377,-2.835935,-0.064826,0.410595,-0.018440,-24.919462,188.344889,1213.765597,-7.537897,0
0.090625,-101.476228,191.066416,-54.896238,-0.777883,2.834886,-4.263702,1.224276,-2.614613,4.195632,-1.171908,-0.039302,0.410940,0.011294,-14.561804,188.495667,1213.886647,-8.164263,0
0.091667,-158.032354,158.368308,9.969386,0.494418,3.939397,-3.748597,-0.360836,-3.810953,3.686608,0.450232,0.019036,0.410940,-0.048173,-6.613426,188.495864,1214.371193,-9.129149,0
0.092708,-184.033482,108.146645,73.243140,1.777978,4.456793,-2.591656,-1.922751,-4.285692,2.396794,1.984793,0.022683,0.411216,-0.051890,2.044225,188.495631,1214.480557,-9.974471,0
0.093750,-184.756678,32.132939,128.909948,2.836352,4.383404,-0.968667,-3.360951,-4.308479,0.891291,3.393694,0.040913,0.417830,-0.051890,8.483987,188.344921,1214.987346,-10.569104,0
0.094792,-155.388172,-35.342144,167.758843,3.635763,3.884355,0.466267,-4.091648,-3.704612,-0.571074,4.033412,0.040913,0.417141,0.007577,16.184681,188.495687,1215.025999,-11.255987,0
0.095833,-87.441721,-88.887645,190.944232,4.086135,2.372532,2.293662,-4.377742,-2.257610,-2.430305,4.357078,0.059144,0.427889,-0.029590,22.917159,188.495589,1214.644607,-11.377309,0
0.096875,-17.427383,-141.117705,178.087763,3.827171,0.978133,3.466956,-3.991129,-0.772629,-3.517373,3.843020,0.019036,0.426374,-0.014723,24.425775,188.495698,1215.068030,-11.913052,0
0.097917,48.654580,-179.265497,130.380300,2.858871,-0.739181,4.223261,-2.931810,1.035174,-4.259340,2.780632,0.055498,0.424858,-0.011006,24.808558,188.269584,1215.670227,-12.208795,0
0.098958,101.673830,-190.716882,55.963463,1.485236,-2.423469,4.288671,-1.311903,2.656880,-4.246399,1.128028,0.022683,0.417968,-0.037023,15.531698,188.495631,1215.453330,-12.568807,0
0.100000,157.789259,-158.676495,-9.339621,0.212935,-3.454590,3.732685,0.265476,3.857018,-3.728748,-0.482689,-0.028364,0.415763,-0.063040,8.630345,188.495631,1215.175350,-13.629812,0
0.101042,183.812987,-108.196441,-72.819954,-1.025588,-4.056384,2.547127,1.811927,4.365937,-2.490698,-2.028673,-0.042949,0.416728,-0.011006,-2.402813,188.495645,1215.315768,-14.867693,0
0.102083,184.829980,-30.691120,-128.061453,-2.128999,-3.982995,0.989548,3.292653,4.362139,-1.002450,-3.452805,-0.061180,0.404532,-0.003573,-7.412767,188.269545,1214.870082,-15.460219,0
0.103125,154.839978,36.631278,-167.165533,-2.872113,-3.450921,-0.457651,4.077477,3.762070,0.559131,-4.069676,-0.086703,0.396678,-0.029590,-16.329360,188.495651,1214.255538,-16.252018,0
0.104167,86.317231,89.237178,-190.764079,-3.390041,-2.038174,-2.305487,4.290114,2.353047,2.392480,-4.477115,-0.104934,0.417279,-0.018440,-22.251239,188.495731,1214.340902,-16.253814,0
0.105208,16.257694,140.903478,-178.320767,-3.119818,-0.610749,-3.499221,3.926698,0.849077,3.466607,-3.875476,-0.090349,0.404463,0.000144,-24.030055,188.495678,1213.727905,-16.598764,0
0.106250,-48.875076,178.745900,-129.835597,-2.196555,1.091886,-4.194204,2.851915,-0.916949,4.208574,-2.828319,-0.046595,0.419139,-0.018440,-24.705554,188.269384,1213.956729,-16.838548,0
0.107292,-101.329329,191.007691,-55.260788,-0.744105,2.809200,-4.280055,1.255205,-2.629805,4.204260,-1.160485,-0.039302,0.411905,-0.029590,-15.271078,188.495579,1214.102602,-17.212114,0
0.108333,-157.535158,158.427033,9.276740,0.483158,3.851330,-3.744509,-0.345372,-3.795762,3.673667,0.442617,-0.006487,0.413007,-0.011006,-7.874359,188.495734,1213.698858,-17.383713,0
0.109375,-184.372480,108.957050,72.538343,1.744200,4.431107,-2.575303,-1.911153,-4.274298,2.491697,1.950522,0.037267,0.415763,-0.037023,2.381975,188.495607,1214.170255,-16.447594,0
0.110417,-184.519379,32.520525,128.569701,2.847611,4.368726,-1.058606,-3.345486,-4.312277,0.917174,3.374655,0.066437,0.420517,-0.040740,8.787962,188.269436,1214.007370,-16.140817,0
0.111458,-155.591570,-34.813618,168.050483,3.613244,3.880686,0.449915,-4.087782,-3.708410,-0.545192,4.048643,0.070083,0.430370,-0.011006,16.466139,188.495674,1214.258073,-16.035170,0
