1-Time,2-VGERA,3-VGERB,4-VGERC,5-VN,6-IGERAN,7-IGERBN,8-IGERCN,9-IGERAT,10-IGERBT,11-IGERCT,12-IN,13-IFD,14-IFAULT,15-VFAULT,16-Speed (rad/s),17-FAULT 
0.000000,79.161763,64.224978,-199.789205,-0.894732,-0.371764,-5.327333,5.128964,0.761010,5.297459,-4.996671,0.006721,0.319722,-0.013287,18.426328,188.495622,0
0.001042,27.632783,145.082468,-176.214394,-0.419712,2.092129,-6.375039,3.677461,-1.661310,6.405386,-3.634016,-0.048074,0.309858,-0.035692,4.990048,188.721797,0
0.002083,-19.654102,188.054244,-118.551516,0.654738,4.090936,-5.831343,1.188637,-3.627836,5.947946,-1.285837,-0.088257,0.306788,-0.046895,-13.320841,188.721842,0
0.003125,-86.881102,199.796883,-56.678409,1.830978,6.018737,-4.926506,-1.445710,-5.542902,5.104411,1.297160,-0.146705,0.297577,-0.054364,-39.028471,188.570931,0
0.004167,-150.070172,157.658689,-6.438826,2.735778,6.458971,-3.005712,-3.594979,-6.119994,3.236883,3.371384,-0.219765,0.302346,-0.061832,-54.466620,188.571002,0
0.005208,-201.032027,92.590940,42.594318,3.708438,6.089743,-0.505504,-5.419619,-5.719338,0.735654,5.214349,-0.230724,0.305089,-0.017021,-63.763440,188.721806,0
0.006254,-180.365991,39.616176,118.476894,5.156118,4.769039,1.871678,-6.262908,-4.473258,-1.589314,6.043327,-0.248989,0.310446,-0.043161,-49.467600,188.721886,0
0.007292,-135.098072,-7.475187,186.148296,6.366288,3.132361,3.824221,-6.382312,-2.811819,-3.654087,6.231893,-0.270907,0.325993,-0.028224,-28.645891,188.573973,0
0.008333,-77.954554,-63.941333,199.923864,6.694278,0.459001,5.530712,-5.236782,-0.143225,-5.328567,5.171655,-0.256295,0.260015,-0.043161,-12.189841,188.571024,0
0.009375,-26.516314,-144.617610,176.262879,6.309738,-1.969389,6.558575,-3.785279,2.275419,-6.390331,3.752074,-0.186888,0.331677,-0.020755,-0.450062,188.721806,0
0.010417,19.579608,-187.541062,118.390720,5.178738,-3.985947,6.006942,-1.359888,4.297081,-5.916104,1.467936,-0.154011,0.307245,-0.035692,17.702488,188.721677,0
0.011458,86.636471,-199.621966,56.911553,4.047738,-5.832092,5.121948,1.281922,6.164362,-5.097749,-1.107945,-0.066339,0.300909,-0.035692,43.398807,188.592909,0
0.012500,149.712116,-157.749552,7.028977,3.097698,-6.290078,3.153530,3.434922,6.712049,-3.213434,-3.192843,-0.059033,0.306200,-0.069301,58.531587,188.511730,0
0.013541,200.673971,-93.430819,-42.484280,2.113728,-5.927949,0.720789,5.311801,6.296689,-0.787746,-5.046481,-0.026156,0.309009,-0.035692,69.129057,188.730990,0
0.014583,180.767882,-40.999696,-117.911364,0.666048,-4.639198,-1.616707,6.069269,5.091043,1.566599,-5.804302,-0.004238,0.307376,-0.043161,53.362917,188.727355,0
0.015625,135.613388,7.094383,-186.419887,-0.600672,-2.945716,-3.628779,6.248375,3.356089,3.685929,-6.064025,0.017680,0.326581,-0.043161,31.704268,188.578070,0
0.016667,78.696720,64.430353,-199.813826,-0.872112,-0.272356,-5.307490,5.095382,0.761010,5.326836,-4.925514,-0.026156,0.323576,-0.028224,17.170918,188.501829,0
0.017708,26.986260,144.961659,-176.054357,-0.453642,2.116981,-6.347259,3.647610,-1.701743,6.396992,-3.555743,-0.040768,0.318024,-0.013287,4.967428,188.727692,0
0.018750,-20.085117,187.752221,-118.194508,0.654738,4.083835,-5.791658,1.136398,-3.580051,5.943750,-1.289395,-0.099216,0.306853,-0.054364,-12.970231,188.588831,0
0.019792,-86.733649,199.905611,-55.804356,1.819668,5.986784,-4.918569,-1.371082,-5.528199,5.087624,1.268697,-0.164970,0.299080,-0.020755,-38.576071,188.587519,0
0.020847,-150.421790,156.221062,-4.813826,2.803638,6.387966,-2.962057,-3.636024,-6.046479,3.186522,3.392732,-0.205153,0.301758,-0.065566,-53.776710,188.515918,0
0.021887,-201.463042,91.298284,43.874621,3.731058,6.043589,-0.477724,-5.427081,-5.689932,0.676900,5.214349,-0.248989,0.307114,-0.031958,-63.593790,188.741724,0
0.022924,-180.513444,39.471206,118.526137,5.167428,4.783240,1.808181,-6.259177,-4.487961,-1.559937,5.989960,-0.238030,0.310054,-0.039427,-47.850271,188.581508,0
0.023962,-134.893907,-7.511430,186.665341,6.468078,3.135911,3.840095,-6.341267,-2.852253,-3.628907,6.246125,-0.252642,0.328933,-0.061832,-28.306591,188.575341,0
0.025003,-78.612419,-64.509135,199.480682,6.728208,0.455451,5.475152,-5.199468,-0.194685,-5.274010,5.136076,-0.252642,0.334812,-0.035692,-12.664861,188.497716,0
0.026044,-27.514454,-145.354545,176.041288,6.264498,-1.972939,6.514921,-3.733040,2.253364,-6.344167,3.776979,-0.234377,0.311034,-0.035692,-0.054212,188.721469,0
0.027089,19.942568,-187.625628,118.156819,5.190048,-3.971746,5.971225,-1.236753,4.249297,-5.878334,1.432358,-0.179582,0.315999,-0.069301,17.872138,188.646007,0
0.028133,87.963543,-199.380348,56.259091,4.002498,-5.821441,5.098136,1.319235,6.164362,-5.047389,-1.107945,-0.143052,0.300713,-0.035692,44.733387,188.570600,0
0.029175,150.279241,-156.674352,5.687121,3.041148,-6.297178,3.137656,3.446116,6.693671,-3.150484,-3.228421,-0.055380,0.306069,-0.054364,58.565517,188.495356,0
0.030215,201.048273,-91.775736,-43.358333,2.079798,-5.895997,0.645385,5.281950,6.285662,-0.728992,-5.010902,-0.029809,0.308160,-0.031958,69.230847,188.721491,0
0.031255,180.416265,-39.477502,-118.514584,0.677358,-4.610796,-1.668299,6.084195,5.065313,1.591779,-5.807860,0.017680,0.318481,-0.031958,54.403437,188.570694,0
0.032294,134.717330,8.097098,-186.616857,-0.600672,-3.013171,-3.672434,6.218524,3.330359,3.706912,-6.106719,0.010374,0.335270,-0.031958,32.394178,188.570658,0
0.033338,77.176825,65.203531,-199.826137,-0.894732,-0.243954,-5.355113,5.102844,0.720577,5.347819,-4.950419,-0.037115,0.296597,-0.046895,17.770348,188.495365,0
0.034375,26.180943,145.094549,-175.968182,-0.431022,2.120531,-6.363134,3.662536,-1.709094,6.443156,-3.598437,-0.062686,0.308290,-0.002084,4.820398,188.645886,0
0.035417,-20.425392,188.199215,-117.800569,0.688668,4.083835,-5.851186,1.177443,-3.675621,5.939553,-1.332089,-0.095563,0.313059,-0.039427,-13.400011,188.570718,0
0.036458,-87.062582,199.857287,-56.173674,1.830978,5.986784,-4.902695,-1.427053,-5.587011,5.137985,1.258024,-0.132093,0.298688,-0.035692,-39.130261,188.570658,0
0.037500,-150.092857,157.441233,-6.401894,2.758398,6.483823,-3.045398,-3.587516,-6.127346,3.215899,3.371384,-0.190541,0.302672,-0.028224,-54.545790,188.495278,0
0.038541,-201.054712,93.327876,42.914394,3.764988,6.071991,-0.521378,-5.505440,-5.719338,0.781817,5.189444,-0.263601,0.311687,-0.043161,-63.684270,188.645998,0
0.039583,-180.797006,41.102128,118.489205,5.167428,4.818743,1.796275,-6.262908,-4.546773,-1.517970,6.014865,-0.292825,0.321617,-0.058098,-49.727730,188.495255,0
0.040625,-135.835334,-6.895304,186.394508,6.411528,3.196266,3.867876,-6.389775,-2.859604,-3.637300,6.256798,-0.245336,0.329260,-0.020755,-28.939951,188.570618,0
0.041667,-79.236257,-64.279598,199.566857,6.671658,0.480303,5.554524,-5.255438,-0.198361,-5.324371,5.160981,-0.259948,0.323054,-0.028224,-12.325561,188.499201,0
0.042708,-27.298947,-145.004199,176.164394,6.275808,-2.001342,6.574450,-3.774085,2.271743,-6.386134,3.755632,-0.230724,0.317240,-0.054364,-0.370892,188.646431,0
0.043750,19.829143,-187.710194,118.095266,5.178738,-3.978847,6.022817,-1.281529,4.238269,-5.962268,1.485726,-0.183235,0.314823,-0.058098,17.792968,188.495627,0
0.044792,86.988088,-199.754856,56.246780,3.991188,-5.899547,5.086231,1.285653,6.190093,-5.068372,-1.129292,-0.117481,0.299145,-0.024490,43.285707,188.571002,0
0.045833,149.655403,-157.060941,6.130303,3.063768,-6.304279,3.213059,3.442385,6.723077,-3.196647,-3.207074,-0.073645,0.305285,-0.043161,58.599447,188.495770,0
0.046875,200.855451,-91.872383,-42.718182,2.113728,-5.959902,0.677134,5.300607,6.340798,-0.720599,-5.032250,-0.026156,0.307376,-0.024490,69.083817,188.570993,0
0.047916,180.404922,-39.332531,-118.009849,0.677358,-4.656950,-1.648456,6.128971,5.094719,1.545616,-5.875459,-0.026156,0.310773,-0.031958,53.181957,188.495700,0
0.048958,134.501823,8.097098,-186.678410,-0.600672,-2.977668,-3.660528,6.244644,3.403874,3.677535,-6.103161,0.006721,0.312014,-0.031958,31.523308,188.571093,0
0.050000,77.698580,64.768619,-199.653788,-0.849492,-0.311409,-5.315427,5.117770,0.724252,5.318442,-4.985998,-0.033462,0.341214,-0.031958,17.340568,188.495693,0
0.051043,26.521218,145.650271,-175.992804,-0.464952,2.131182,-6.406788,3.692387,-1.716446,6.409582,-3.630458,-0.073645,0.322662,-0.028224,5.114458,188.571132,0
0.052083,-20.198542,187.921354,-118.379167,0.654738,4.076735,-5.855155,1.177443,-3.649890,5.994110,-1.321415,-0.106522,0.297904,-0.043161,-13.219051,188.495638,0
0.053125,-87.652392,199.724397,-56.986174,1.785738,5.983234,-4.974129,-1.382276,-5.579659,5.121198,1.218887,-0.150358,0.303260,-0.058098,-38.870131,188.495702,0
0.054166,-150.376420,157.670770,-6.328030,2.735778,6.458971,-3.049366,-3.568859,-6.101616,3.291440,3.374942,-0.190541,0.307114,-0.013287,-53.482650,188.495740,0
0.055208,-201.360960,93.050015,43.062121,3.685818,6.100393,-0.529315,-5.408425,-5.741392,0.806998,5.185886,-0.281866,0.310511,-0.017021,-63.842610,188.646520,0
0.056250,-180.797006,40.534325,118.403031,5.133498,4.793891,1.835961,-6.311416,-4.521043,-1.538954,6.011307,-0.289172,0.319330,-0.017021,-47.895511,188.495788,0
0.057291,-134.916592,-7.342297,186.850001,6.490698,3.146562,3.852001,-6.423357,-2.848577,-3.616317,6.271030,-0.274560,0.329652,-0.024490,-28.001221,188.495756,0
0.058333,-78.079322,-64.484973,199.763826,6.671658,0.423498,5.558492,-5.266633,-0.172631,-5.303387,5.203676,-0.278213,0.330566,-0.017021,-12.223771,188.495579,0
0.059375,-26.391547,-145.463273,175.918182,6.275808,-1.987140,6.582387,-3.766622,2.308501,-6.436494,3.794768,-0.212459,0.309858,-0.028224,0.160678,188.495683,0
0.060417,20.158075,-187.927651,117.676705,5.190048,-3.968196,6.026785,-1.333769,4.311784,-5.928694,1.471494,-0.183235,0.299798,-0.035692,17.759038,188.495535,0
0.061458,87.271651,-199.803179,55.951326,4.013808,-5.895997,5.086231,1.296847,6.208471,-5.122929,-1.107945,-0.117481,0.296597,-0.028224,44.563737,188.495678,0
0.062500,149.984336,-156.722676,6.019508,3.052458,-6.339782,3.217028,3.479699,6.756158,-3.242811,-3.214190,-0.022503,0.305285,-0.069301,58.497657,188.495645,0
0.063542,201.331836,-92.029435,-42.828977,2.147658,-6.002505,0.740631,5.319264,6.348150,-0.804532,-5.003787,0.006721,0.314496,-0.061832,69.321327,188.495810,0
0.064583,180.314182,-40.274842,-118.859281,0.666048,-4.717304,-1.688142,6.181210,5.127801,1.549812,-5.932385,-0.015197,0.311753,-0.058098,54.493917,188.495649,0
0.065625,134.785385,7.336001,-187.220076,-0.611982,-3.041573,-3.712120,6.326734,3.433280,3.664945,-6.117393,0.006721,0.330631,-0.046895,32.699548,188.495667,0
0.066667,78.719405,65.167288,-199.739963,-0.838182,-0.325610,-5.386862,5.151352,0.775713,5.406573,-5.042923,0.003068,0.325405,-0.050629,18.290608,188.495770,0
0.067708,27.224453,145.916051,-176.226705,-0.510192,2.138283,-6.426631,3.722238,-1.694391,6.489320,-3.630458,-0.055380,0.321551,-0.005818,4.922188,188.495747,0
0.068750,-20.119144,188.549561,-117.505114,0.643428,4.172592,-5.890872,1.173712,-3.712378,6.019290,-1.317858,-0.084604,0.318808,-0.020755,-13.479181,188.495649,0
0.069792,-88.060722,199.905611,-56.062879,1.797048,6.089743,-4.997941,-1.456904,-5.678904,5.192542,1.307833,-0.172276,0.301170,-0.054364,-39.345151,188.495740,0
0.070833,-150.988915,156.390195,-6.007955,2.769708,6.522877,-3.037460,-3.680800,-6.222915,3.304030,3.417637,-0.186888,0.305547,-0.031958,-54.975570,188.495640,0
0.071875,-201.939427,92.035219,43.148296,3.697128,6.182050,-0.525347,-5.524097,-5.811231,0.748244,5.260601,-0.263601,0.309009,-0.050629,-63.808680,188.420311,0
0.072916,-179.912291,39.628257,118.833902,5.167428,4.836494,1.875646,-6.348730,-4.590882,-1.622888,6.118042,-0.256295,0.319592,-0.054364,-49.309260,188.495723,0
0.073958,-134.394837,-7.982585,187.083902,6.411528,3.189165,3.883750,-6.468134,-2.889010,-3.700250,6.331513,-0.263601,0.301693,-0.039427,-28.464931,188.495758,0
0.075000,-77.239977,-64.823239,199.776137,6.660348,0.448350,5.614052,-5.315140,-0.139549,-5.399911,5.189444,-0.223418,0.300909,-0.020755,-12.042811,188.495682,0
0.076042,-26.176039,-145.439111,176.213637,6.275808,-2.033294,6.645884,-3.844981,2.297473,-6.486855,3.823231,-0.227071,0.323380,-0.054364,-0.495302,188.420291,0
0.077083,19.863170,-188.229673,117.418182,5.178738,-4.000148,6.082345,-1.318843,4.359569,-6.008432,1.464379,-0.150358,0.295683,-0.043161,17.872138,188.495631,0
0.078125,87.782063,-199.682370,56.886932,4.013808,-5.924399,5.145759,1.289384,6.274635,-5.198470,-1.147081,-0.124787,0.304828,-0.061832,43.545837,188.495542,0
0.079166,150.585488,-156.432734,7.127462,3.075078,-6.417888,3.209091,3.498355,6.822322,-3.247008,-3.260442,-0.026156,0.311557,-0.061832,59.187567,188.495680,0
0.080208,201.558686,-92.863017,-42.939773,2.113728,-6.027357,0.649354,5.390160,6.403286,-0.754172,-5.110522,-0.011544,0.315215,-0.031958,69.038577,188.344853,0
0.081250,179.905852,-40.492298,-119.240909,0.643428,-4.681802,-1.688142,6.240912,5.186613,1.566599,-5.946616,0.003068,0.321813,-0.028224,52.989687,188.495720,0
0.082292,134.615248,7.541376,-187.441667,-0.645912,-3.027372,-3.767680,6.349122,3.436956,3.753076,-6.170761,0.017680,0.332003,-0.035692,31.285798,188.495604,0
0.083333,78.027513,65.251855,-199.838448,-0.872112,-0.272356,-5.438454,5.166278,0.724252,5.398180,-5.021576,-0.007891,0.318089,-0.054364,17.057818,188.495658,0
0.084375,26.214970,146.073102,-176.091288,-0.453642,2.163135,-6.442505,3.688655,-1.738500,6.535483,-3.658921,-0.040768,0.319918,-0.024490,4.967428,188.420231,0
0.085416,-20.334652,188.670370,-116.803409,0.654738,4.197444,-5.886904,1.177443,-3.719730,6.015093,-1.275163,-0.080951,0.305481,-0.054364,-13.264291,188.495698,0
0.086458,-88.026695,199.905611,-55.545834,1.819668,6.086192,-4.974129,-1.445710,-5.675229,5.142181,1.304276,-0.139399,0.297904,-0.043161,-38.813581,188.495689,0
0.087500,-150.694010,156.233143,-5.860227,2.792328,6.547728,-3.037460,-3.654681,-6.160428,3.262063,3.446099,-0.197847,0.304893,-0.046895,-53.968980,188.495721,0
0.088542,-201.950770,91.527821,43.074432,3.719748,6.153648,-0.521378,-5.512903,-5.807556,0.769227,5.235696,-0.252642,0.309074,-0.024490,-63.639030,188.344885,0
0.089583,-180.025716,39.628257,119.030872,5.190048,4.840045,1.843898,-6.363655,-4.623964,-1.555740,6.142947,-0.245336,0.325928,-0.028224,-47.601451,188.495794,0
0.090625,-134.349467,-7.318136,187.564016,6.479388,3.171414,3.919467,-6.479328,-2.896362,-3.700250,6.356418,-0.263601,0.319918,-0.091706,-28.148251,188.495647,0
0.091667,-78.306172,-64.944048,199.431440,6.626418,0.419948,5.570398,-5.330066,-0.179982,-5.391518,5.203676,-0.259948,0.322335,-0.039427,-12.676171,188.495803,0
0.092708,-27.253577,-146.151885,176.139773,6.219258,-2.011992,6.633978,-3.878563,2.312176,-6.507838,3.883714,-0.219765,0.320767,-0.039427,-0.144692,188.344909,0
0.093750,19.795115,-188.326320,117.492046,5.178738,-4.046302,6.094251,-1.292724,4.319136,-5.995841,1.439474,-0.135746,0.317044,-0.035692,17.804278,188.495693,0
0.094792,88.303818,-199.634047,56.751515,4.013808,-5.963452,5.137822,1.315504,6.281986,-5.160700,-1.125734,-0.121134,0.303718,-0.043161,44.823867,188.495720,0
0.095833,150.596831,-156.142792,6.881250,3.063768,-6.424988,3.185279,3.572983,6.851728,-3.209237,-3.313810,-0.044421,0.306853,-0.046895,58.836957,188.495752,0
0.096875,201.887618,-91.594522,-42.964394,2.068488,-6.034458,0.673166,5.390160,6.443720,-0.687025,-5.160332,-0.022503,0.309466,-0.054364,69.276087,188.420412,0
0.097917,179.633632,-39.537907,-119.228599,0.643428,-4.724405,-1.751639,6.244644,5.157207,1.658926,-6.007100,-0.004238,0.319722,-0.043161,54.041517,188.495731,0
0.098960,133.900670,7.940046,-187.663258,-0.623292,-2.995419,-3.799428,6.349122,3.433280,3.769863,-6.177876,0.035945,0.304828,-0.043161,32.100118,188.495767,0
0.100000,76.836550,65.457230,-199.863069,-0.849492,-0.251054,-5.497982,5.218517,0.669116,5.431753,-5.021576,-0.007891,0.340104,-0.043161,17.736418,188.495651,0
0.101042,25.386968,146.254316,-176.054357,-0.464952,2.212839,-6.506003,3.703581,-1.756879,6.548073,-3.637574,-0.033462,0.300974,-0.043161,4.809088,188.420292,0
0.102083,-20.323309,189.262334,-116.163258,0.688668,4.215196,-5.934527,1.177443,-3.818975,6.052864,-1.243143,-0.099216,0.323968,-0.013287,-13.513111,188.420311,0
0.103125,-88.446367,199.881449,-56.038258,1.853598,6.150097,-4.950318,-1.475561,-5.689932,5.196738,1.325623,-0.164970,0.302999,-0.035692,-39.560041,188.495807,0
0.104166,-151.510670,155.641178,-6.660417,2.803638,6.554829,-3.041429,-3.680800,-6.219240,3.287243,3.463889,-0.186888,0.309270,-0.039427,-55.326180,188.495863,0
0.105208,-202.325072,92.639264,43.308333,3.731058,6.167849,-0.525347,-5.535291,-5.829610,0.756637,5.328200,-0.270907,0.311165,-0.024490,-63.740820,188.420370,0
0.106250,-179.708126,40.920914,119.831061,5.178738,4.868447,1.867709,-6.427089,-4.594558,-1.614494,6.118042,-0.285519,0.321094,-0.054364,-49.139610,188.495770,0
0.107291,-134.961962,-7.173165,187.514773,6.468078,3.150112,3.943279,-6.494253,-2.922092,-3.742217,6.345744,-0.270907,0.331415,-0.039427,-28.600651,188.495839,0
0.108333,-78.102007,-65.221909,199.554546,6.716898,0.387996,5.641832,-5.296484,-0.154252,-5.399911,5.210791,-0.238030,0.323315,-0.035692,-12.088051,188.495721,0
0.109375,-26.641082,-145.898186,176.201326,6.309738,-2.040395,6.633978,-3.792741,2.382016,-6.549805,3.809000,-0.179582,0.305873,-0.073035,-0.438752,188.420441,0
0.110416,19.931225,-188.785395,116.334849,5.167428,-4.113757,6.090282,-1.270335,4.337515,-6.016825,1.382548,-0.139399,0.316848,-0.043161,17.894758,188.495665,0
0.111458,88.190393,-199.646127,55.815909,3.979878,-5.959902,5.181477,1.326698,6.304041,-5.160700,-1.179102,-0.099216,0.300517,-0.028224,43.466667,188.495712,0
0.112500,150.732941,-155.321291,6.475000,3.075078,-6.435639,3.157499,3.599102,6.811295,-3.175664,-3.320925,-0.062686,0.304240,-0.050629,59.481627,188.495741,0
0.113541,201.898961,-90.930072,-43.075190,2.079798,-6.045108,0.629511,5.420011,6.392259,-0.695418,-5.121196,-0.048074,0.311230,-0.054364,68.959407,188.344941,0
0.114583,179.270672,-39.030509,-119.253220,0.643428,-4.749257,-1.751639,6.263300,5.131477,1.705090,-5.978637,0.017680,0.311099,-0.046895,52.797417,188.495734,0
0.115625,133.730533,7.891722,-187.515531,-0.657222,-3.027372,-3.771648,6.345391,3.425929,3.769863,-6.188550,-0.000585,0.292482,-0.058098,31.195318,188.495787,0
0.116666,77.199510,65.541796,-199.764584,-0.860802,-0.243954,-5.462265,5.170009,0.680143,5.406573,-5.025134,-0.022503,0.330958,-0.050629,17.216158,188.495756,0
0.117708,26.407793,146.387206,-176.054357,-0.453642,2.180886,-6.466317,3.636416,-1.767906,6.510303,-3.637574,-0.055380,0.307768,-0.058098,5.227558,188.420332,0
0.118750,-19.960349,188.815341,-117.012690,0.666048,4.197444,-5.890872,1.151324,-3.760163,6.010897,-1.271606,-0.099216,0.310381,-0.069301,-13.411321,188.495832,0
0.119791,-88.820670,199.663993,-56.604546,1.819668,6.050689,-4.946349,-1.453173,-5.645823,5.104411,1.346970,-0.157664,0.302019,-0.009553,-39.028471,188.495665,0
0.120833,-151.499327,156.027767,-6.254167,2.769708,6.537078,-3.001743,-3.703189,-6.167779,3.224293,3.453215,-0.179582,0.305939,-0.035692,-54.285660,188.495658,0
0.121875,-202.302387,92.361403,43.332955,3.697128,6.103944,-0.477724,-5.509172,-5.726689,0.693687,5.274833,-0.252642,0.311557,-0.039427,-63.627720,188.495807,0
0.122916,-179.889606,39.894037,119.424811,5.144808,4.804542,1.883584,-6.322610,-4.546773,-1.627084,6.068232,-0.263601,0.302280,-0.028224,-47.510971,188.495743,0
0.123958,-133.941137,-7.680563,187.773296,6.411528,3.100408,3.915499,-6.393506,-2.822847,-3.742217,6.267472,-0.238030,0.328345,-0.054364,-27.707161,188.495647,0
0.125000,-77.274004,-65.197747,199.579167,6.637728,0.380895,5.590241,-5.281558,-0.117494,-5.383124,5.150308,-0.227071,0.317958,-0.035692,-12.065431,188.495741,0
0.126041,-25.926504,-146.006914,175.979735,6.264498,-2.079448,6.614136,-3.792741,2.393043,-6.499445,3.780537,-0.190541,0.292155,-0.031958,0.126748,188.495582,0
0.127083,20.282843,-188.592100,116.408712,5.144808,-4.067603,5.999005,-1.262873,4.278703,-5.916104,1.389664,-0.168623,0.330697,-0.076769,17.872138,188.495731,0
