1-Time,2-VGERA,3-VGERB,4-VGERC,5-VN,6-IGERAN,7-IGERBN,8-IGERCN,9-IGERAT,10-IGERBT,11-IGERCT,12-IN,13-IFD,14-IFAULT,15-VFAULT,16-Speed (rad/s),17-Active Power,18-Reactive Power,19-FAULT 
0.000000,89.187412,78.654924,-197.240920,-3.558930,-2.551956,-3.156580,5.450283,2.682637,3.046697,-5.427446,0.000299,0.445252,-0.000522,-2.335263,189.174150,1474.736588,-128.645207,0
0.001042,24.902137,137.415210,-182.440184,-3.187373,-0.687864,-4.375465,4.674370,0.916288,4.344535,-4.746147,-0.006994,0.442841,-0.041406,118.252652,189.249534,1473.947009,-127.663510,0
0.002083,-37.609050,182.680479,-132.715543,-2.365445,1.528498,-5.240350,3.326932,-1.176491,5.181577,-3.391119,-0.039809,0.435813,-0.033973,225.690844,189.325135,1471.974240,-126.611457,0
0.003125,-93.057784,193.180518,-60.060698,-0.901736,3.532030,-5.107600,1.275496,-3.109682,5.206942,-1.362362,-0.094502,0.428716,-0.048839,286.542089,189.400475,1471.031154,-125.711532,0
0.004167,-156.597264,164.029403,2.909264,0.325528,4.900743,-4.367419,-0.643467,-4.331981,4.467132,0.636116,-0.130964,0.425822,-0.015389,318.493214,189.174161,1469.260847,-124.468490,0
0.005208,-185.118275,112.539278,62.865612,1.451458,5.319063,-2.734194,-2.520797,-4.872404,2.924099,2.517258,-0.141902,0.427545,-0.030256,291.394426,189.325097,1468.851435,-123.377301,0
0.006250,-190.169342,35.574227,123.636123,2.622425,5.304385,-0.875696,-4.125610,-4.792610,1.042868,4.182656,-0.225764,0.426374,-0.033973,222.977588,189.324930,1468.063279,-122.231668,0
0.007292,-158.891149,-28.565273,166.519372,3.489392,4.317297,0.946597,-4.784189,-3.991043,-0.774951,4.962365,-0.196595,0.448284,-0.037689,123.499031,189.325046,1467.066554,-121.660176,0
0.008333,-87.825918,-78.974856,197.226646,4.097394,2.570628,3.215412,-5.219457,-2.253710,-2.977472,5.295444,-0.214826,0.412594,-0.026539,1.526342,189.174253,1465.882574,-120.826211,0
0.009375,-22.546250,-137.241851,182.729702,3.872208,0.746900,4.357865,-4.382986,-0.476480,-4.254172,4.595220,-0.247641,0.371254,-0.041406,-118.937731,189.325110,1464.932693,-121.246904,0
0.010417,39.196542,-182.295710,132.932151,2.937686,-1.458453,5.250910,-3.073398,1.529251,-5.082760,3.274257,-0.192949,0.400812,-0.063706,-225.587840,189.400341,1463.430533,-120.126265,0
0.011458,92.972887,-193.523940,59.985666,1.530273,-3.388596,5.130228,-1.109015,3.505966,-5.082760,1.317415,-0.138256,0.430301,-0.004239,-286.427827,189.325221,1462.814887,-119.972779,0
0.012500,155.992571,-163.973494,-2.668353,0.314269,-4.716945,4.426252,0.798594,4.655725,-4.359860,-0.601578,-0.105440,0.431403,-0.037689,-331.393575,189.325119,1461.074478,-118.577579,0
0.013542,184.920379,-113.223306,-62.697611,-0.834180,-5.171960,2.841299,2.592654,5.207029,-2.888694,-2.505430,-0.043455,0.433815,-0.037689,-290.649698,189.325019,1459.666615,-117.610333,0
0.014583,189.926246,-36.669330,-123.383060,-2.061443,-5.219663,1.019006,4.265597,5.098219,-1.070875,-4.178398,-0.006994,0.435951,-0.056273,-224.349425,189.400461,1457.401713,-116.485794,0
0.015625,159.687646,27.446680,-166.545797,-2.860854,-4.302295,-0.799265,4.939316,4.361938,0.751171,-4.961892,-0.021578,0.450626,-0.033973,-125.490076,189.249719,1455.015597,-115.689382,0
0.016667,90.272205,79.007275,-195.831326,-3.525153,-2.562964,-3.015785,5.329165,2.711653,2.890280,-5.340391,0.018530,0.424789,-0.033973,-2.965729,189.400415,1453.057866,-113.977944,0
0.017708,24.890837,137.015879,-182.901948,-3.277448,-0.761253,-4.246738,4.602457,0.985201,4.217710,-4.704512,-0.017932,0.445528,-0.037689,117.667219,189.325112,1451.614902,-112.615618,0
0.018750,-38.004547,181.165372,-133.651222,-2.376704,1.429422,-5.143805,3.285298,-1.031411,5.092800,-3.338129,-0.021578,0.438018,-0.074856,224.868986,189.400579,1449.563910,-111.353987,0
0.019792,-93.182083,193.509378,-60.230822,-0.879217,3.421946,-4.998987,1.320915,-2.989991,5.088572,-1.430491,-0.083563,0.424100,-0.033973,286.755997,189.249663,1447.868035,-109.691764,0
0.020833,-155.591570,163.477387,2.569017,0.325528,4.662228,-4.303056,-0.594263,-4.150631,4.395265,0.522566,-0.120025,0.424582,-0.037689,318.132947,189.400574,1444.941791,-107.816916,0
0.021875,-185.434673,113.314449,62.987129,1.462718,5.186962,-2.730171,-2.365614,-4.745459,2.919872,2.377213,-0.189302,0.425685,-0.067423,292.351384,189.400565,1443.112821,-106.236451,0
0.022917,-189.378347,35.715167,123.150056,2.644944,5.117242,-0.940060,-3.909869,-4.647530,1.106280,3.989621,-0.214826,0.426718,-0.019106,222.335863,189.400370,1439.725246,-104.359859,0
0.023958,-159.535244,-28.518293,166.543675,3.444354,4.265924,0.821892,-4.640362,-3.918503,-0.703084,4.799610,-0.207533,0.410733,-0.063706,124.275856,189.249755,1437.350854,-103.408716,0
0.025000,-89.159309,-79.691302,195.355289,4.041097,2.596314,3.034390,-5.041565,-2.275472,-2.821055,5.140260,-0.229410,0.411905,-0.033973,1.852834,189.325005,1434.511979,-101.712774,0
0.026042,-22.354151,-137.136146,183.556016,3.860949,0.834967,4.237184,-4.322427,-0.646949,-4.085073,4.530876,-0.178364,0.438155,-0.026539,-118.757598,189.400485,1432.821497,-98.929894,0
0.027083,39.795438,-180.216843,133.843527,2.937686,-1.330022,5.090001,-3.062043,1.409560,-4.943253,3.221267,-0.160133,0.406668,-0.030256,-224.552074,189.325024,1430.109423,-97.769354,0
0.028125,93.232785,-194.122935,60.070728,1.496495,-3.245486,5.065865,-1.139294,3.313735,-4.993983,1.377975,-0.116379,0.430163,-0.019106,-286.979484,189.325106,1428.339765,-95.406117,0
0.029167,154.896478,-163.538929,-2.401016,0.325528,-4.551819,4.377979,0.677476,4.492510,-4.309130,-0.514523,-0.120025,0.430990,-0.052556,-331.224700,189.325064,1425.819420,-93.845700,0
0.030208,185.451476,-113.951496,-62.721915,-0.811661,-5.061875,2.869458,2.524526,5.101846,-2.905604,-2.429730,-0.058040,0.430576,-0.026539,-291.921889,189.400443,1424.712017,-92.815599,0
0.031250,188.954453,-36.951210,-123.006358,-2.027666,-5.069214,1.063256,4.121769,5.040187,-1.130060,-3.989148,-0.010640,0.416796,-0.056273,-223.820283,189.249606,1422.319242,-90.809808,0
0.032292,160.230043,27.411445,-166.557949,-2.928410,-4.247253,-0.694674,4.818198,4.340176,0.615892,-4.859697,-0.039809,0.431334,-0.041406,-126.278159,189.400479,1420.961491,-89.046613,0
0.033333,91.503897,79.770700,-194.142244,-3.513893,-2.599659,-2.919239,5.264821,2.718907,2.793047,-5.173851,0.025822,0.427407,-0.037689,-3.247187,189.325097,1418.294975,-88.048825,0
0.034375,24.687438,136.898429,-183.460924,-3.277448,-0.838312,-4.109965,4.541898,1.028725,4.141615,-4.685587,0.000299,0.444977,-0.030256,117.678478,189.400377,1417.604599,-87.136233,0
0.035417,-38.592144,179.603286,-134.562598,-2.331667,1.389058,-4.986919,3.289083,-0.962498,4.970203,-3.372194,-0.039809,0.436640,-0.015389,224.103420,189.174270,1416.099813,-85.860400,0
0.036458,-93.453281,193.685553,-60.631827,-0.901736,3.275167,-4.982896,1.392829,-2.902943,5.067435,-1.513761,-0.065333,0.429474,-0.026539,287.273880,189.325055,1415.806639,-84.230825,0
0.037500,-154.981374,163.277722,2.338136,0.303010,4.566821,-4.230647,-0.473145,-4.063583,4.327625,0.397661,-0.141902,0.427063,-0.037689,317.795198,189.325092,1414.069415,-82.751409,0
0.038542,-185.468573,114.124855,63.169404,1.417680,5.102564,-2.814649,-2.255851,-4.651157,2.936782,2.278804,-0.160133,0.426580,-0.026539,293.116950,189.325081,1412.872717,-81.493335,0
0.039583,-188.621252,36.161478,122.967781,2.656203,5.098895,-1.016492,-3.849310,-4.596752,1.199285,3.853361,-0.189302,0.424582,-0.048839,222.166988,189.174134,1411.229635,-79.564178,0
0.040625,-159.862942,-28.565273,166.324945,3.455614,4.284272,0.765574,-4.594943,-3.903995,-0.576259,4.723910,-0.200241,0.419346,-0.033973,124.681155,189.325054,1410.118100,-77.926123,0
0.041667,-90.221502,-80.208082,193.909240,4.074875,2.629340,2.974049,-4.999931,-2.351639,-2.711140,5.041850,-0.211179,0.419690,-0.048839,2.235617,189.400557,1408.618876,-76.166377,0
0.042708,-22.365451,-136.772051,183.957021,3.872208,0.901018,4.112479,-4.295932,-0.617933,-4.034343,4.515736,-0.189302,0.392337,-0.022822,-118.509915,189.249646,1407.954204,-76.334380,0
0.043750,40.236136,-178.889657,134.657689,2.948945,-1.208929,4.981387,-3.103677,1.304377,-4.791063,3.228837,-0.178364,0.446906,-0.067423,-223.786508,189.249706,1405.855716,-74.775010,0
0.044792,93.583083,-193.981995,60.350216,1.541533,-3.142741,4.965297,-1.233918,3.223060,-4.981300,1.419610,-0.127317,0.426649,-0.048839,-287.294718,189.325059,1405.347980,-73.471604,0
0.045833,154.150683,-163.339264,-2.243044,0.336788,-4.416048,4.337752,0.582852,4.343803,-4.266855,-0.416113,-0.105440,0.430508,-0.059989,-330.492909,189.398925,1403.227984,-71.769671,0
0.046875,185.428876,-114.550492,-62.904190,-0.834180,-4.999494,2.881526,2.369343,4.989409,-2.901377,-2.301040,-0.065333,0.432988,-0.019106,-292.597388,189.171753,1401.487756,-70.284267,0
0.047917,188.445956,-37.221345,-122.690414,-2.038925,-5.039859,1.151756,3.989297,4.964020,-1.155425,-3.875598,-0.021578,0.427338,-0.071140,-223.583858,189.099258,1399.567454,-69.352572,0
0.048958,160.376942,27.481915,-166.448584,-2.883372,-4.243583,-0.573992,4.746284,4.318414,0.514432,-4.753717,0.007591,0.452969,-0.056273,-126.480809,189.325421,1398.088467,-67.862090,0
0.050000,93.051987,80.076071,-192.732650,-3.401300,-2.614337,-2.766376,5.147488,2.784193,2.628175,-5.143571,0.018530,0.429681,-0.015389,-4.327986,189.325303,1397.062958,-65.855452,0
0.051042,24.766538,136.616549,-183.971295,-3.299967,-0.867668,-3.973193,4.511618,1.061368,3.993653,-4.628812,-0.006994,0.443805,-0.045123,117.216886,189.174635,1395.246853,-64.827389,0
0.052083,-39.145840,177.641869,-135.486125,-2.309148,1.216593,-4.854169,3.304223,-0.842807,4.788421,-3.353269,-0.025225,0.438362,-0.056273,222.853746,189.174582,1392.406975,-63.268414,0
0.053125,-93.848778,194.084883,-61.190804,-0.901736,3.187099,-4.902442,1.483668,-2.772371,5.012478,-1.574321,-0.058040,0.431541,-0.045123,288.039446,189.325293,1391.441510,-61.537544,0
0.054167,-153.851382,163.054567,1.997889,0.303010,4.390687,-4.214556,-0.348242,-3.882233,4.293805,0.265186,-0.101794,0.429543,-0.048839,317.187248,189.174549,1388.987667,-59.301819,0
0.055208,-185.931870,114.759085,63.230163,1.406421,4.985141,-2.790512,-2.146088,-4.560482,3.038242,2.150114,-0.163779,0.428096,-0.041406,294.118941,189.174608,1388.384627,-56.916403,0
0.056250,-187.818957,36.431613,122.566775,2.633685,5.029175,-1.068787,-3.682773,-4.502450,1.224650,3.709532,-0.185656,0.426098,-0.045123,221.423939,189.319414,1385.908752,-55.773082,0
0.057292,-160.088941,-28.377353,166.616585,3.534429,4.247577,0.640870,-4.424620,-3.936638,-0.479027,4.602790,-0.192949,0.447801,-0.026539,125.379172,189.249590,1384.922252,-53.953475,0
0.058333,-92.085990,-80.795333,191.867759,4.041097,2.651356,2.776936,-4.871243,-2.322623,-2.546268,4.935870,-0.218472,0.428234,-0.052556,3.158799,189.174270,1382.326589,-52.846738,0
0.059375,-22.275051,-136.842521,184.686121,3.928504,0.978077,4.011911,-4.280793,-0.730370,-3.869471,4.489241,-0.207533,0.398125,-0.026539,-118.487398,189.098724,1380.992795,-50.565699,0
0.060417,41.128830,-176.799045,135.933614,2.926427,-1.043803,4.884842,-3.050688,1.173805,-4.685376,3.236407,-0.192949,0.428854,-0.033973,-222.739484,189.174081,1379.256783,-48.895833,0
0.061458,93.933381,-194.733676,60.836283,1.496495,-3.017979,4.953228,-1.305832,3.103369,-4.939025,1.457460,-0.152841,0.430990,-0.037689,-288.262933,189.098766,1378.496222,-47.494385,0
0.062500,153.178889,-163.104363,-1.890646,0.325528,-4.272939,4.317638,0.439025,4.224112,-4.249945,-0.325273,-0.101794,0.432850,-0.033973,-328.635286,189.174233,1376.852573,-46.011988,0
0.063542,186.005172,-115.008547,-62.892038,-0.834180,-4.896749,2.937844,2.270935,4.924123,-2.947879,-2.172350,-0.047102,0.431197,-0.045123,-293.959646,189.098763,1376.141680,-44.144450,0
0.064583,187.519362,-37.479735,-122.435229,-2.038925,-4.926105,1.236233,3.853039,4.880599,-1.273795,-3.743123,0.011237,0.434366,-0.045123,-222.807034,189.098655,1374.170488,-41.996079,0
0.065625,160.715939,27.141310,-166.715921,-2.928410,-4.203219,-0.469401,4.632736,4.332922,0.421427,-4.647737,-0.025225,0.445321,-0.059989,-127.415250,189.098817,1373.195289,-40.481443,0
0.066667,94.057680,80.757281,-190.958506,-3.367522,-2.621676,-2.625581,5.068004,2.747923,2.518261,-5.067872,0.044053,0.442772,-0.041406,-4.676994,189.098802,1371.181076,-39.759965,0
0.067708,24.642239,136.733999,-184.603182,-3.266189,-0.952066,-3.896761,4.485123,1.166551,3.938696,-4.613672,-0.025225,0.443323,-0.045123,117.351986,189.098757,1370.934754,-38.258239,0
0.068750,-39.722136,176.432133,-136.361045,-2.399222,1.121186,-4.749578,3.323148,-0.781148,4.720781,-3.322989,-0.065333,0.439327,-0.048839,222.133213,188.872457,1369.635587,-37.725716,0
0.069792,-94.063477,194.343274,-61.458141,-0.958032,3.080685,-4.894396,1.521517,-2.717966,4.999795,-1.619741,-0.068979,0.432850,-0.007956,288.523554,189.098764,1369.484352,-36.772608,0
0.070833,-153.376785,162.995842,1.791311,0.257972,4.287941,-4.226624,-0.264974,-3.806066,4.247303,0.234906,-0.090856,0.429612,-0.052556,316.928307,189.080506,1368.138749,-36.337220,0
0.071875,-185.965770,115.181906,63.400286,1.462718,4.933769,-2.814649,-2.070389,-4.549601,3.025559,2.085769,-0.149195,0.429819,-0.067423,294.569274,189.003195,1367.762174,-35.784872,0
0.072917,-187.412160,37.101079,122.469562,2.611166,4.977802,-1.129128,-3.622214,-4.487942,1.279607,3.588412,-0.189302,0.432092,-0.037689,221.525264,189.003801,1366.697324,-34.388164,0
0.073958,-160.484438,-28.224668,166.385704,3.523169,4.254916,0.540302,-4.409481,-3.925757,-0.428297,4.553585,-0.196595,0.438569,-0.037689,125.852021,189.011594,1366.022536,-33.789950,0
0.075000,-92.786585,-81.159428,190.847019,4.007319,2.662365,2.676367,-4.803114,-2.398790,-2.461718,4.856385,-0.185656,0.418932,-0.015389,3.597874,189.016014,1364.952850,-32.244109,0
0.076042,-22.184652,-136.607621,185.014216,3.883467,1.025780,3.931457,-4.284578,-0.806537,-3.831424,4.481671,-0.196595,0.426236,-0.015389,-118.397332,188.944596,1364.713127,-31.196496,0
0.077083,41.253129,-175.929914,136.820686,2.915167,-1.010777,4.760138,-3.073398,1.133908,-4.634646,3.240192,-0.185656,0.397711,-0.059989,-222.063985,188.867377,1364.017060,-30.794852,0
0.078125,94.170679,-194.639715,61.018558,1.564051,-2.922573,4.933115,-1.370175,3.027202,-4.884068,1.525590,-0.127317,0.430921,-0.033973,-288.454325,188.948298,1363.232238,-29.404778,0
0.079167,152.670393,-163.221813,-1.805584,0.336788,-4.144507,4.277411,0.389821,4.108048,-4.203443,-0.207938,-0.090856,0.431541,-0.041406,-327.599520,189.023845,1361.557142,-27.697705,0
0.080208,185.982572,-115.478347,-63.098616,-0.845439,-4.827029,2.929799,2.172526,4.829821,-2.960562,-2.089081,-0.065333,0.435055,-0.026539,-294.578854,188.873001,1360.322829,-26.540812,0
0.081250,187.349863,-38.008261,-122.155741,-2.016406,-4.852716,1.296574,3.758415,4.844329,-1.307614,-3.595509,-0.036163,0.437122,-0.071140,-223.009684,188.797590,1358.750322,-25.219868,0
0.082292,160.783739,27.000370,-166.788831,-2.950928,-4.236244,-0.421129,4.541898,4.314787,0.379153,-4.575822,-0.043455,0.440980,-0.022822,-127.752999,188.872309,1357.783088,-24.568724,0
0.083333,95.458871,81.168356,-189.536760,-3.378782,-2.665710,-2.496854,4.977165,2.805955,2.366071,-4.882407,0.003945,0.445459,-0.033973,-5.498852,188.873063,1354.986627,-22.658085,0
0.084375,24.687438,136.604804,-185.101400,-3.266189,-1.025455,-3.800216,4.492693,1.231837,3.807644,-4.598532,-0.010640,0.444150,-0.037689,117.104303,188.873023,1353.881173,-21.146785,0
0.085417,-40.162833,174.552932,-137.722032,-2.410482,0.996424,-4.612806,3.266373,-0.617933,4.589729,-3.368409,-0.054394,0.441049,-0.052556,220.714664,188.797782,1352.165844,-18.853397,0
0.086458,-94.504174,194.507704,-61.859146,-0.935513,2.911889,-4.809919,1.612356,-2.543870,4.902563,-1.699226,-0.061686,0.435399,-0.004239,289.199053,188.797634,1350.438569,-16.483136,0
0.087500,-152.371092,162.984097,1.438912,0.291750,4.108137,-4.182374,-0.147641,-3.635597,4.209255,0.072152,-0.112733,0.432919,-0.041406,316.241549,188.797581,1348.169295,-14.001318,0
0.088542,-186.530766,115.581236,63.424589,1.451458,4.812676,-2.862921,-1.915207,-4.437164,3.055151,1.870024,-0.127317,0.431403,-0.052556,295.695106,188.797601,1346.419671,-11.210993,0
0.089583,-186.677665,37.394704,122.056405,2.656203,4.820015,-1.225673,-3.425397,-4.382759,1.381067,3.433227,-0.160133,0.439120,-0.048839,220.973606,188.797527,1344.002628,-9.171984,0
0.090625,-160.314939,-27.813592,167.054046,3.500651,4.269594,0.435711,-4.269438,-3.922130,-0.305700,4.390831,-0.192949,0.438362,-0.048839,126.538779,188.646884,1342.195845,-7.060114,0
0.091667,-94.865772,-81.887619,188.720476,3.883467,2.680712,2.503390,-4.689566,-2.431433,-2.263026,4.712555,-0.192949,0.447388,-0.045123,4.622382,188.797615,1339.415762,-5.014907,0
0.092708,-22.218552,-136.807286,185.779772,3.860949,1.128525,3.794684,-4.208879,-0.875450,-3.675007,4.436251,-0.211179,0.405497,-0.019106,-118.487398,188.722143,1337.911819,-3.374174,0
0.093750,42.100623,-173.322522,138.096612,2.993982,-0.849321,4.603251,-3.073398,0.981574,-4.448637,3.251547,-0.182010,0.400260,-0.056273,-220.273911,188.797672,1335.134461,-1.232316,0
0.094792,94.520977,-195.168241,61.553232,1.541533,-2.783133,4.852660,-1.479939,2.885749,-4.799518,1.676989,-0.120025,0.432230,-0.033973,-289.636449,188.571429,1334.214117,1.544186,0
0.095833,151.642099,-163.045638,-1.513944,0.325528,-3.953695,4.245229,0.268703,3.926698,-4.182305,-0.060323,-0.105440,0.433746,-0.030256,-323.265065,188.646875,1331.965540,4.052682,0
0.096875,186.536269,-115.901168,-62.989251,-0.834180,-4.694928,3.022322,2.036269,4.771789,-2.998609,-1.937681,-0.094502,0.432437,-0.048839,-296.312636,188.722206,1331.157273,6.069162,0
0.097917,186.479769,-38.348866,-121.924859,-1.982628,-4.753640,1.348869,3.538889,4.735519,-1.425984,-3.425184,-0.039809,0.432299,-0.059989,-222.187826,188.646857,1328.640498,8.444709,0
0.098958,160.682040,26.589295,-167.323504,-2.917150,-4.214227,-0.280333,4.428349,4.274890,0.239646,-4.439562,0.000299,0.438431,-0.011672,-128.484790,188.571502,1326.727487,10.363724,0
0.100000,96.826162,81.896547,-187.750465,-3.322485,-2.698735,-2.356058,4.859832,2.849479,2.213882,-4.833202,0.014883,0.442014,-0.037689,-6.219385,188.496085,1325.369100,12.197324,0
0.101042,24.630939,136.628294,-185.405192,-3.322485,-1.128201,-3.651375,4.477554,1.297123,3.676592,-4.522832,-0.010640,0.446630,-0.056273,117.025495,188.719454,1323.585549,13.539955,0
0.102083,-40.840829,173.108295,-138.876441,-2.354185,0.856984,-4.488101,3.315578,-0.487361,4.433312,-3.338129,-0.039809,0.442703,-0.056273,219.847773,188.496147,1321.145586,15.085406,0
0.103125,-94.797972,194.578174,-62.345213,-0.946773,2.776119,-4.777737,1.657775,-2.442314,4.881426,-1.805206,-0.094502,0.435262,-0.019106,289.829519,188.495989,1320.850548,17.095995,0
0.104167,-151.817395,162.960607,1.147272,0.269232,3.994383,-4.118011,-0.018953,-3.446993,4.166980,-0.048968,-0.087210,0.434779,-0.037689,315.678633,188.496141,1318.474541,19.281980,0
0.105208,-186.462966,116.098016,63.509651,1.462718,4.757634,-2.887058,-1.797873,-4.295711,3.050924,1.805679,-0.156487,0.430576,-0.019106,296.224248,188.496062,1316.644024,20.140092,0
0.106250,-186.304767,37.876249,121.886282,2.644944,4.728278,-1.314173,-3.285354,-4.324727,1.457162,3.293182,-0.200241,0.437191,-0.041406,220.725923,188.496015,1314.992216,21.865153,0
0.107293,-160.473138,-27.637417,167.029742,3.523169,4.203543,0.371348,-4.163460,-3.925757,-0.174648,4.281066,-0.192949,0.449111,-0.030256,126.831495,188.495966,1313.706943,23.820300,0
0.108333,-95.713266,-82.404399,187.323034,3.939764,2.724746,2.370641,-4.568448,-2.402417,-2.110837,4.633070,-0.196595,0.404394,-0.052556,5.027681,188.496158,1311.541489,25.020732,0
0.109375,-22.308951,-136.572386,185.852682,3.928504,1.205584,3.674003,-4.174814,-0.973379,-3.586230,4.409756,-0.214826,0.458963,-0.052556,-118.273490,188.345194,1310.630989,26.581073,0
0.110417,42.609120,-172.277216,139.105201,3.039020,-0.772262,4.498661,-3.077182,0.851002,-4.296447,3.232622,-0.182010,0.420173,-0.048839,-219.564637,188.496092,1308.411225,28.224569,0
