1-Time,2-VGERA,3-VGERB,4-VGERC,5-VN,6-IGERAN,7-IGERBN,8-IGERCN,9-IGERAT,10-IGERBT,11-IGERCT,12-IN,13-IFD,14-IFAULT,15-VFAULT,16-Speed (rad/s),17-Active Power,18-Reactive Power,19-FAULT 
0.000000,-130.042439,181.893563,-36.231270,-0.428845,-0.027359,-4.548442,4.220178,0.089332,4.610866,-4.299518,-0.028871,0.592491,-0.048839,311.096495,188.420294,1008.522158,988.155744,0
0.001042,-172.552758,149.700490,34.758796,0.933530,1.869759,-5.119669,2.850030,-1.658882,5.109710,-2.933134,-0.058040,0.589598,-0.082290,318.695864,188.495792,1008.118906,989.014726,0
0.002083,-176.383433,96.613045,107.109849,2.284646,3.653123,-4.830033,0.931067,-3.410723,4.932155,-1.002787,-0.105440,0.578367,-0.074856,266.558562,188.495723,1007.554973,990.325619,0
0.003125,-175.954036,12.107697,150.442710,3.174131,4.713600,-3.953079,-0.885703,-4.415402,4.057066,0.874570,-0.127317,0.576851,-0.041406,184.147626,188.495607,1006.765231,990.869182,0
0.004167,-147.365225,-63.659363,168.888948,3.568207,4.988811,-2.343990,-2.573786,-4.741832,2.497123,2.619453,-0.152841,0.552323,-0.067423,76.371684,188.495651,1005.304181,991.706870,0
0.005208,-69.757338,-120.904542,184.017779,3.928504,4.713600,-0.123447,-4.269438,-4.506077,0.366470,4.296206,-0.200241,0.581743,-0.041406,-58.863311,188.495640,1003.600028,992.839964,0
0.006250,7.217754,-156.961723,167.309231,3.556947,3.763207,1.481619,-4.761480,-3.563057,-1.341434,4.863955,-0.236703,0.592423,-0.108307,-168.496876,188.495669,1001.917815,992.760690,0
0.007292,78.576782,-176.716830,116.551698,2.566129,1.869759,3.452753,-4.719845,-1.818470,-3.231121,4.795825,-0.185656,0.580641,-0.089723,-259.272748,188.495633,999.930431,993.239016,0
0.008333,129.697644,-182.589335,35.718778,1.057383,0.090064,4.627388,-4.027202,-0.048494,-4.528959,4.228076,-0.192949,0.584292,-0.037689,-314.562380,188.495705,998.987155,994.166238,0
0.009375,171.925465,-149.632837,-34.615098,-0.316252,-1.807053,5.178501,-2.683549,1.652569,-5.099670,2.820058,-0.185656,0.590011,-0.045123,-330.695559,188.495671,997.960895,994.705197,0
0.010417,176.569735,-97.120897,-106.382871,-1.678627,-3.619773,4.933115,-0.791080,3.451561,-4.922115,0.931345,-0.112733,0.581054,-0.078573,-267.615166,188.495808,997.450178,996.143567,0
0.011458,175.801340,-13.590385,-150.371922,-2.579371,-4.658233,4.036048,1.063540,4.441732,-4.068163,-0.908162,-0.105440,0.585119,-0.056273,-185.395621,188.495830,996.364400,997.026862,0
0.012500,148.229522,62.129695,-169.146255,-2.984706,-4.992155,2.435004,2.797041,4.887853,-2.516676,-2.690895,-0.054394,0.584292,-0.059989,-77.979946,188.495814,996.184361,997.557726,0
0.013542,71.683828,120.537630,-183.315104,-3.277448,-4.702267,0.246643,4.443489,4.557796,-0.318383,-4.401712,0.003945,0.580021,-0.078573,57.784191,188.495769,996.198235,997.284463,0
0.014583,-5.618961,156.735751,-167.396415,-3.018484,-3.689493,-1.398650,4.950671,3.629284,1.326110,-4.946752,0.018530,0.583672,-0.030256,168.318422,188.495772,994.972041,996.679091,0
0.015625,-77.859384,176.291193,-116.456607,-1.982628,-1.821731,-3.361739,4.890112,1.902832,3.211568,-4.905117,-0.003348,0.553287,-0.056273,259.341976,188.571127,993.431530,997.253635,0
0.016667,-129.669542,182.903634,-34.979648,-0.406326,-0.045706,-4.572578,4.208823,0.125602,4.522089,-4.295733,-0.021578,0.580710,-0.063706,311.681927,188.495721,992.087891,997.471376,0
0.017708,-171.558365,149.453845,35.791688,0.978568,1.818386,-5.087487,2.884095,-1.589969,5.050525,-2.978554,-0.010640,0.577540,-0.071140,318.572022,188.495732,990.346369,997.847691,0
0.018750,-176.406033,95.920089,106.878967,2.397239,3.583403,-4.850146,0.987841,-3.378080,4.906791,-1.055777,-0.072625,0.572166,-0.045123,267.053929,188.495705,989.300166,998.108598,0
0.019792,-175.716737,12.565753,150.296890,3.196650,4.695253,-4.001352,-0.810005,-4.390013,4.065521,0.806441,-0.134610,0.577747,-0.052556,185.712533,188.570998,988.425195,998.386928,0
0.020833,-148.054520,-62.437882,169.131981,3.511910,5.036514,-2.380195,-2.517012,-4.712816,2.568991,2.592958,-0.145548,0.556939,-0.059989,79.377657,188.495712,988.078715,998.742782,0
0.021875,-72.028623,-120.505212,183.227921,3.815911,4.764973,-0.236084,-4.239158,-4.444418,0.451020,4.273496,-0.200241,0.581054,-0.063706,-55.632172,188.495689,987.365111,998.277668,0
0.022917,4.404072,-156.691588,167.455051,3.579466,3.803571,1.409210,-4.731200,-3.621089,-1.248430,4.852600,-0.196595,0.589873,-0.063706,-166.290244,188.495649,986.938088,998.741900,0
0.023958,76.791394,-176.141325,117.791169,2.611166,1.950487,3.392412,-4.708491,-1.901891,-3.167708,4.810965,-0.233057,0.582914,-0.078573,-257.809165,188.646469,986.424427,999.159107,0
0.025000,129.663745,-182.554100,36.593698,1.046123,0.156115,4.559002,-4.027202,-0.131915,-4.465547,4.235646,-0.200241,0.583397,-0.078573,-314.855096,188.495702,985.270608,999.563994,0
0.026042,171.507368,-149.597602,-34.517885,-0.406326,-1.715316,5.138274,-2.728968,1.583656,-5.002438,2.975243,-0.167425,0.581605,-0.045123,-329.772376,188.495664,983.306893,1000.806417,0
0.027083,176.614934,-96.615861,-106.249203,-1.712405,-3.517027,4.933115,-0.855424,3.444307,-4.896750,0.984335,-0.101794,0.563140,-0.052556,-266.613175,188.495676,982.615948,1001.084811,0
0.028125,175.699640,-12.227964,-149.557760,-2.579371,-4.610530,4.088343,0.995411,4.398208,-4.051253,-0.809752,-0.083563,0.563071,-0.063706,-184.089656,188.646373,980.772321,1001.367927,0
0.029167,147.608026,63.398156,-168.708795,-2.984706,-5.006833,2.463163,2.702418,4.909615,-2.588543,-2.618980,-0.083563,0.533237,-0.048839,-77.630938,188.495589,979.434393,1002.768168,0
0.030208,71.774227,120.925216,-182.172847,-3.243670,-4.724284,0.343188,4.379145,4.568677,-0.470572,-4.310873,0.007591,0.561349,-0.030256,56.343125,188.495645,977.030979,1003.986638,0
0.031250,-5.347763,156.348166,-167.833875,-2.973447,-3.828933,-1.310150,4.931746,3.676435,1.250015,-4.969462,-0.017932,0.594903,-0.052556,166.100532,188.495562,976.638560,1004.953561,0
0.032292,-77.034489,175.140182,-118.109234,-1.960110,-1.983188,-3.233012,4.916606,2.018896,3.084744,-4.908902,-0.003348,0.565965,-0.071140,257.000245,188.646485,975.072241,1005.790348,0
0.033333,-129.613042,182.868399,-37.555802,-0.485141,-0.214502,-4.488101,4.356436,0.245293,4.513634,-4.386572,-0.028871,0.588013,-0.089723,311.535569,188.571075,974.908956,1007.338191,0
0.034375,-171.603565,149.101495,33.069713,0.877234,1.660599,-5.063350,3.061987,-1.441262,5.037843,-3.122384,0.014883,0.588771,-0.056273,318.560764,188.495671,973.304779,1008.878328,0
0.035417,-177.242227,97.846271,105.809620,2.273387,3.495335,-4.906464,1.158163,-3.283778,4.940610,-1.188252,-0.076271,0.579814,-0.082290,268.562544,188.495562,972.407890,1010.241112,0
0.036458,-175.050042,13.869449,149.810823,3.129094,4.618194,-4.021465,-0.711596,-4.288457,4.128933,0.628546,-0.105440,0.572097,-0.052556,184.834384,188.646623,969.812526,1011.247473,0
0.037500,-148.020620,-62.156002,169.144133,3.590725,5.014497,-2.537081,-2.418603,-4.788983,2.619720,2.452913,-0.178364,0.583534,-0.026539,78.825999,188.571120,968.722584,1012.739502,0
0.038542,-72.672718,-121.327363,181.320108,3.815911,4.775981,-0.356765,-4.125610,-4.498823,0.573617,4.137236,-0.196595,0.570306,-0.097156,-56.611646,188.495763,966.161904,1014.017259,0
0.039583,6.358959,-156.233532,168.512246,3.556947,3.865952,1.272437,-4.716061,-3.653732,-1.189245,4.837460,-0.218472,0.584568,-0.059989,-166.785611,188.495750,965.255618,1014.969192,0
0.040625,78.305584,-174.250378,118.617482,2.644944,2.049563,3.259662,-4.704706,-2.014328,-3.019746,4.841245,-0.203887,0.582639,-0.045123,-256.694591,188.646554,962.945182,1016.546291,0
0.041667,129.369947,-183.411486,37.164827,1.079901,0.284546,4.571070,-4.144535,-0.273368,-4.457092,4.352981,-0.207533,0.586911,-0.089723,-315.890862,188.571033,962.392126,1018.984836,0
0.042708,170.976272,-149.280487,-32.646527,-0.259955,-1.586885,5.134251,-2.876581,1.409560,-5.027802,3.077437,-0.196595,0.593112,-0.063706,-329.434627,188.495861,960.743365,1020.497739,0
0.043750,177.372029,-98.342378,-104.985429,-1.656109,-3.428960,5.033683,-1.018176,3.331870,-4.977073,1.147090,-0.105440,0.585739,-0.074856,-269.765506,188.495763,959.652773,1022.585512,0
0.044792,174.852146,-15.293411,-149.800794,-2.523075,-4.540810,4.180866,0.874293,4.347430,-4.169623,-0.703772,-0.090856,0.584568,-0.059989,-185.924763,188.646560,958.802116,1023.825551,0
0.045833,148.771918,60.649824,-169.498654,-3.007225,-5.017842,2.632118,2.649429,4.858837,-2.723822,-2.505430,-0.050748,0.587737,-0.071140,-80.242869,188.495694,957.565168,1024.697651,0
0.046875,74.847807,121.019176,-180.738950,-3.198633,-4.753640,0.427666,4.345081,4.601320,-0.593169,-4.235173,-0.003348,0.587600,-0.037689,55.532526,188.495656,956.454151,1025.475378,0
0.047917,-4.794067,155.972326,-168.562975,-3.052262,-3.836272,-1.217628,4.901467,3.738094,1.195057,-4.916472,0.018530,0.594972,-0.071140,166.449540,188.495676,955.689030,1026.010571,0
0.048958,-77.735085,174.083131,-118.522391,-1.982628,-2.034560,-3.152557,4.927961,2.080555,3.017104,-4.931612,-0.017932,0.565000,-0.052556,257.135345,188.646514,954.622909,1026.879910,0
0.050000,-129.274044,183.620079,-36.352787,-0.451364,-0.280552,-4.463965,4.367790,0.281563,4.471359,-4.424422,-0.003348,0.584361,-0.074856,311.884577,188.495673,953.841297,1027.687860,0
0.051042,-170.394473,149.113240,33.798814,0.933530,1.594548,-5.027146,3.065772,-1.401365,4.999795,-3.137524,-0.017932,0.580365,-0.100873,318.639572,188.495740,952.784811,1027.605488,0
0.052083,-177.174428,97.411705,105.578738,2.329684,3.462310,-4.942669,1.203582,-3.207611,4.970203,-1.282877,-0.098148,0.577816,-0.067423,269.204269,188.495714,951.345774,1028.802530,0
0.053125,-174.767544,14.163074,149.798672,3.185390,4.548474,-4.126056,-0.590478,-4.215917,4.200800,0.545276,-0.120025,0.552461,-0.052556,186.140350,188.646348,949.856102,1029.784870,0
0.054167,-148.687316,-60.781835,169.472228,3.590725,5.025505,-2.565240,-2.365614,-4.785356,2.738090,2.377213,-0.160133,0.584430,-0.056273,82.068397,188.495658,949.056401,1031.003407,0
0.055208,-75.181302,-120.904542,180.566704,3.737096,4.809006,-0.457333,-4.072621,-4.542347,0.615892,4.095601,-0.200241,0.585739,-0.078573,-53.234149,188.495734,949.014929,1031.258531,0
0.056250,3.545278,-156.116082,168.730976,3.523169,3.943011,1.208074,-4.670641,-3.762542,-1.108923,4.852600,-0.185656,0.593456,-0.063706,-164.556462,188.495696,949.055899,1032.499155,0
0.057292,76.723594,-173.827558,119.893408,2.611166,2.082588,3.151049,-4.704706,-2.057852,-2.985927,4.822320,-0.196595,0.585670,-0.071140,-255.760150,188.721837,948.876666,1032.245623,0
0.058333,129.290847,-183.446721,38.003292,1.046123,0.328580,4.470502,-4.144535,-0.284249,-4.440182,4.334056,-0.203887,0.586979,-0.059989,-316.284903,188.495797,948.787405,1031.915954,0
0.059375,170.490375,-149.350957,-32.610072,-0.327511,-1.476801,5.081955,-2.880366,1.351528,-4.960163,3.115287,-0.192949,0.584844,-0.052556,-327.779653,188.495691,947.462194,1031.982517,0
0.060417,177.473729,-97.590697,-105.034035,-1.712405,-3.373918,4.961274,-1.010606,3.248449,-4.926343,1.219005,-0.101794,0.573268,-0.059989,-268.583382,188.495709,945.543427,1032.287755,0
0.061458,174.874746,-13.696090,-149.023087,-2.568112,-4.507785,4.172820,0.787239,4.332922,-4.169623,-0.612933,-0.094502,0.528759,-0.097156,-184.607539,188.721965,944.089079,1032.909057,0
0.062500,148.308621,61.612915,-169.182710,-2.917150,-4.992155,2.644186,2.539665,4.815313,-2.753415,-2.448655,-0.047102,0.576989,-0.086006,-80.242869,188.495732,942.633255,1033.202827,0
0.063542,74.689608,121.242331,-179.815423,-3.153596,-4.775657,0.544325,4.239102,4.612201,-0.673491,-4.170828,-0.065333,0.580641,-0.041406,53.967618,188.495788,941.069072,1033.835120,0
0.064583,-4.421169,155.843131,-168.818160,-3.007225,-3.946356,-1.133151,4.897682,3.781618,1.085143,-4.897547,-0.025225,0.587737,-0.056273,164.468075,188.495683,939.917877,1034.747354,0
0.065625,-76.887590,172.979100,-120.199322,-2.016406,-2.140975,-3.076126,4.943101,2.153095,2.941009,-4.942967,0.003945,0.598417,-0.059989,254.793613,188.571134,939.231790,1035.156803,0
0.066667,-129.274044,183.502629,-38.977548,-0.518919,-0.350272,-4.431783,4.413210,0.415762,4.429085,-4.500122,-0.003348,0.590562,-0.071140,311.940869,188.495732,938.554102,1036.574191,0
0.067708,-170.405772,149.218945,31.307721,0.843456,1.440430,-5.023123,3.149040,-1.267166,4.999795,-3.277569,-0.017932,0.588978,-0.059989,318.695864,188.495758,937.371380,1038.198448,0
0.068750,-178.033222,98.715402,104.545846,2.239609,3.381582,-4.962782,1.309561,-3.160460,4.974430,-1.377502,-0.047102,0.581536,-0.041406,270.386393,188.495805,936.926916,1038.978659,0
0.069792,-174.349446,15.314085,149.130330,3.129094,4.519118,-4.158238,-0.499640,-4.183274,4.221938,0.469576,-0.098148,0.582777,-0.063706,185.442333,188.571123,936.045117,1039.119507,0
0.070833,-148.450018,-60.417740,169.678807,3.545688,5.010827,-2.613512,-2.297485,-4.723697,2.784592,2.293944,-0.152841,0.560660,-0.045123,81.178989,188.495680,934.452971,1039.314716,0
0.071875,-75.452500,-121.574008,179.096352,3.759615,4.801668,-0.565947,-3.981783,-4.466180,0.776536,4.016116,-0.196595,0.545364,-0.030256,-54.337464,188.495720,931.692453,1039.703425,0
0.072917,5.432366,-155.775477,169.447925,3.601985,3.990714,1.187960,-4.666856,-3.748034,-1.041283,4.784470,-0.207533,0.563278,-0.086006,-165.198187,188.495723,930.082281,1039.818311,0
0.073958,78.056986,-172.230236,120.561750,2.622425,2.203681,3.070594,-4.723630,-2.141273,-2.880239,4.818535,-0.196595,0.582019,-0.030256,-254.679351,188.571170,928.200705,1040.737685,0
0.075000,129.087448,-183.846051,38.416449,1.136198,0.486367,4.450388,-4.227804,-0.407567,-4.342950,4.436251,-0.160133,0.591045,-0.063706,-316.982920,188.495754,926.615543,1042.555042,0
0.076042,169.834979,-149.092566,-31.054658,-0.226178,-1.392403,5.045751,-2.993914,1.264480,-4.977073,3.209912,-0.167425,0.590011,-0.045123,-326.833954,188.495718,925.826935,1043.584301,0
0.077083,178.185624,-99.234999,-103.721655,-1.667368,-3.271173,5.065865,-1.154434,3.168655,-5.061622,1.287135,-0.112733,0.602758,-0.086006,-271.510546,188.495673,925.995440,1045.301789,0
0.078125,174.264550,-16.855498,-149.010935,-2.545593,-4.482099,4.265343,0.703970,4.260382,-4.241490,-0.491813,-0.083563,0.584292,-0.074856,-186.814170,188.495678,924.822473,1045.978466,0
0.079167,149.110916,58.923307,-169.911811,-2.962187,-4.977478,2.732686,2.498031,4.869718,-2.787235,-2.410805,-0.079917,0.586704,-0.082290,-82.595859,188.495740,925.550979,1046.403856,0
0.080208,77.537189,121.042666,-178.503042,-3.176114,-4.801343,0.640870,4.152049,4.652098,-0.758041,-4.087558,-0.014286,0.589391,-0.071140,52.965628,188.495655,924.668023,1046.880407,0
0.081250,-3.449376,155.537760,-169.425744,-3.018484,-3.928008,-1.084878,4.874972,3.843277,1.072460,-4.916472,-0.025225,0.584361,-0.078573,164.783308,188.495633,925.124361,1047.562350,0
0.082292,-77.339587,172.062990,-120.430203,-2.072703,-2.181339,-3.051989,4.931746,2.196619,2.907189,-4.908902,-0.003348,0.575335,-0.086006,254.906196,188.420265,924.150009,1047.633382,0
0.083333,-128.980246,184.183840,-37.701623,-0.485141,-0.364950,-4.391556,4.447274,0.459286,4.445995,-4.522832,-0.010640,0.581950,-0.048839,312.244844,188.495703,923.884616,1048.532653,0
0.084375,-169.524378,149.066260,32.352765,0.933530,1.422083,-5.011055,3.164180,-1.241777,4.957520,-3.300279,-0.003348,0.587186,-0.071140,318.549505,188.420287,922.854813,1048.600549,0
0.085417,-177.988022,98.222111,104.351420,2.340943,3.322870,-4.982896,1.328485,-3.127817,4.982885,-1.362362,-0.061686,0.579263,-0.071140,270.836726,188.495559,922.465016,1048.505684,0
0.086458,-174.225147,15.513750,149.142481,3.185390,4.526457,-4.178351,-0.465575,-4.186901,4.306487,0.424156,-0.123671,0.572097,-0.063706,186.883399,188.345042,922.207060,1049.758912,0
0.087500,-148.947214,-59.161024,169.812475,3.601985,5.040183,-2.677876,-2.259636,-4.767221,2.856460,2.324223,-0.127317,0.587944,-0.089723,84.196220,188.420262,923.071173,1050.544035,0
0.088542,-77.418687,-120.939777,178.683195,3.725837,4.823684,-0.569970,-4.008277,-4.593125,0.784991,4.016116,-0.189302,0.583534,-0.056273,-51.072550,188.420229,924.101452,1051.535479,0
0.089583,2.516985,-155.564067,169.375015,3.568207,4.034748,1.127619,-4.708491,-3.845963,-0.999008,4.829890,-0.185656,0.594972,-0.059989,-162.912747,188.495864,924.787781,1052.566838,0
0.090625,76.248998,-172.124531,121.485277,2.622425,2.251384,3.050481,-4.731200,-2.152154,-2.833737,4.818535,-0.214826,0.587255,-0.063706,-253.553519,188.420300,924.734148,1052.206344,0
0.091667,128.827550,-183.893031,39.194156,1.091161,0.431325,4.466479,-4.197524,-0.422075,-4.397907,4.387046,-0.192949,0.587255,-0.067423,-316.870336,188.420356,925.327080,1051.760595,0
0.092708,169.473382,-149.409682,-31.297692,-0.293733,-1.363047,5.045751,-2.971204,1.224583,-4.926343,3.160707,-0.182010,0.582432,-0.033973,-325.494213,188.420363,924.544569,1050.987394,0
0.093750,178.038725,-98.448083,-103.794565,-1.689887,-3.315206,4.993456,-1.124155,3.190417,-4.934798,1.298490,-0.156487,0.565758,-0.052556,-270.046964,188.495698,923.738775,1049.850926,0
0.094792,174.592248,-14.835356,-148.281835,-2.590631,-4.430726,4.213047,0.666121,4.271263,-4.216125,-0.525878,-0.105440,0.528966,-0.074856,-185.339330,188.420287,923.677203,1049.557484,0
0.095833,148.421621,60.238748,-169.486502,-2.984706,-4.951791,2.776936,2.471536,4.815313,-2.791462,-2.369170,-0.054394,0.557352,-0.026539,-82.010426,188.419667,922.234484,1049.492595,0
0.096875,76.599295,121.042666,-178.199251,-3.221151,-4.790334,0.681097,4.193683,4.586812,-0.719994,-4.068633,-0.039809,0.579814,-0.074856,51.918603,188.420813,921.641041,1048.433977,0
0.097917,-3.381576,155.467290,-169.547260,-3.018484,-3.953695,-1.040628,4.890112,3.836023,1.038640,-4.886192,-0.003348,0.567274,-0.056273,162.959459,188.496232,921.041973,1048.331305,0
0.098958,-76.469493,171.663659,-121.572461,-2.083962,-2.196017,-3.035898,4.890112,2.240143,2.860687,-4.893762,0.022176,0.581399,-0.078573,252.924731,188.345388,920.623339,1048.349902,0
0.100000,-128.867247,183.831490,-39.743103,-0.530179,-0.445679,-4.379488,4.416995,0.430270,4.352990,-4.507692,-0.003348,0.592423,-0.078573,311.873319,188.345268,920.254536,1047.231352,0
0.101042,-169.614778,149.124985,30.177616,0.798419,1.403736,-4.978873,3.152825,-1.198253,4.970203,-3.285139,-0.039809,0.589460,-0.074856,318.538247,188.420670,920.382490,1046.849705,0
0.102083,-178.519119,99.279162,103.415741,2.205831,3.330209,-4.914510,1.343625,-3.091547,4.974430,-1.388857,-0.039809,0.577747,-0.078573,271.478450,188.496121,920.264184,1046.807047,0
0.103125,-174.213847,16.112746,148.632111,3.129094,4.434720,-4.178351,-0.492070,-4.157885,4.247303,0.416586,-0.130964,0.582019,-0.033973,186.027766,188.345332,919.937031,1045.783398,0
0.104167,-148.529117,-59.513374,169.909688,3.601985,4.933769,-2.641672,-2.244496,-4.694681,2.831095,2.290159,-0.145548,0.544261,-0.086006,82.451180,188.269868,918.850111,1045.114716,0
0.105208,-76.695492,-121.268637,178.184977,3.759615,4.790659,-0.602151,-3.943933,-4.487942,0.763854,3.985836,-0.218472,0.558799,-0.082290,-52.716266,188.420643,917.813840,1043.806718,0
0.106250,4.607471,-155.399637,169.885385,3.601985,3.957689,1.139688,-4.636577,-3.755288,-1.037055,4.765545,-0.196595,0.569754,-0.074856,-163.982288,188.420721,917.196704,1042.535166,0
0.107292,77.548489,-171.325870,121.485277,2.712500,2.189003,3.070594,-4.651717,-2.177543,-2.816827,4.799610,-0.218472,0.586015,-0.056273,-253.091927,188.270036,916.431403,1042.790791,0
0.108333,128.737151,-184.315852,39.339976,1.124939,0.442334,4.462456,-4.208879,-0.403940,-4.355632,4.390831,-0.196595,0.588702,-0.104590,-317.343186,188.269966,916.275797,1042.568559,0
0.109375,169.315183,-149.444917,-29.997463,-0.214918,-1.344699,5.049774,-2.986344,1.275361,-4.972845,3.179632,-0.185656,0.593456,-0.063706,-326.124679,188.345444,917.465561,1042.526647,0
0.110417,178.502022,-99.693054,-102.737369,-1.644849,-3.318876,5.013569,-1.109015,3.208552,-4.981300,1.264425,-0.130964,0.561486,-0.112023,-272.298629,188.420712,918.711394,1042.359725,0
