1-Time,2-VGERA,3-VGERB,4-VGERC,5-VN,6-IGERAN,7-IGERBN,8-IGERCN,9-IGERAT,10-IGERBT,11-IGERCT,12-IN,13-IFD,14-IFAULT,15-VFAULT,16-Speed (rad/s),17-Active Power,18-Reactive Power,19-FAULT 
0.000000,-146.588025,188.561642,-7.756061,2.792328,2.383252,-6.295668,3.326712,-2.356026,6.334042,-3.313810,-0.080951,0.601012,-0.065566,-122.711159,188.496206,1574.782374,903.399131,0
0.001037,-172.165363,143.656922,64.100947,4.115598,4.367858,-5.811500,0.890128,-4.226983,5.876602,-1.040345,-0.106522,0.595394,-0.043161,-143.419768,188.496147,1572.170581,903.975312,0
0.002078,-197.073494,59.211403,117.332008,5.144808,6.015187,-4.771731,-1.609890,-6.031776,4.865200,1.499957,-0.179582,0.605062,-0.043161,-156.788188,188.496259,1570.533156,904.811653,0
0.003120,-165.904303,-11.135701,166.919129,6.094848,6.412818,-3.057303,-3.621098,-6.494921,3.266260,3.310901,-0.238030,0.614730,-0.046895,-123.808229,188.571607,1569.547192,906.887314,0
0.004162,-120.330136,-79.731074,189.779925,6.569868,6.004536,-0.442007,-5.486783,-6.079561,0.651720,5.242812,-0.238030,0.617866,-0.069301,-80.536170,188.496089,1569.277772,908.252947,0
0.005203,-39.571532,-135.134100,190.949432,6.615108,4.623478,1.974861,-6.236789,-4.708506,-1.723608,5.968613,-0.278213,0.621262,-0.065566,-12.845821,188.496244,1568.462383,909.189985,0
0.006245,37.784321,-175.858827,163.607576,6.072228,2.731179,4.109959,-6.292759,-2.844901,-3.947855,6.142947,-0.270907,0.587620,-0.050629,47.481717,188.496197,1567.783557,910.129572,0
0.007287,99.714374,-185.765169,95.603788,4.771578,0.043619,5.681518,-5.087527,-0.220415,-5.521615,4.947511,-0.245336,0.615318,-0.046895,94.248566,188.496172,1566.146294,911.323952,0
0.008328,146.377421,-188.483372,9.429545,3.154248,-2.228559,6.439518,-3.509157,2.183525,-6.373544,3.438984,-0.175929,0.604213,-0.054364,129.139916,188.494918,1564.932997,912.115724,0
0.009370,172.261007,-143.868594,-63.153788,1.785738,-4.234467,6.014879,-1.083767,4.127997,-5.949678,1.236676,-0.179582,0.598595,-0.046895,147.869275,188.571540,1563.949514,913.563027,0
0.010412,196.874233,-59.990877,-117.148106,0.756528,-5.888896,4.867959,1.472222,5.899708,-4.913095,-1.360552,-0.117481,0.600946,-0.043161,162.922885,188.496044,1565.353763,914.278749,0
0.011453,165.841152,11.999230,-166.919887,-0.272682,-6.318480,3.165436,3.464773,6.307717,-3.263794,-3.203516,-0.088257,0.605846,-0.080503,128.811926,188.496192,1565.826396,914.409073,0
0.012495,119.518380,81.138243,-189.472917,-0.634602,-5.888896,0.546171,5.311801,5.932790,-0.607288,-5.110522,-0.033462,0.588796,-0.002084,83.504067,188.496047,1565.817692,914.312967,0
0.013537,37.852376,135.804334,-190.925569,-0.702462,-4.532690,-1.815137,6.128971,4.572763,1.709287,-5.850554,-0.037115,0.607218,-0.065566,18.132268,188.571625,1564.919900,915.186246,0
0.014578,-37.926870,175.900854,-163.657576,-0.170892,-2.651042,-3.985952,6.166285,2.679751,3.941927,-5.992868,-0.011544,0.619172,-0.061832,-42.828631,188.496183,1564.325430,915.386131,0
0.015620,-99.527990,186.350836,-95.641478,1.107138,0.075571,-5.609103,4.912545,0.029536,5.503097,-4.886378,-0.044421,0.612117,-0.065566,-88.622820,188.496163,1564.304123,916.374733,0
0.016662,-146.837560,188.646208,-9.504167,2.747088,2.376152,-6.319479,3.375220,-2.319269,6.376009,-3.306694,-0.077298,0.602906,-0.058098,-123.254039,188.496078,1564.837446,916.292841,0
0.017703,-172.925311,143.789812,63.436174,4.081668,4.392710,-5.827375,0.871471,-4.293147,5.931159,-1.004767,-0.124787,0.598464,-0.061832,-143.555488,188.571599,1566.482791,916.127030,0
0.018745,-196.948727,58.704005,117.184281,5.178738,6.025838,-4.720140,-1.665861,-6.053831,4.877790,1.507073,-0.157664,0.593499,-0.024490,-157.116178,188.495986,1566.636905,916.290172,0
0.019787,-165.393890,-12.778704,167.017614,6.140088,6.466072,-3.009680,-3.621098,-6.421406,3.228489,3.382058,-0.223418,0.585464,-0.065566,-123.751679,188.496203,1566.170933,915.556200,0
0.020828,-119.797038,-80.588818,189.410607,6.569868,6.025838,-0.386446,-5.483052,-6.046479,0.592966,5.281948,-0.274560,0.598137,-0.080503,-80.965950,188.496109,1566.349184,914.875678,0
0.021870,-39.480792,-135.399880,190.912501,6.592488,4.598626,1.978830,-6.251714,-4.723209,-1.748788,5.968613,-0.281866,0.604082,-0.046895,-13.366081,188.571560,1566.600481,914.958921,0
0.022912,36.740811,-175.532643,163.903031,6.072228,2.709878,4.121865,-6.266640,-2.863280,-3.914282,6.150063,-0.296478,0.619629,-0.039427,46.972767,188.496201,1566.458832,914.869965,0
0.023953,99.237989,-186.163839,95.886932,4.726338,0.050719,5.721204,-5.039019,-0.202037,-5.546795,4.990205,-0.219765,0.606303,-0.031958,93.287216,188.571636,1567.358929,914.976055,0
0.024995,146.184598,-188.531696,8.863258,3.131628,-2.274713,6.407769,-3.453187,2.198228,-6.352560,3.389174,-0.201500,0.597615,-0.073035,128.088086,188.496111,1567.079193,914.273359,0
0.026037,172.249664,-143.095416,-63.683144,1.808358,-4.262869,5.935508,-1.053916,4.227242,-5.911908,1.140615,-0.168623,0.595394,-0.031958,148.276435,188.496167,1567.911526,912.812332,0
0.027078,196.681410,-58.468683,-117.049622,0.756528,-5.888896,4.899707,1.431176,5.910736,-4.883718,-1.364110,-0.121134,0.590625,-0.058098,162.165115,188.496150,1567.394050,912.771846,0
0.028120,165.739069,11.842178,-167.018372,-0.204822,-6.350432,3.177342,3.468504,6.300365,-3.263794,-3.228421,-0.051727,0.613162,-0.073035,129.309566,188.571558,1567.598146,912.556620,0
0.029162,120.289670,80.268418,-189.534470,-0.691152,-5.899547,0.546171,5.341652,5.892357,-0.649255,-5.085617,-0.048074,0.610941,-0.091706,84.454107,188.496073,1567.150992,912.227856,0
0.030203,39.667176,135.623121,-190.900948,-0.759012,-4.486536,-1.807199,6.073001,4.521302,1.700893,-5.814976,0.010374,0.619172,-0.043161,17.713798,188.571598,1567.015276,911.013442,0
0.031245,-37.631965,176.021664,-163.337500,-0.182202,-2.619090,-3.950235,6.140165,2.716509,3.925140,-5.960848,-0.022503,0.595263,-0.054364,-43.789981,188.496163,1566.415259,911.225370,0
0.032287,-99.732155,186.242108,-94.890531,1.152378,0.079122,-5.561480,4.916276,0.044239,5.511490,-4.822337,-0.026156,0.602579,-0.050629,-87.898980,188.571603,1565.778743,910.911482,0
0.033328,-146.531312,188.851584,-8.703977,2.769708,2.329998,-6.283762,3.326712,-2.330296,6.292075,-3.342272,-0.080951,0.599770,-0.058098,-122.835569,188.496045,1564.875856,911.002439,0
0.034370,-172.369528,144.309291,63.534659,4.126908,4.321704,-5.843249,0.923710,-4.263741,5.931159,-1.097271,-0.124787,0.600620,-0.031958,-143.431078,188.646976,1564.251010,911.989300,0
0.035412,-196.971412,60.093309,117.516667,5.133498,6.004536,-4.720140,-1.628547,-6.002370,4.840019,1.496399,-0.179582,0.599509,-0.050629,-156.742948,188.496145,1563.864591,911.359451,0
0.036453,-166.063098,-11.123620,166.869887,6.106158,6.423469,-3.017617,-3.557665,-6.421406,3.253669,3.318017,-0.245336,0.614730,-0.035692,-123.638579,188.571487,1563.717671,911.429998,0
0.037495,-119.683613,-80.310958,189.767614,6.479388,5.986784,-0.414226,-5.486783,-5.980316,0.613950,5.246370,-0.241683,0.575012,-0.054364,-79.744470,188.496105,1562.798878,911.055379,0
0.038537,-38.097007,-135.351556,191.010985,6.626418,4.630578,1.970892,-6.247983,-4.657046,-1.711018,5.911687,-0.263601,0.591148,-0.039427,-12.472591,188.646913,1561.239305,910.774078,0
0.039578,37.875061,-175.907151,163.718372,6.083538,2.752481,4.090116,-6.303953,-2.848577,-3.918479,6.118042,-0.285519,0.621850,-0.087972,47.051937,188.496145,1560.845077,910.878217,0
0.040620,99.589606,-185.656441,96.391667,4.794198,0.057820,5.693424,-5.083795,-0.213064,-5.530009,4.979531,-0.259948,0.610484,-0.080503,94.305116,188.571569,1560.490577,910.804648,0
0.041662,146.706353,-188.519615,10.242045,3.120318,-2.249861,6.455392,-3.520351,2.187201,-6.369347,3.467446,-0.230724,0.603429,-0.017021,129.275636,188.496130,1561.021994,911.674601,0
0.042703,172.408459,-143.784027,-63.289205,1.763118,-4.234467,5.943445,-1.046453,4.153727,-5.945481,1.193982,-0.183235,0.600881,-0.073035,147.790105,188.646869,1560.598887,912.628656,0
0.043745,196.840205,-58.649897,-117.123485,0.745218,-5.917298,4.887802,1.487147,5.929114,-4.900505,-1.360552,-0.121134,0.577364,-0.076769,162.900265,188.496145,1560.979248,912.894414,0
0.044787,165.557589,13.195239,-166.772160,-0.204822,-6.325580,3.161468,3.513281,6.337123,-3.251204,-3.221306,-0.073645,0.589123,-0.046895,128.766686,188.496087,1560.895578,913.395952,0
0.045828,119.200790,81.295295,-189.423675,-0.634602,-5.906648,0.534265,5.367772,5.932790,-0.624075,-5.135427,-0.048074,0.607348,-0.050629,84.069567,188.496136,1561.421683,913.972718,0
0.046870,39.077366,135.804334,-190.913258,-0.679842,-4.507838,-1.838948,6.128971,4.547032,1.772237,-5.896806,-0.029809,0.619564,-0.054364,19.161478,188.646974,1562.933617,914.191422,0
0.047912,-37.008127,175.888774,-163.903788,-0.193512,-2.629741,-4.009763,6.162554,2.683427,3.983894,-6.039120,0.006721,0.622569,-0.031958,-42.681601,188.496134,1564.683310,913.841120,0
0.048953,-99.369195,186.664940,-95.321402,1.118448,0.111074,-5.636883,4.905082,-0.014573,5.599621,-4.840126,-0.051727,0.608916,-0.009553,-88.611510,188.496177,1566.501437,913.308319,0
0.049995,-146.633395,188.863664,-8.507008,2.724468,2.401003,-6.319479,3.326712,-2.381757,6.342435,-3.278231,-0.069992,0.602318,-0.028224,-123.039149,188.496165,1567.446980,912.516978,0
0.051037,-172.982023,143.258252,63.953220,4.126908,4.445964,-5.827375,0.822963,-4.333580,5.914373,-0.976304,-0.128440,0.596635,-0.061832,-143.815618,188.722436,1568.274102,911.202116,0
0.052078,-197.152892,58.510710,117.208902,5.178738,6.082642,-4.767763,-1.691980,-6.068534,4.861003,1.549767,-0.205153,0.597549,-0.050629,-157.161418,188.496279,1569.105646,911.356643,0
0.053120,-165.632083,-11.679342,167.473107,6.117468,6.473173,-2.993806,-3.669606,-6.502272,3.215899,3.410521,-0.197847,0.609504,-0.058098,-124.045739,188.571594,1570.787936,911.233603,0
0.054162,-120.681753,-80.021016,189.447538,6.535938,6.018737,-0.346761,-5.568874,-6.090588,0.550999,5.324642,-0.245336,0.615906,-0.091706,-81.350490,188.496241,1573.112115,911.173406,0
0.055203,-39.900465,-135.556932,191.146402,6.569868,4.602176,2.042327,-6.318879,-4.715858,-1.841116,6.036212,-0.278213,0.622961,-0.054364,-12.732721,188.646994,1576.487746,910.797040,0
0.056245,37.648211,-175.387672,164.001516,6.049608,2.670825,4.209174,-6.296491,-2.782413,-4.019199,6.157179,-0.270907,0.587620,-0.069301,47.764467,188.496199,1578.130993,909.623002,0
0.057287,99.317386,-186.707479,94.902084,4.748958,-0.030937,5.768827,-5.050213,-0.102791,-5.588762,4.926164,-0.241683,0.604343,-0.050629,93.196736,188.571538,1579.108800,908.362901,0
0.058328,146.127886,-188.543777,9.023295,3.142938,-2.296015,6.471266,-3.490500,2.268067,-6.411314,3.435426,-0.201500,0.601208,-0.069301,128.314286,188.496156,1579.980577,907.787409,0
0.059370,172.748734,-143.264548,-63.018371,1.774428,-4.319673,6.010911,-0.997945,4.197836,-5.970661,1.161962,-0.172276,0.604278,-0.054364,148.841935,188.722373,1580.724944,907.563627,0
0.060412,196.862890,-59.531803,-116.963447,0.722598,-5.963452,4.911613,1.550580,5.954845,-4.917291,-1.428151,-0.095563,0.608720,-0.054364,162.244285,188.496109,1581.888755,906.880922,0
0.061453,166.022632,11.503913,-167.215341,-0.238752,-6.389485,3.105907,3.535669,6.351826,-3.230221,-3.260442,-0.062686,0.616102,-0.073035,129.219086,188.571598,1583.071844,906.043659,0
0.062495,119.824627,80.872464,-189.620645,-0.668532,-5.913748,0.486642,5.378966,5.965872,-0.603091,-5.146101,-0.051727,0.571746,-0.065566,83.628477,188.496185,1583.854159,905.898410,0
0.063537,38.306076,135.623121,-191.159470,-0.736392,-4.546891,-1.874665,6.128971,4.580114,1.759647,-5.928827,-0.004238,0.585726,-0.061832,17.103058,188.722411,1584.060493,906.657997,0
0.064578,-38.369227,175.864612,-163.694508,-0.159582,-2.601339,-4.021669,6.181210,2.639318,3.983894,-6.046236,-0.029809,0.611268,-0.039427,-43.495921,188.496020,1583.899494,906.706149,0
0.065620,-99.391880,186.532050,-95.382955,1.095828,0.075571,-5.664663,4.942396,-0.003546,5.595424,-4.843684,-0.033462,0.611856,-0.061832,-87.706710,188.571576,1583.774356,906.825636,0
0.066662,-146.814875,188.839503,-9.701136,2.735778,2.415205,-6.367102,3.352832,-2.392784,6.430566,-3.299578,-0.062686,0.609896,-0.050629,-122.926049,188.496132,1585.141885,907.124270,0
0.067703,-172.936653,144.236805,63.189962,4.070358,4.453064,-5.819438,0.822963,-4.362986,5.939553,-1.026114,-0.168623,0.600032,-0.050629,-143.917408,188.722395,1585.927364,907.435493,0
0.068745,-197.096179,59.283888,117.171970,5.156118,6.032938,-4.704266,-1.691980,-6.061182,4.848413,1.553325,-0.172276,0.592389,-0.065566,-156.912598,188.496232,1586.028777,907.029705,0
0.069787,-165.768193,-12.621653,166.832955,6.106158,6.462522,-2.985869,-3.699457,-6.450812,3.220096,3.424752,-0.234377,0.567435,-0.009553,-123.412379,188.571565,1585.393414,906.810642,0
0.070828,-119.116488,-80.661304,189.816857,6.581178,6.047139,-0.354698,-5.598724,-6.086913,0.567786,5.310411,-0.267254,0.626227,-0.065566,-80.061150,188.496177,1584.615677,907.534106,0
0.071870,-38.959037,-135.242828,191.097160,6.592488,4.619927,2.010578,-6.330073,-4.737912,-1.782362,6.050443,-0.259948,0.613227,-0.080503,-13.456561,188.722391,1583.999831,908.465152,0
0.072912,37.081086,-175.822585,164.013826,6.083538,2.741830,4.133771,-6.333804,-2.866956,-4.015002,6.139389,-0.296478,0.621197,-0.061832,46.622157,188.571596,1583.836555,909.262507,0
0.073953,99.090536,-186.175920,96.317803,4.737648,-0.030937,5.784701,-5.057676,-0.157928,-5.622336,4.961742,-0.241683,0.612901,-0.076769,94.056296,188.571654,1584.372231,909.712891,0
0.074995,146.558901,-188.712909,9.589583,3.109008,-2.324417,6.463329,-3.445724,2.257040,-6.411314,3.414079,-0.201500,0.602645,-0.058098,128.936336,188.496181,1584.484504,909.516655,0
0.076037,172.521884,-143.047092,-63.486174,1.819668,-4.330324,5.967256,-0.971826,4.241945,-5.966465,1.126383,-0.175929,0.593434,-0.073035,148.287745,188.722463,1584.905253,909.071594,0
0.077078,197.112425,-57.864638,-116.864962,0.745218,-6.009606,4.883833,1.569237,6.002629,-4.921488,-1.463729,-0.091910,0.570701,-0.061832,162.968125,188.571359,1585.326687,909.287215,0
0.078120,165.568932,12.385819,-167.276894,-0.193512,-6.393036,3.133687,3.584177,6.355501,-3.196647,-3.324483,-0.066339,0.621132,-0.076769,128.947646,188.496062,1585.728383,908.851364,0
0.079162,120.255642,80.582522,-189.583713,-0.691152,-5.956351,0.470768,5.453593,5.951169,-0.544337,-5.231489,-0.051727,0.613946,-0.050629,84.646377,188.571596,1587.119333,907.768457,0
0.080203,39.667176,135.888900,-191.048675,-0.725082,-4.514939,-1.973880,6.192404,4.510275,1.835187,-5.943058,-0.015197,0.618453,-0.050629,18.754318,188.722400,1588.140410,906.101966,0
0.081245,-37.768075,175.659236,-164.113069,-0.227442,-2.551635,-4.085166,6.166285,2.650345,4.055238,-6.039120,-0.015197,0.599444,-0.024490,-43.371511,188.571715,1589.063263,905.549227,0
0.082287,-99.425908,187.522684,-93.844129,1.163688,0.185630,-5.716254,4.908813,-0.069710,5.637391,-4.825894,-0.059033,0.602318,-0.069301,-88.362690,188.571599,1589.737730,905.241282,0
0.083328,-146.304462,188.984474,-8.199242,2.758398,2.489760,-6.414725,3.270742,-2.481002,6.426369,-3.231979,-0.080951,0.600032,-0.039427,-123.005219,188.496167,1590.125458,904.077262,0
0.084370,-173.560491,142.919987,63.226894,4.126908,4.516969,-5.910715,0.755798,-4.421798,5.964733,-0.958515,-0.121134,0.598529,-0.080503,-144.584698,188.722411,1590.918189,903.685051,0
0.085412,-197.368399,59.440940,117.011932,5.167428,6.128796,-4.700297,-1.751682,-6.134697,4.814839,1.624482,-0.143052,0.599836,-0.024490,-157.195348,188.571695,1592.321842,902.705488,0
0.086453,-165.722823,-11.087378,167.830114,6.117468,6.508675,-2.918403,-3.789010,-6.550057,3.098392,3.503025,-0.201500,0.614599,-0.065566,-123.898709,188.571561,1594.708551,901.160735,0
0.087495,-120.375506,-80.383443,189.546023,6.490698,6.008086,-0.275326,-5.662158,-6.042804,0.488049,5.378010,-0.289172,0.590690,-0.050629,-80.468310,188.496051,1596.013955,899.423873,0
0.088537,-38.267145,-135.520689,191.503410,6.581178,4.559573,2.117730,-6.374849,-4.623964,-1.853706,6.100253,-0.300131,0.602188,-0.043161,-11.658271,188.722779,1596.886163,898.015783,0
0.089578,38.895886,-175.013164,164.272349,6.106158,2.653073,4.268702,-6.322610,-2.753007,-4.098936,6.171410,-0.281866,0.611986,-0.054364,47.832327,188.571109,1597.941643,896.963529,0
0.090620,98.988454,-187.468576,94.705114,4.726338,-0.123244,5.852167,-5.046482,-0.043979,-5.660106,4.947511,-0.219765,0.610614,-0.054364,93.004466,188.571038,1598.968119,896.225763,0
0.091661,146.366078,-188.592100,10.057386,3.154248,-2.377671,6.499047,-3.412142,2.326879,-6.474264,3.374942,-0.205153,0.609177,-0.076769,128.359526,188.495705,1600.302034,895.338980,0
0.092703,173.554052,-143.010849,-62.304356,1.797048,-4.394229,5.967256,-0.923318,4.289730,-5.949678,1.026763,-0.124787,0.598268,-0.073035,149.475295,188.721880,1601.413216,893.741460,0
0.093745,197.123768,-58.649897,-116.729546,0.733908,-6.030907,4.824304,1.632670,6.076144,-4.887915,-1.517097,-0.124787,0.591017,-0.050629,162.278215,188.571094,1602.777712,892.738461,0
0.094786,165.478192,12.977783,-167.264584,-0.250062,-6.382385,3.058284,3.669998,6.384907,-3.121107,-3.367177,-0.080951,0.610680,-0.069301,128.913716,188.571196,1603.412369,891.961035,0
0.095828,119.041994,81.476509,-189.472917,-0.657222,-5.938600,0.415208,5.479713,5.943817,-0.548534,-5.245720,-0.007891,0.597941,-0.035692,83.617167,188.495718,1602.987603,892.432705,0
0.096870,38.340103,135.768091,-191.491857,-0.736392,-4.511388,-1.977848,6.211061,4.480869,1.889744,-5.946616,-0.029809,0.613227,-0.054364,17.872138,188.721777,1603.195663,892.007787,0
0.097911,-37.677335,175.755884,-164.150001,-0.193512,-2.572936,-4.140727,6.177479,2.554776,4.097205,-6.046236,-0.011544,0.617800,-0.043161,-43.032211,188.571207,1603.964915,890.752343,0
0.098953,-98.847440,187.305228,-95.075190,1.107138,0.192730,-5.716254,4.916276,-0.110143,5.633194,-4.850799,-0.037115,0.609896,-0.035692,-87.469200,188.571078,1604.619360,890.057245,0
0.099995,-146.690107,189.032797,-9.159470,2.781018,2.521713,-6.402819,3.285667,-2.503056,6.447353,-3.256884,-0.077298,0.605062,-0.035692,-122.733779,188.495723,1605.365955,890.141751,0
0.101036,-173.288271,143.064957,63.620834,4.092978,4.538271,-5.867061,0.800575,-4.432825,5.985717,-0.940726,-0.128440,0.599052,-0.061832,-144.607318,188.721982,1605.683617,890.140167,0
0.102078,-197.561222,57.822099,116.987311,5.144808,6.128796,-4.696328,-1.781533,-6.171455,4.844216,1.628040,-0.183235,0.598072,-0.043161,-156.935218,188.571051,1605.842328,890.940026,0
0.103120,-165.598055,-12.319630,167.386932,6.128778,6.515776,-2.969994,-3.800204,-6.553733,3.161342,3.520814,-0.227071,0.595394,-0.080503,-123.559409,188.495662,1605.669173,891.916522,0
0.104161,-120.035231,-80.190149,189.890720,6.502008,6.068441,-0.267389,-5.643501,-6.097940,0.534213,5.399357,-0.259948,0.614665,-0.061832,-80.637960,188.495716,1606.079366,892.971437,0
0.105203,-39.696300,-135.375718,191.331061,6.569868,4.598626,2.097887,-6.356193,-4.745264,-1.925049,6.114484,-0.285519,0.620217,-0.009553,-13.467871,188.721987,1607.548658,893.357896,0
0.106245,37.580156,-175.520562,164.309281,6.072228,2.649523,4.284577,-6.315148,-2.786089,-4.090543,6.182083,-0.278213,0.624006,-0.061832,47.436477,188.571056,1607.849846,893.526547,0
0.107286,99.090536,-187.130311,94.729735,4.737648,-0.098392,5.879948,-5.057676,-0.047655,-5.681089,4.951068,-0.248989,0.606760,-0.054364,93.931886,188.495644,1607.989431,893.582743,0
0.108328,146.229968,-188.821637,8.814015,3.154248,-2.441576,6.570481,-3.423336,2.370988,-6.465871,3.371384,-0.245336,0.598987,-0.050629,128.891096,188.495769,1608.133739,893.552861,0
0.109370,173.247804,-142.491371,-63.067614,1.797048,-4.472335,6.030754,-0.878542,4.333839,-5.995841,1.037437,-0.139399,0.598529,-0.065566,149.215165,188.721858,1608.656069,894.223152,0
0.110411,197.361960,-58.758625,-116.680303,0.767838,-6.091262,4.844147,1.658790,6.105550,-4.883718,-1.527770,-0.091910,0.593891,-0.076769,163.047295,188.571105,1609.183827,894.118776,0
