1-Time,2-VGERA,3-VGERB,4-VGERC,5-VN,6-IGERAN,7-IGERBN,8-IGERCN,9-IGERAT,10-IGERBT,11-IGERCT,12-IN,13-IFD,14-IFAULT,15-VFAULT,16-Speed (rad/s),17-Active Power,18-Reactive Power,19-FAULT 
0.000000,184.578962,-130.567518,-12.175568,2.724468,-6.566999,2.264568,4.375227,6.943622,-2.357309,-4.245965,-0.022503,0.308225,-0.050629,-76.306230,188.495620,1511.295139,-910.625509,0
0.001042,194.560363,-70.078432,-73.876326,1.559538,-5.501916,-0.453912,5.878969,5.862951,0.395722,-5.590831,-0.022503,0.315411,-0.061832,-123.355829,188.571428,1511.388311,-911.239406,0
0.002083,171.172127,-18.094302,-152.381061,0.055308,-4.248668,-2.719974,6.625243,4.627899,2.678723,-6.423368,-0.015197,0.329456,0.005384,-170.869138,188.496024,1511.956092,-911.715918,0
0.003125,115.798039,34.530116,-195.997538,-0.759012,-1.905484,-4.366936,5.834193,2.400394,4.273466,-5.690451,-0.015197,0.341606,-0.043161,-186.985887,188.571455,1512.467456,-911.646833,0
0.004167,57.202682,101.325434,-200.872538,-0.838182,0.675568,-6.029773,4.681200,-0.297606,6.082240,-4.665791,-0.007891,0.326516,-0.024490,-169.613728,188.496074,1513.504827,-912.352871,0
0.005208,6.388280,164.266944,-155.360228,-0.012552,3.114609,-6.398851,2.681185,-2.716250,6.476730,-2.687629,-0.069992,0.317566,-0.039427,-122.790329,188.571561,1514.520337,-912.892885,0
0.006250,-46.172868,212.155647,-90.840341,1.220238,5.134718,-5.617040,-0.035252,-4.778346,5.780079,-0.104632,-0.095563,0.314039,-0.043161,-57.248880,188.496089,1515.033628,-913.898014,0
0.007292,-118.061636,181.735931,-38.938826,2.204208,6.448321,-3.974046,-2.733032,-6.028101,4.147565,2.506828,-0.164970,0.297773,-0.031958,17.363188,188.571489,1515.190432,-914.776881,0
0.008333,-184.789566,130.899487,12.778030,3.176868,6.689740,-2.100875,-4.591255,-6.421406,2.380757,4.420949,-0.234377,0.309727,-0.058098,82.373067,188.496022,1516.218921,-915.355102,0
0.009375,-194.952447,70.301673,74.528031,4.364418,5.695662,0.609668,-6.117385,-5.370141,-0.351290,5.776489,-0.248989,0.317501,-0.039427,129.535766,188.571455,1517.504240,-916.285216,0
0.010417,-171.768376,18.232976,152.355682,5.778168,4.399810,2.875730,-6.766643,-4.113035,-2.672061,6.626814,-0.267254,0.329521,-0.069301,177.060385,188.496129,1519.347906,-917.324409,0
0.011458,-115.498231,-34.222309,196.366099,6.705588,2.124082,4.558409,-6.039026,-1.922288,-4.279394,5.858319,-0.241683,0.341345,-0.031958,192.996174,188.496015,1520.481934,-918.095864,0
0.012500,-57.141066,-101.126355,200.822538,6.807378,-0.559929,6.181560,-4.859913,0.834525,-6.050398,4.812312,-0.238030,0.318481,-0.050629,174.809695,188.496109,1520.581088,-919.161234,0
0.013542,-6.394718,-164.369888,155.162500,5.925198,-2.981218,6.578418,-2.878556,3.253168,-6.440691,2.823476,-0.216112,0.304828,-0.054364,127.703546,188.571475,1521.821146,-919.923148,0
0.014583,46.257169,-211.908245,90.814962,4.737648,-4.994226,5.760890,-0.135999,5.296885,-5.714663,0.286731,-0.117481,0.313843,-0.024490,62.591877,188.496076,1521.977588,-920.385604,0
0.015625,117.794319,-181.730147,39.073485,3.708438,-6.261675,4.121865,2.599095,6.568695,-4.086346,-2.367422,-0.062686,0.301366,-0.065566,-11.692201,188.496194,1522.102500,-921.151119,0
0.016667,184.340770,-130.567518,-12.384849,2.735778,-6.574100,2.280442,4.464780,6.954649,-2.353112,-4.242408,-0.044421,0.311426,-0.046895,-76.905660,188.496038,1522.133424,-921.121469,0
0.017708,194.503650,-70.018027,-74.110228,1.525608,-5.544519,-0.465818,5.923746,5.840896,0.332771,-5.612179,0.014027,0.318742,-0.035692,-124.950539,188.496098,1522.422667,-920.621219,0
0.018750,171.036017,-17.961412,-152.331819,0.077928,-4.284170,-2.684256,6.602855,4.635250,2.666132,-6.402021,0.021333,0.332330,-0.073035,-173.210308,188.496006,1522.282136,-920.205618,0
0.019792,115.480449,34.675087,-196.256061,-0.702462,-1.951638,-4.382810,5.871507,2.411422,4.286056,-5.711798,-0.000585,0.345068,-0.046895,-188.105577,188.496125,1522.752547,-920.192968,0
0.020833,56.839722,101.518729,-200.786364,-0.838182,0.675568,-5.982150,4.696125,-0.319661,6.027683,-4.648002,-0.004238,0.327561,-0.050629,-170.133988,188.496156,1522.109324,-919.762118,0
0.021875,6.036662,164.254863,-155.187879,0.032688,3.118160,-6.382977,2.651334,-2.683168,6.443156,-2.687629,-0.066339,0.339320,-0.069301,-124.656479,188.571625,1521.806073,-919.007923,0
0.022917,-46.388375,212.095243,-90.581818,1.242858,5.116966,-5.601165,-0.042715,-4.756291,5.754898,-0.147326,-0.179582,0.311034,-0.028224,-58.300710,188.496726,1521.766215,-918.174565,0
0.023958,-117.970896,181.784255,-38.754167,2.215518,6.387966,-3.966109,-2.736764,-5.987667,4.126582,2.464134,-0.172276,0.300255,-0.035692,17.973928,188.496188,1521.340365,-917.386970,0
0.025007,-185.175211,129.981338,13.627462,3.222108,6.703941,-2.061189,-4.565135,-6.428757,2.355577,4.406718,-0.194194,0.311361,-0.020755,81.796257,188.496170,1521.430476,-916.864600,0
0.026054,-194.589487,68.948611,76.325379,4.375728,5.614005,0.617605,-6.106191,-5.333384,-0.376470,5.858319,-0.234377,0.319134,-0.054364,130.892966,188.571549,1521.898715,-917.042337,0
0.027092,-171.223936,17.290666,153.217425,5.834718,4.389159,2.867792,-6.759181,-4.113035,-2.684651,6.562773,-0.234377,0.332787,-0.020755,177.116935,188.496120,1521.635915,-916.218544,0
0.028125,-115.452861,-34.451846,196.169129,6.649038,2.131182,4.526660,-6.091265,-1.907585,-4.279394,5.865435,-0.256295,0.345852,-0.024490,191.559804,188.496143,1521.583658,-916.248931,0
0.029167,-56.766763,-101.537106,200.871781,6.796068,-0.556378,6.153780,-4.833794,0.860255,-6.012628,4.822986,-0.216112,0.336315,-0.017021,175.963315,188.496141,1521.494955,-915.964463,0
0.030209,-5.906991,-164.212836,155.174811,5.800788,-2.998970,6.554607,-2.822585,3.238465,-6.407117,2.816360,-0.197847,0.298361,-0.039427,126.877916,188.571462,1521.115771,-915.478200,0
0.031250,46.529389,-212.210268,90.654925,4.737648,-5.011977,5.760890,-0.098685,5.311588,-5.756630,0.268942,-0.146705,0.304893,-0.046895,62.829387,188.496210,1521.726519,-915.763113,0
0.032292,118.089224,-181.705985,39.036553,3.674508,-6.304279,4.173456,2.565513,6.583398,-4.136707,-2.346075,-0.091910,0.300386,-0.035692,-12.506521,188.496255,1522.577312,-915.416925,0
0.033334,184.794470,-130.567518,-12.421780,2.713158,-6.566999,2.272505,4.446123,6.969352,-2.411866,-4.217503,-0.040768,0.312667,-0.043161,-76.588980,188.496172,1523.413487,-914.770632,0
0.034375,194.446938,-70.078432,-74.565720,1.548228,-5.523218,-0.457881,5.953597,5.907060,0.336968,-5.658431,0.021333,0.319134,-0.017021,-125.221979,188.571476,1524.562989,-915.225637,0
0.035417,171.274209,-17.985574,-152.750379,0.145788,-4.287721,-2.708068,6.651363,4.653629,2.670329,-6.462504,-0.007891,0.335792,-0.013287,-171.276298,188.496082,1525.545640,-915.698163,0
0.036459,114.901982,34.904624,-196.625379,-0.668532,-1.944537,-4.418528,5.927477,2.576830,4.340613,-5.740261,-0.015197,0.345330,-0.046895,-187.370427,188.496177,1527.523718,-914.832842,0
0.037500,56.351994,101.844913,-200.724811,-0.838182,0.672018,-6.045647,4.707319,-0.330688,6.040274,-4.701370,-0.022503,0.323380,-0.046895,-169.104778,188.496174,1528.301939,-914.709508,0
0.038542,5.968607,165.233416,-154.560038,0.066618,3.146562,-6.434568,2.733425,-2.694195,6.506106,-2.673397,-0.073645,0.304632,-0.050629,-122.111729,188.420680,1529.091835,-915.026013,0
0.039583,-46.479115,212.167728,-90.544887,1.174998,5.152469,-5.609103,-0.053909,-4.829806,5.792669,-0.090400,-0.117481,0.317697,-0.065566,-56.694690,188.496132,1529.492736,-916.353305,0
0.040625,-119.014406,181.506394,-38.606440,2.238138,6.476723,-4.013732,-2.815123,-6.053831,4.168549,2.535291,-0.201500,0.299406,-0.013287,18.007858,188.496125,1530.634819,-917.290002,0
0.041667,-185.095814,130.754516,13.085795,3.199488,6.746544,-2.148498,-4.609911,-6.465515,2.376561,4.435181,-0.230724,0.312014,-0.091706,82.633197,188.496179,1531.181888,-918.072335,0
0.042708,-194.941104,70.289592,75.229735,4.364418,5.695662,0.629511,-6.117385,-5.392196,-0.338700,5.808510,-0.230724,0.318612,-0.054364,129.988166,188.420703,1531.475625,-917.969670,0
0.043750,-171.711663,18.136329,152.540341,5.812098,4.410461,2.887635,-6.837539,-4.149792,-2.659471,6.612583,-0.270907,0.331546,-0.035692,177.230035,188.496190,1532.083941,-918.339596,0
0.044792,-114.500091,-34.572655,196.870834,6.694278,2.081478,4.578252,-6.109922,-1.881855,-4.308771,5.876109,-0.270907,0.335204,-0.087972,193.131894,188.496163,1532.266332,-918.592912,0
0.045833,-56.347091,-101.476702,200.625569,6.807378,-0.570579,6.181560,-4.874839,0.808795,-6.062989,4.840775,-0.252642,0.323838,-0.065566,174.368605,188.496147,1532.987264,-918.245165,0
0.046875,-6.065786,-165.058499,154.436175,5.936508,-2.995419,6.614136,-2.856168,3.249493,-6.474264,2.834150,-0.164970,0.325993,-0.058098,127.081496,188.420797,1534.031230,-918.435685,0
0.047917,46.552074,-211.896164,90.642614,4.760268,-5.040380,5.721204,-0.061372,5.289534,-5.748237,0.265384,-0.154011,0.323446,-0.065566,62.150787,188.496172,1533.709491,-918.163605,0
0.048958,118.667692,-181.391882,38.876515,3.697128,-6.286527,4.129802,2.576707,6.587074,-4.124116,-2.363864,-0.099216,0.302150,-0.031958,-12.212461,188.496105,1533.712841,-918.210589,0
0.050000,184.578962,-130.543357,-12.667992,2.713158,-6.581200,2.284411,4.397616,6.962000,-2.378292,-4.235292,-0.015197,0.314496,-0.028224,-77.267580,188.420707,1533.338445,-918.540683,0
0.051042,194.605733,-70.054270,-74.824243,1.525608,-5.548069,-0.461849,5.938671,5.918087,0.328575,-5.619294,0.003068,0.319526,-0.031958,-125.448179,188.420712,1533.430355,-918.040469,0
0.052083,171.092729,-17.840603,-152.602652,0.100548,-4.245117,-2.692194,6.625243,4.653629,2.674526,-6.419810,0.006721,0.329978,-0.046895,-173.504368,188.496145,1532.941202,-917.682133,0
0.053125,114.448282,35.073756,-196.662311,-0.713772,-1.940987,-4.410590,5.916283,2.422449,4.281859,-5.715356,-0.000585,0.331023,-0.020755,-188.173437,188.496065,1531.215896,-917.969303,0
0.054167,56.011719,101.953641,-200.601705,-0.804252,0.725272,-5.970244,4.681200,-0.282903,6.048667,-4.644444,-0.037115,0.315933,-0.035692,-169.704208,188.493351,1530.846243,-917.449656,0
0.055208,5.753100,164.834746,-154.572349,0.032688,3.093308,-6.386945,2.647603,-2.705223,6.430566,-2.684071,-0.055380,0.324818,-0.043161,-123.989189,188.491485,1530.068887,-917.014135,0
0.056250,-46.683280,212.059000,-90.507955,1.186308,5.145369,-5.537668,-0.053909,-4.745264,5.738112,-0.104632,-0.117481,0.311622,-0.017021,-57.848310,188.495957,1529.205208,-915.835424,0
0.057292,-118.719501,181.603041,-38.643371,2.215518,6.419918,-3.942297,-2.759152,-6.009722,4.143368,2.510386,-0.223418,0.300778,-0.035692,18.392398,188.495997,1528.551197,-915.357696,0
0.058333,-185.515486,130.645788,12.987311,3.154248,6.693290,-2.120717,-4.580061,-6.425082,2.368167,4.374697,-0.223418,0.312471,-0.050629,81.377787,188.420730,1528.082654,-914.540560,0
0.059375,-194.884392,71.739300,75.242046,4.353108,5.656609,0.613637,-6.065146,-5.355438,-0.338700,5.762258,-0.227071,0.318742,-0.058098,129.954236,188.420730,1527.353113,-914.630908,0
0.060417,-171.133196,18.051763,153.069697,5.800788,4.399810,2.847949,-6.777837,-4.120386,-2.634291,6.566331,-0.281866,0.333832,-0.050629,177.128245,188.496120,1526.709856,-913.923783,0
0.061458,-114.579488,-34.898840,196.476895,6.637728,2.081478,4.514755,-6.020369,-1.903909,-4.275197,5.822741,-0.227071,0.348792,-0.039427,191.559804,188.496145,1526.131315,-913.108737,0
0.062500,-55.927418,-101.778724,200.662501,6.739518,-0.598982,6.157748,-4.833794,0.805119,-6.029415,4.780292,-0.241683,0.352777,-0.024490,174.085855,188.422282,1525.338459,-912.664003,0
0.063542,-5.589401,-164.575263,154.546970,5.891268,-2.967017,6.526827,-2.833779,3.234790,-6.444888,2.787898,-0.205153,0.317175,-0.035692,126.301106,188.424836,1524.492517,-912.468875,0
0.064583,46.665499,-212.004892,90.494887,4.692408,-5.001327,5.729141,-0.098685,5.278507,-5.718860,0.276058,-0.154011,0.310511,-0.050629,62.422227,188.483558,1524.254776,-912.145384,0
0.065625,118.599637,-181.234830,38.778030,3.663198,-6.307829,4.098053,2.617752,6.539289,-4.115723,-2.338960,-0.069992,0.301758,-0.028224,-12.495211,188.495338,1523.797345,-911.430335,0
0.066667,184.907895,-130.470871,-12.680303,2.701848,-6.545698,2.236788,4.397616,6.973028,-2.336325,-4.221060,-0.048074,0.314039,-0.073035,-76.702080,188.419880,1523.640018,-911.599983,0
0.067708,194.322170,-70.162998,-75.058144,1.491678,-5.540969,-0.477724,5.920014,5.877654,0.353755,-5.590831,0.017680,0.320963,-0.069301,-124.271939,188.419898,1522.849963,-911.517916,0
0.068750,171.104072,-17.466095,-152.787311,0.111858,-4.266419,-2.712036,6.632706,4.649953,2.670329,-6.469620,0.024986,0.328998,-0.058098,-171.163198,188.495164,1523.420007,-911.701249,0
0.069792,113.903842,35.436184,-196.822349,-0.702462,-1.933886,-4.438370,5.901358,2.382016,4.315433,-5.715356,0.010374,0.343435,-0.046895,-187.223397,188.419828,1523.296388,-912.108411,0
0.070833,55.603389,102.122774,-200.527842,-0.815562,0.728822,-6.045647,4.696125,-0.312309,6.078044,-4.637329,-0.059033,0.316391,-0.043161,-168.663688,188.418209,1523.351448,-912.481315,0
0.071875,5.696387,165.632086,-153.944508,0.055308,3.153662,-6.406788,2.632678,-2.741980,6.434763,-2.666281,-0.040768,0.310250,-0.065566,-121.546229,188.419889,1523.433895,-912.791075,0
0.072917,-46.910130,212.059000,-90.335606,1.231548,5.184422,-5.561480,-0.091222,-4.770994,5.788472,-0.037033,-0.128440,0.309727,-0.028224,-56.355390,188.495282,1523.719651,-913.626609,0
0.073958,-119.445421,181.240614,-38.606440,2.215518,6.469622,-3.966109,-2.815123,-6.028101,4.139172,2.560195,-0.161317,0.299341,-0.058098,18.234058,188.419916,1523.868360,-914.142643,0
0.075003,-185.152526,130.416251,13.578220,3.210798,6.693290,-2.124686,-4.606180,-6.439785,2.368167,4.403160,-0.227071,0.314562,-0.058098,82.983807,188.419922,1524.050362,-914.269748,0
0.076042,-194.827679,70.349996,75.672917,4.353108,5.667259,0.609668,-6.117385,-5.355438,-0.359683,5.812067,-0.267254,0.318677,-0.039427,130.225676,188.422879,1524.386743,-914.355575,0
0.077084,-171.314676,17.411475,152.725000,5.800788,4.403360,2.883667,-6.747986,-4.131414,-2.693044,6.633930,-0.248989,0.331285,-0.050629,177.456235,188.495747,1525.082176,-915.288493,0
0.078125,-113.660746,-35.031729,197.203220,6.694278,2.106330,4.578252,-6.057683,-1.885530,-4.342344,5.897456,-0.234377,0.344154,-0.039427,193.177134,188.420321,1526.193789,-916.102085,0
0.079167,-55.723253,-101.742481,200.465531,6.796068,-0.581230,6.145843,-4.818868,0.863931,-6.033612,4.776734,-0.205153,0.315345,-0.039427,173.961445,188.472457,1525.859237,-916.628741,0
0.080208,-5.759538,-165.541735,153.968372,5.925198,-3.062875,6.610167,-2.796466,3.326683,-6.428101,2.805687,-0.223418,0.292808,-0.039427,126.583856,188.401962,1526.114852,-917.340174,0
0.081250,46.949061,-211.872002,90.470265,4.703718,-5.033279,5.713267,-0.072566,5.326291,-5.723056,0.197785,-0.113828,0.311949,-0.084238,61.788867,188.475464,1525.861725,-918.474177,0
0.082292,119.325557,-181.198587,38.679546,3.674508,-6.258125,4.102022,2.606558,6.546641,-4.124116,-2.381654,-0.091910,0.302934,-0.035692,-12.585691,188.409999,1526.180678,-918.850453,0
0.083333,184.669702,-130.482952,-12.926515,2.667918,-6.527946,2.268536,4.427466,6.947297,-2.340522,-4.206829,-0.029809,0.315345,-0.039427,-77.459850,188.411147,1525.896053,-918.466640,0
0.084375,194.367540,-70.054270,-75.304356,1.514298,-5.505466,-0.473755,5.968522,5.870302,0.328575,-5.580158,-0.026156,0.320506,-0.050629,-125.742239,188.406832,1525.995165,-918.028034,0
0.085417,170.752454,-16.946616,-152.602652,0.089238,-4.252218,-2.712036,6.584198,4.602169,2.666132,-6.412694,0.003068,0.333049,-0.076769,-173.549608,188.491339,1524.881034,-917.491414,0
0.086458,113.529539,35.593235,-196.822349,-0.747702,-1.926786,-4.374873,5.882701,2.363637,4.294449,-5.669104,-0.015197,0.335466,-0.005818,-187.969857,188.495213,1524.136879,-917.083399,0
0.087500,55.353854,102.195259,-200.392425,-0.826872,0.714621,-5.990087,4.651349,-0.334364,6.036077,-4.601750,-0.007891,0.328214,-0.054364,-169.251808,188.345323,1523.317437,-916.847793,0
0.088542,5.424167,165.197174,-154.153788,0.010068,3.128811,-6.382977,2.610289,-2.730953,6.388599,-2.655608,-0.091910,0.334878,-0.054364,-123.434999,188.420770,1522.654650,-916.502777,0
0.089583,-47.046240,211.998596,-90.298675,1.231548,5.131167,-5.525762,-0.098685,-4.763643,5.733915,-0.040591,-0.143052,0.312798,-0.046895,-57.509010,188.496181,1522.040637,-916.266720,0
0.090625,-119.252598,181.325180,-38.520265,2.181588,6.437670,-3.942297,-2.762883,-5.987667,4.122385,2.513943,-0.197847,0.301562,-0.050629,18.720388,188.496138,1521.623388,-915.488094,0
0.091667,-185.458774,130.645788,13.233523,3.176868,6.682639,-2.092937,-4.546478,-6.406703,2.347184,4.378255,-0.205153,0.313320,-0.076769,81.536127,188.471346,1521.109482,-915.402074,0
0.092708,-194.691569,70.301673,75.599053,4.353108,5.642408,0.621574,-6.083803,-5.318681,-0.351290,5.748026,-0.238030,0.319004,-0.024490,130.180436,188.405316,1520.278867,-914.638401,0
0.093750,-171.065141,17.351070,153.032766,5.868648,4.414011,2.867792,-6.733061,-4.065250,-2.638487,6.569889,-0.274560,0.332003,-0.050629,177.162175,188.515507,1519.112768,-913.742973,0
0.094792,-113.728801,-35.369995,196.526137,6.660348,2.060177,4.518723,-6.035295,-1.771582,-4.338148,5.772931,-0.245336,0.324491,-0.017021,191.299674,188.289048,1516.622276,-914.089352,0
0.095833,-55.564458,-102.092828,200.465531,6.762138,-0.623834,6.149811,-4.781554,0.860255,-5.979055,4.741155,-0.230724,0.329586,-0.058098,173.588215,188.345240,1515.962787,-913.507564,0
0.096875,-5.464633,-164.889367,154.263826,5.902578,-2.991869,6.522858,-2.766615,3.209059,-6.365150,2.791455,-0.219765,0.332134,-0.024490,125.882636,188.419795,1515.032979,-911.900305,0
0.097917,47.187254,-211.980730,90.457955,4.692408,-5.015528,5.645801,-0.109879,5.252776,-5.664303,0.251153,-0.106522,0.309923,-0.020755,62.196027,188.478141,1514.527160,-910.507229,0
0.098958,119.268845,-181.198587,38.778030,3.697128,-6.268776,4.094085,2.614021,6.539289,-4.119920,-2.338960,-0.062686,0.303783,-0.043161,-12.800581,188.420010,1514.508485,-910.021624,0
0.100000,185.112060,-130.507114,-13.074242,2.713158,-6.506645,2.276473,4.397616,6.925243,-2.340522,-4.210387,-0.033462,0.314953,-0.046895,-77.007450,188.344401,1514.507655,-909.947008,0
0.101042,194.310828,-70.066351,-75.562879,1.536918,-5.512567,-0.505504,5.893895,5.840896,0.357951,-5.601505,-0.000585,0.322858,-0.035692,-124.656479,188.419949,1514.212139,-910.411254,0
0.102083,170.707084,-16.620432,-152.811932,0.145788,-4.255768,-2.712036,6.614049,4.576438,2.678723,-6.412694,0.024986,0.320310,-0.050629,-171.298918,188.495325,1514.050466,-910.533992,0
0.103125,113.098524,36.003986,-197.031629,-0.736392,-1.965839,-4.446308,5.867775,2.389367,4.323826,-5.697567,0.006721,0.327823,-0.039427,-187.008507,188.420039,1514.819888,-910.487362,0
0.104167,55.297142,102.448958,-200.306251,-0.792942,0.689769,-6.029773,4.655080,-0.319661,6.094831,-4.619539,-0.040768,0.335270,-0.050629,-168.199978,188.344581,1515.590477,-910.749226,0
0.105208,5.412825,165.934109,-153.735228,0.043998,3.185615,-6.406788,2.617752,-2.756683,6.384402,-2.641377,-0.091910,0.317632,-0.031958,-121.082519,188.419954,1515.626886,-910.958865,0
0.106250,-47.239063,211.950272,-90.286364,1.231548,5.134718,-5.569417,-0.072566,-4.818779,5.742308,-0.061938,-0.124787,0.311099,-0.043161,-56.027400,188.495218,1516.152775,-911.284872,0
0.107292,-120.023888,181.107724,-38.606440,2.158968,6.458971,-3.981983,-2.811391,-6.039128,4.118188,2.556638,-0.154011,0.302150,-0.046895,18.448948,188.419989,1516.626760,-912.071153,0
0.108333,-185.175211,130.778678,13.455114,3.154248,6.664888,-2.132623,-4.576329,-6.410379,2.368167,4.413834,-0.205153,0.314366,-0.031958,82.836777,188.344504,1516.876147,-912.320604,0
0.109375,-194.668884,70.035893,76.140720,4.409658,5.677910,0.637448,-6.128579,-5.373817,-0.347093,5.840530,-0.248989,0.321094,-0.061832,130.553666,188.415883,1518.271541,-913.013189,0
