1-Time,2-VGERA,3-VGERB,4-VGERC,5-VN,6-IGERAN,7-IGERBN,8-IGERCN,9-IGERAT,10-IGERBT,11-IGERCT,12-IN,13-IFD,14-IFAULT,15-VFAULT,16-Speed (rad/s),17-Active Power,18-Reactive Power,19-FAULT 
0.000000,164.196316,-155.434872,-17.687819,-0.113585,-3.058343,3.440685,0.071886,3.114250,-3.383310,0.110001,-0.156487,0.426994,-0.074856,-147.781559,188.495906,1030.887367,147.960628,0
0.001042,180.321310,-103.240047,-81.812191,-1.307070,-3.737196,2.414891,1.612356,3.854158,-2.427898,-1.491051,-0.065333,0.420310,-0.089723,-159.850483,188.571223,1031.985695,147.264417,0
0.002083,181.914599,-24.630694,-137.770639,-2.365445,-3.883975,1.232210,2.842460,3.930325,-1.273795,-2.653045,-0.079917,0.428165,-0.078573,-166.582961,188.571246,1033.200242,146.786225,0
0.003125,151.755099,44.077615,-168.927525,-3.029743,-3.355571,-0.139538,3.429126,3.516847,0.062091,-3.444109,-0.036163,0.433264,-0.078573,-135.791443,188.495973,1035.310988,146.425032,0
0.004167,78.904480,98.738892,-188.844115,-3.423819,-2.258398,-1.965854,4.061210,2.428747,1.884138,-4.023213,-0.054394,0.435537,-0.093440,-70.403094,188.495928,1037.216224,145.838769,0
0.005208,9.432539,147.551153,-174.043379,-3.074780,-0.999769,-2.822694,3.565384,1.231837,2.814185,-3.580369,-0.050748,0.429956,-0.082290,-9.214099,188.571323,1038.527504,144.977132,0
0.006250,-56.626824,180.272752,-124.804805,-2.117740,0.776256,-3.651375,2.672138,-0.396686,3.642772,-2.671970,-0.076271,0.430783,-0.086006,48.845081,188.571310,1040.500335,144.704440,0
0.007292,-111.273263,187.343248,-46.803225,-0.654031,2.170655,-3.755966,1.419324,-1.829351,3.887966,-1.411566,-0.101794,0.420241,-0.063706,100.138008,188.495845,1041.503766,143.675288,0
0.008333,-164.089114,155.326350,19.629965,0.685826,3.271497,-3.353693,0.011327,-2.786879,3.414488,-0.033828,-0.112733,0.418795,-0.071140,148.042179,188.495962,1043.001542,142.545976,0
0.009375,-179.807310,101.393264,82.356894,1.901830,3.898977,-2.275604,-1.544283,-3.490517,2.437938,1.578579,-0.163779,0.420586,-0.078573,160.178653,188.571361,1044.820966,141.039829,0
0.010417,-182.315894,22.960086,137.744213,2.982723,4.031078,-1.117060,-2.732753,-3.505025,1.237332,2.759498,-0.178364,0.377041,-0.108307,167.654181,188.571261,1047.144106,139.863397,0
0.011458,-150.856902,-45.149227,168.925403,3.590725,3.425615,0.254689,-3.326988,-3.044396,-0.119691,3.478647,-0.192949,0.387790,-0.104590,137.763329,188.495931,1048.183828,138.489598,0
0.012500,-77.407387,-98.471573,189.984250,4.029838,2.306426,2.081005,-3.996922,-2.017955,-1.933282,4.103171,-0.189302,0.400260,-0.100873,70.798814,188.495986,1050.937709,137.237214,0
0.013542,-9.223638,-147.812360,173.737465,3.635763,1.051466,2.933822,-3.391332,-0.792029,-2.812600,3.614907,-0.196595,0.423618,-0.059989,10.611810,188.571283,1052.185807,135.665199,0
0.014583,56.259430,-181.297384,125.300902,2.723759,-0.691533,3.786639,-2.524582,0.854629,-3.666552,2.706508,-0.189302,0.420310,-0.119457,-47.683795,188.571328,1055.022396,134.346622,0
0.015625,111.561264,-186.723579,48.478033,1.226272,-2.137306,3.891230,-1.192283,2.276413,-3.844106,1.427180,-0.163779,0.425891,-0.093440,-100.068779,188.495973,1055.889192,133.001826,0
0.016667,164.896912,-155.986887,-18.186038,-0.136103,-3.230809,3.484935,0.211929,3.248449,-3.425585,-0.011118,-0.149195,0.422446,-0.056273,-147.815334,188.495859,1058.028568,131.319460,0
0.017708,179.699814,-102.558836,-82.018769,-1.329589,-3.803246,2.398800,1.759968,3.926698,-2.419443,-1.600816,-0.065333,0.421619,-0.074856,-159.974324,188.571286,1059.158552,130.161766,0
0.018750,182.750794,-24.196129,-138.123037,-2.421741,-3.953695,1.224165,2.872740,4.010119,-1.227292,-2.785520,-0.065333,0.425753,-0.078573,-168.035285,188.571344,1061.338222,129.039978,0
0.019792,151.303102,44.336005,-168.988284,-2.917150,-3.318876,-0.195856,3.493470,3.520474,0.121276,-3.493314,-0.054394,0.435331,-0.093440,-135.374885,188.495948,1061.984451,128.346264,0
0.020833,77.853587,98.210366,-190.363074,-3.423819,-2.269407,-2.034240,4.152049,2.385223,2.006735,-4.098913,-0.061686,0.432712,-0.059989,-69.581236,188.495899,1063.600479,126.891328,0
0.021875,9.398639,147.727329,-173.460099,-3.108558,-0.941057,-2.927285,3.595663,1.191940,2.924099,-3.633358,-0.021578,0.437398,-0.089723,-8.932641,188.646831,1065.073926,126.116301,0
0.022917,-56.310426,181.505978,-124.197222,-2.117740,0.842306,-3.768034,2.725127,-0.480107,3.765369,-2.668185,-0.065333,0.428027,-0.097156,48.394748,188.571328,1066.894321,125.033989,0
0.023958,-111.284563,187.049622,-46.572343,-0.620253,2.266062,-3.832397,1.358765,-1.930907,3.887966,-1.324512,-0.120025,0.417279,-0.097156,100.092974,188.495879,1067.246449,123.232448,0
0.025000,-164.495912,155.514270,20.067425,0.697085,3.396259,-3.422080,-0.053017,-2.881181,3.469445,0.045657,-0.138256,0.415832,-0.089723,148.289862,188.571355,1068.928974,122.312287,0
0.026042,-179.671711,100.817758,82.527017,1.879312,3.979706,-2.267558,-1.601057,-3.512279,2.416801,1.646709,-0.141902,0.414936,-0.082290,159.840903,188.646723,1069.302165,121.516521,0
0.027083,-182.688791,22.466796,137.744213,2.926427,4.089790,-1.064764,-2.797097,-3.563057,1.148555,2.910898,-0.178364,0.412042,-0.078573,167.913122,188.571333,1071.150729,119.667609,0
0.028125,-150.427504,-45.431107,168.974010,3.579466,3.440293,0.323075,-3.410257,-3.127817,-0.216923,3.592197,-0.203887,0.428441,-0.074856,136.311005,188.495803,1073.312433,118.911599,0
0.029167,-76.130495,-98.224928,191.090052,4.063616,2.350460,2.177550,-4.049911,-1.956296,-2.005150,4.156161,-0.229410,0.417968,-0.086006,69.684240,188.571288,1074.137027,117.836669,0
0.030208,-8.918540,-147.988535,173.251398,3.725837,0.992755,3.030367,-3.429182,-0.802910,-2.905604,3.683037,-0.207533,0.423411,-0.056273,10.420419,188.646627,1075.661961,117.889125,0
0.031250,56.214230,-182.248730,124.365223,2.757537,-0.786940,3.846980,-2.509442,0.916288,-3.755329,2.729218,-0.178364,0.399640,-0.093440,-48.066578,188.571395,1077.115357,117.454052,0
0.032292,111.323966,-186.758814,47.979815,1.237532,-2.210695,3.923411,-1.169574,2.370715,-3.882154,1.408255,-0.163779,0.424789,-0.123173,-99.798579,188.495917,1078.112319,116.569762,0
0.033333,165.461908,-156.057357,-18.842228,-0.102325,-3.377587,3.537230,0.298982,3.404410,-3.463632,-0.086818,-0.127317,0.421619,-0.056273,-148.141825,188.571201,1080.274309,115.346336,0
0.034375,179.756314,-101.830646,-81.970162,-1.329589,-3.917000,2.358572,1.862161,3.995611,-2.419443,-1.684086,-0.065333,0.417554,-0.067423,-159.895516,188.646636,1081.403971,114.544600,0
0.035417,183.247991,-24.113914,-138.353919,-2.410482,-4.038093,1.135665,3.046847,4.053643,-1.163880,-2.944489,-0.061686,0.424444,-0.059989,-167.843893,188.571268,1083.316628,112.816796,0
0.036458,150.964104,44.289025,-169.134104,-3.029743,-3.392265,-0.336652,3.660007,3.585760,0.260783,-3.640928,-0.054394,0.423962,-0.086006,-134.631836,188.495930,1085.833701,111.248212,0
0.037500,76.373297,97.670096,-191.930640,-3.423819,-2.214365,-2.215263,4.242887,2.334445,2.154697,-4.238958,-0.021578,0.435951,-0.071140,-68.500437,188.571268,1088.284324,109.620538,0
0.038542,9.376040,148.091424,-172.779605,-3.041003,-0.841982,-3.035898,3.618373,1.130281,3.034014,-3.656068,-0.032517,0.412525,-0.071140,-9.011449,188.646697,1089.438263,108.476913,0
0.039583,-55.960129,183.197259,-123.261543,-2.106481,1.000094,-3.924920,2.664568,-0.607052,3.879511,-2.698465,-0.043455,0.419139,-0.078573,48.653689,188.571297,1091.630507,107.319443,0
0.040625,-111.194164,186.556332,-45.952608,-0.631512,2.464213,-3.912852,1.264141,-2.123138,3.976744,-1.233672,-0.112733,0.412731,-0.093440,100.036683,188.495926,1093.553217,104.972645,0
0.041667,-165.479005,156.148501,20.869435,0.697085,3.565055,-3.450239,-0.193060,-3.102428,3.486355,0.231121,-0.127317,0.412180,-0.089723,148.222312,188.571438,1096.504692,102.021677,0
0.042708,-179.445713,99.784197,82.344742,1.913090,4.089790,-2.183081,-1.816798,-3.657359,2.344934,1.847314,-0.160133,0.412800,-0.082290,160.640244,188.646775,1098.560166,99.250828,0
0.043750,-183.739684,22.020486,138.218129,2.948945,4.236569,-0.972242,-3.054473,-3.664613,1.064005,3.141782,-0.178364,0.366844,-0.093440,169.038954,188.571212,1101.867685,97.046957,0
0.044791,-149.263612,-45.560302,169.217043,3.590725,3.458640,0.528234,-3.591934,-3.077039,-0.360657,3.743597,-0.222118,0.394886,-0.100873,135.973255,188.495926,1103.271512,94.717624,0
0.045833,-74.119109,-97.367542,193.398870,4.029838,2.251384,2.406845,-4.148320,-1.901891,-2.250344,4.303776,-0.218472,0.405910,-0.078573,68.164366,188.571274,1106.517839,92.170874,0
0.046875,-8.376143,-148.505316,172.218506,3.601985,0.867993,3.203344,-3.504880,-0.639695,-3.087386,3.736027,-0.214826,0.427752,-0.071140,9.699886,188.722016,1108.512434,89.762670,0
0.047916,55.886532,-184.257127,123.514606,2.735018,-1.018116,4.072252,-2.475377,1.057741,-3.932883,2.717863,-0.203887,0.430439,-0.063706,-47.728828,188.571225,1111.265321,87.957894,0
0.048958,111.403065,-186.007133,47.262866,1.192494,-2.485906,4.023979,-1.063595,2.591962,-3.983613,1.253070,-0.149195,0.420586,-0.082290,-100.091296,188.495825,1113.275593,84.747903,0
0.050000,166.230303,-157.067428,-19.802210,-0.113585,-3.605095,3.577457,0.389821,3.651046,-3.548182,-0.249573,-0.120025,0.421275,-0.086006,-147.916659,188.571254,1117.164792,82.337553,0
0.051041,179.315617,-100.585675,-81.970162,-1.329589,-4.085796,2.298232,2.074118,4.166080,-2.351804,-1.888476,-0.076271,0.419897,-0.059989,-160.739890,188.722154,1119.497754,79.628245,0
0.052083,184.434483,-23.409213,-138.754924,-2.421741,-4.184871,0.986824,3.270158,4.195096,-1.049738,-3.133739,-0.058040,0.421619,-0.026539,-169.318734,188.571284,1122.828505,77.583524,0
0.053125,149.664612,44.394730,-169.547260,-2.984706,-3.406943,-0.545833,3.868179,3.534982,0.438337,-3.826393,-0.061686,0.435055,-0.086006,-133.438453,188.571362,1124.713477,74.788094,0
0.054167,74.508809,96.977140,-194.081486,-3.435078,-2.192348,-2.468694,4.432134,2.370715,2.395664,-4.352508,-0.003348,0.420448,-0.063706,-67.205729,188.571283,1128.027695,73.190490,0
0.055208,9.568138,148.549479,-171.588741,-3.108558,-0.717220,-3.281284,3.728136,0.970693,3.211568,-3.693918,-0.087210,0.431610,-0.100873,-8.673700,188.722121,1129.822511,70.608812,0
0.056250,-55.304733,185.017736,-122.435229,-2.083962,1.161550,-4.081806,2.698633,-0.770267,4.090886,-2.679540,-0.050748,0.419415,-0.063706,48.203356,188.571386,1132.935415,68.330832,0
0.057291,-111.115064,185.957336,-45.454389,-0.586475,2.673373,-4.045602,1.180873,-2.275472,4.103568,-1.165542,-0.130964,0.414109,-0.074856,99.991650,188.567928,1135.063071,66.675268,0
0.058333,-166.100501,156.806221,21.829417,0.708344,3.770546,-3.486443,-0.321748,-3.320048,3.587815,0.409016,-0.130964,0.409838,-0.074856,148.199796,188.646089,1138.735557,64.379285,0
0.059375,-179.389213,98.421776,82.259680,1.879312,4.262255,-2.175036,-2.002260,-3.813320,2.319569,2.066844,-0.149195,0.412249,-0.086006,160.764086,188.721732,1141.317707,61.971404,0
0.060416,-184.869677,21.433235,138.412555,2.960204,4.339314,-0.883742,-3.209655,-3.871352,0.992138,3.300752,-0.189302,0.397504,-0.056273,169.691937,188.570830,1145.147448,60.805938,0
0.061458,-148.201419,-45.689498,169.751717,3.601985,3.487996,0.669029,-3.788751,-3.160460,-0.508620,3.940416,-0.207533,0.426925,-0.082290,133.732848,188.495519,1148.353971,59.298457,0
0.062500,-72.062522,-96.604116,195.343137,4.153690,2.233037,2.616027,-4.333782,-1.923653,-2.487083,4.496811,-0.225764,0.433884,-0.089723,66.734559,188.646337,1152.406098,57.705290,0
0.063541,-8.172745,-148.951626,171.307131,3.669540,0.728553,3.468844,-3.561654,-0.549020,-3.349490,3.792802,-0.211179,0.423549,-0.074856,9.272070,188.721742,1155.334468,55.564937,0
0.064583,55.604034,-186.018878,122.299439,2.712500,-1.175904,4.277411,-2.505657,1.278988,-4.144258,2.717863,-0.152841,0.433126,-0.071140,-48.055319,188.570906,1158.749998,52.986973,0
0.065625,111.199667,-185.760488,46.242126,1.192494,-2.676718,4.160752,-0.965187,2.787820,-4.131575,1.120595,-0.156487,0.418657,-0.082290,-99.888646,188.495551,1161.248865,50.386003,0
0.066666,166.863099,-157.396288,-21.029529,-0.147362,-3.891314,3.657912,0.613132,3.883174,-3.582002,-0.431253,-0.101794,0.416383,-0.067423,-147.882884,188.646435,1164.385428,47.642712,0
0.067708,179.699814,-98.765198,-81.605612,-1.329589,-4.280278,2.249959,2.320139,4.340176,-2.296846,-2.126931,-0.087210,0.418381,-0.074856,-161.302807,188.646303,1167.108553,44.797015,0
0.068750,185.519276,-22.798473,-138.925048,-2.466778,-4.364676,0.898324,3.501040,4.354684,-0.939823,-3.402474,-0.021578,0.421895,-0.089723,-169.284959,188.570843,1171.318790,42.216564,0
0.069791,148.048723,44.242045,-170.713821,-2.962187,-3.469324,-0.746969,4.099060,3.589387,0.679304,-4.049708,-0.061686,0.433746,-0.104590,-131.952354,188.495530,1174.836964,39.420488,0
0.070833,72.587822,95.955324,-196.062208,-3.502634,-2.129967,-2.702012,4.545682,2.338072,2.645085,-4.549327,-0.017932,0.392061,-0.093440,-66.034864,188.646382,1178.733577,37.070714,0
0.071875,9.545538,149.489080,-170.677366,-3.074780,-0.541085,-3.538739,3.777340,0.829240,3.515948,-3.796113,-0.061686,0.433057,-0.104590,-8.639925,188.646344,1182.619136,34.367062,0
0.072917,-54.965735,186.427137,-121.766887,-2.061443,1.385388,-4.327192,2.638074,-0.987887,4.319170,-2.687110,-0.061686,0.419415,-0.089723,48.642431,188.570917,1186.285435,31.718784,0
0.073958,-111.261963,185.651966,-44.628075,-0.620253,2.970601,-4.186397,0.995411,-2.485838,4.238848,-1.036852,-0.112733,0.412387,-0.089723,100.171783,188.495553,1188.823476,29.038212,0
0.075000,-166.371699,158.109918,23.093191,0.719604,4.049426,-3.595057,-0.563984,-3.606581,3.697729,0.620976,-0.101794,0.411836,-0.089723,147.569329,188.646406,1193.429648,25.989047,0
0.076042,-180.022009,96.108009,81.676400,1.856793,4.530127,-2.110672,-2.361829,-4.020059,2.256157,2.365858,-0.185656,0.406599,-0.078573,162.981976,188.646360,1196.773520,22.486297,0
0.077083,-185.875370,20.763770,138.789257,2.982723,4.533796,-0.718810,-3.504880,-4.041821,0.852631,3.614907,-0.200241,0.411078,-0.078573,170.434987,188.570971,1201.488002,19.324404,0
0.078125,-145.997934,-45.301912,171.732439,3.601985,3.524691,0.990847,-4.102901,-3.200357,-0.741131,4.194011,-0.225764,0.427614,-0.071140,132.595758,188.495579,1205.286876,16.512258,0
0.079167,-70.107635,-95.570555,197.299556,4.142431,2.163317,2.945890,-4.519244,-1.872875,-2.749187,4.704985,-0.236703,0.438362,-0.082290,65.225943,188.646333,1209.306395,13.878329,0
0.080208,-7.585148,-150.208342,170.553727,3.613244,0.512054,3.762503,-3.682773,-0.353162,-3.590457,3.902566,-0.236703,0.437191,-0.078573,8.202529,188.570962,1212.706113,11.171659,0
0.081250,55.457135,-186.993714,121.728310,2.689981,-1.392403,4.510729,-2.471592,1.551013,-4.448637,2.698938,-0.163779,0.409424,-0.082290,-48.348036,188.570837,1217.167458,7.547221,0
0.082292,111.425665,-185.830958,45.087717,1.203754,-3.010640,4.361888,-0.802435,3.106996,-4.275310,0.969195,-0.149195,0.417830,-0.074856,-100.282687,188.495544,1220.640103,3.778004,0
0.083333,166.467601,-158.746965,-22.536336,-0.158622,-4.140838,3.722275,0.813734,4.176961,-3.708827,-0.669707,-0.109087,0.420310,-0.089723,-146.880893,188.571033,1225.393948,0.469351,0
0.084375,180.603808,-96.310491,-80.937270,-1.273292,-4.595852,2.213754,2.641859,4.561423,-2.233434,-2.460010,-0.058040,0.416176,-0.067423,-163.937255,188.571035,1229.141270,-3.360289,0
0.085417,186.208571,-22.328672,-139.277446,-2.444260,-4.529802,0.781665,3.773555,4.557796,-0.787634,-3.720413,-0.003348,0.420999,-0.071140,-169.802842,188.570928,1234.164449,-6.609992,0
0.086458,146.240735,43.713519,-172.621633,-3.086040,-3.539044,-0.968219,4.416995,3.647419,0.882223,-4.322228,-0.003348,0.429956,-0.086006,-130.252347,188.495620,1238.335757,-9.113393,0
0.087500,71.344830,95.180153,-197.508257,-3.513893,-2.078594,-2.955444,4.734929,2.294548,2.902962,-4.791567,-0.047102,0.435262,-0.093440,-65.314331,188.570845,1242.770556,-11.680746,0
0.088542,9.070942,150.687071,-170.142692,-2.973447,-0.364950,-3.844466,3.932523,0.713176,3.773824,-3.955083,-0.028871,0.422997,-0.067423,-7.615417,188.571053,1246.976017,-13.361462,0
0.089583,-54.570238,187.249288,-121.353730,-2.083962,1.590879,-4.556487,2.641859,-1.172864,4.560137,-2.702250,-0.061686,0.425409,-0.089723,48.496073,188.570968,1250.633209,-15.702006,0
0.090625,-111.397562,185.839886,-43.813913,-0.586475,3.234803,-4.331215,0.923497,-2.765117,4.395265,-0.934657,-0.098148,0.414936,-0.086006,100.487016,188.495613,1254.171565,-18.646754,0
0.091666,-166.123101,158.802873,24.138235,0.742122,4.379678,-3.671488,-0.787295,-3.889487,3.778052,0.772376,-0.149195,0.412594,-0.074856,146.781247,188.571051,1258.157112,-21.195032,0
0.092708,-181.163301,94.146593,81.008058,1.845534,4.783320,-2.050331,-2.607850,-4.266695,2.247702,2.630808,-0.185656,0.415832,-0.100873,164.738274,188.570903,1262.317029,-23.899635,0
0.093750,-186.349967,20.540614,139.093049,2.971464,4.669566,-0.614219,-3.720622,-4.176020,0.755399,3.902566,-0.182010,0.377661,-0.089723,170.243595,188.570960,1266.379032,-26.600834,0
0.094791,-144.449844,-44.820367,173.372915,3.669540,3.649453,1.159801,-4.382986,-3.236627,-0.910231,4.462746,-0.240349,0.392819,-0.071140,129.983826,188.495517,1270.232557,-28.913793,0
0.095833,-68.582145,-95.006795,198.502572,4.108653,2.181664,3.147026,-4.663071,-1.832978,-2.985927,4.867740,-0.229410,0.383587,-0.063706,64.257727,188.570895,1273.557613,-31.196036,0
0.096875,-7.020152,-151.053983,170.019053,3.647022,0.427656,4.056161,-3.856880,-0.251606,-3.873699,4.019901,-0.218472,0.395300,-0.093440,7.459479,188.495539,1277.519635,-33.110090,0
0.097916,55.287636,-187.639689,121.047817,2.656203,-1.572207,4.731979,-2.517012,1.728736,-4.638874,2.755713,-0.222118,0.407150,-0.067423,-48.415586,188.571008,1280.813995,-34.774260,0
0.098958,111.662964,-186.206798,43.860398,1.192494,-3.249156,4.538888,-0.711596,3.284719,-4.461319,0.897280,-0.141902,0.419552,-0.093440,-100.631695,188.496675,1284.079638,-36.281009,0
0.100000,166.072104,-159.369450,-23.593532,-0.158622,-4.397701,3.790662,0.987841,4.427224,-3.810286,-0.851387,-0.130964,0.421551,-0.059989,-146.396785,188.570767,1287.921657,-38.868870,0
0.101042,182.072798,-94.008469,-80.378293,-1.295811,-4.823360,2.165482,2.910589,4.779043,-2.241889,-2.690895,-0.068979,0.419690,-0.104590,-165.975011,188.495387,1291.733750,-40.898650,0
0.102083,186.717068,-22.023302,-139.374660,-2.399222,-4.705937,0.713279,4.015791,4.750027,-0.732676,-3.989148,-0.028871,0.423893,-0.119457,-169.408800,188.570703,1296.311081,-42.774909,0
0.103125,144.206749,42.950094,-175.112726,-3.131077,-3.645459,-1.177401,4.704650,3.734467,1.097825,-4.640167,-0.028871,0.426305,-0.086006,-128.845057,188.495387,1301.413386,-45.325081,0
0.104166,70.361736,94.393238,-198.249509,-3.603968,-2.078594,-3.172671,4.912821,2.280040,3.156611,-4.965677,-0.032517,0.437260,-0.078573,-64.717640,188.570792,1305.021277,-47.651238,0
0.105208,8.618945,152.213922,-169.522957,-3.063521,-0.251197,-4.166283,4.064995,0.582604,4.061293,-4.061063,-0.072625,0.420586,-0.074856,-7.243893,188.495416,1309.045411,-49.893038,0
0.106250,-54.705837,186.967407,-120.964877,-2.128999,1.733988,-4.757624,2.664568,-1.412246,4.818013,-2.706035,-0.083563,0.426511,-0.074856,48.698723,188.495347,1312.758618,-52.863507,0
0.107291,-112.086858,186.591567,-42.963296,-0.552697,3.513683,-4.576601,0.817519,-3.040769,4.568592,-0.843817,-0.120025,0.415556,-0.093440,101.004899,188.495226,1316.784591,-55.496522,0
0.108333,-165.151307,159.202203,25.195430,0.753382,4.610855,-3.739875,-0.972757,-4.161512,3.892194,1.003260,-0.152841,0.414247,-0.126890,146.060714,188.495296,1320.835154,-58.715141,0
0.109375,-183.604085,91.492220,79.999470,1.879312,5.047522,-2.018150,-2.933355,-4.469807,2.154697,2.907113,-0.185656,0.412111,-0.067423,168.104514,188.495410,1324.272686,-62.188864,0
0.110416,-186.383867,20.223499,138.922926,2.993982,4.816345,-0.497560,-4.012062,-4.404521,0.611664,4.148591,-0.243995,0.411767,-0.082290,170.018429,188.495302,1328.677378,-64.769588,0
