1-Time,2-VGERA,3-VGERB,4-VGERC,5-VN,6-IGERAN,7-IGERBN,8-IGERCN,9-IGERAT,10-IGERBT,11-IGERCT,12-IN,13-IFD,14-IFAULT,15-VFAULT,16-Speed (rad/s),17-Active Power,18-Reactive Power,19-FAULT 
0.000000,147.398246,-186.514185,5.748674,3.097698,-2.469978,6.562544,-3.274081,2.495964,-6.449084,3.332248,-0.212459,0.599379,-0.061832,-88.306140,188.515935,1609.599887,894.046436,0
0.001042,177.206337,-138.311378,-66.613068,1.740498,-4.486536,6.050597,-0.815108,4.429408,-5.987448,0.973396,-0.172276,0.601208,-0.039427,-64.000950,188.489231,1608.397978,894.590204,0
0.002083,196.976315,-56.233716,-118.822349,0.756528,-5.981203,4.780650,1.725955,6.054090,-4.753620,-1.566907,-0.077298,0.596700,-0.058098,-22.493251,188.496503,1608.566118,894.660798,0
0.003125,163.618021,15.708067,-170.219129,-0.283992,-6.371734,2.899541,3.864030,6.513559,-2.986813,-3.534396,-0.059033,0.554304,-0.035692,12.318928,188.497685,1609.796661,895.703346,0
0.004167,117.964457,85.934362,-189.632955,-0.589362,-5.835642,0.335836,5.483444,5.921763,-0.410043,-5.206584,-0.018850,0.612509,-0.043161,48.092457,188.486155,1609.666294,895.652801,0
0.005215,34.404256,138.909126,-190.470076,-0.691152,-4.326774,-2.227869,6.304346,4.352218,2.107972,-6.007100,-0.004238,0.615971,-0.076769,72.703017,188.500358,1609.552268,895.404011,0
0.006261,-44.153903,174.306175,-162.192614,-0.159582,-2.324417,-4.275658,6.177479,2.440828,4.273466,-6.017773,-0.000585,0.615579,-0.043161,91.251416,188.420833,1609.666653,894.691628,0
0.007292,-101.875888,191.593949,-88.008902,1.231548,0.331191,-5.763877,4.878962,-0.168955,5.759095,-4.761853,-0.011544,0.606695,-0.058098,99.021386,188.489542,1610.370475,894.683861,0
0.008333,-147.722275,186.459565,-6.192614,2.792328,2.699227,-6.418694,3.155069,-2.639059,6.472533,-3.132359,-0.069992,0.604082,-0.065566,93.999746,188.498215,1610.465922,894.369223,0
0.009375,-178.437766,138.534618,66.095265,4.160838,4.676732,-5.835312,0.625201,-4.550449,6.006700,-0.791296,-0.091910,0.597092,-0.058098,69.999927,188.493954,1611.002028,894.231912,0
0.010417,-197.323029,54.946844,118.833902,5.144808,6.150097,-4.549491,-1.852429,-6.090588,4.743495,1.738333,-0.132093,0.598399,-0.039427,27.564808,188.421255,1611.778756,893.481684,0
0.011458,-163.873995,-15.714364,170.489205,6.162708,6.615184,-2.688225,-4.012892,-6.531678,2.972491,3.755632,-0.186888,0.601534,-0.061832,-7.077721,188.502108,1612.800385,893.308924,0
0.012500,-119.343338,-85.179562,189.410607,6.524628,5.937081,-0.120551,-5.594993,-5.987667,0.425099,5.434936,-0.241683,0.613489,-0.039427,-43.043521,188.494317,1613.552291,893.370397,0
0.013542,-34.830367,-138.009355,190.826326,6.558558,4.438863,2.431248,-6.423357,-4.458555,-2.109704,6.185641,-0.267254,0.569852,-0.046895,-67.054650,188.496800,1615.143113,893.172634,0
0.014583,43.818531,-174.131258,162.733523,6.060918,2.564316,4.455226,-6.296491,-2.517759,-4.275197,6.224778,-0.259948,0.609504,-0.050629,-86.326890,188.419057,1616.054141,892.373776,0
0.015625,101.427091,-191.576084,89.325379,4.669788,-0.180049,5.951382,-5.035288,0.095699,-5.752433,4.954626,-0.234377,0.613489,-0.087972,-94.594499,188.482960,1616.824114,892.139135,0
0.016667,147.534356,-185.970544,6.475000,3.063768,-2.519682,6.554607,-3.236767,2.547424,-6.432297,3.278880,-0.186888,0.606695,-0.073035,-89.697270,188.492949,1617.036027,890.841587,0
0.017708,177.920915,-137.779818,-66.502273,1.740498,-4.518489,6.066471,-0.803914,4.510275,-5.987448,0.948491,-0.157664,0.596896,-0.039427,-64.815270,188.490599,1618.083120,890.568465,0
0.018750,196.806178,-55.400134,-118.637690,0.745218,-5.991854,4.764775,1.688641,6.057766,-4.766210,-1.566907,-0.069992,0.602710,-0.024490,-22.843861,188.483110,1617.844360,890.845940,0
0.019792,163.946954,15.067779,-170.539205,-0.295302,-6.414337,2.867792,3.882686,6.465774,-2.932256,-3.616227,-0.037115,0.615906,-0.069301,12.386788,188.477582,1618.607479,889.286472,0
0.020833,117.873717,86.043090,-189.485228,-0.645912,-5.789488,0.335836,5.472250,5.932790,-0.393257,-5.267067,-0.007891,0.607218,-0.035692,47.436477,188.477367,1619.422917,889.177715,0
0.021875,34.268146,138.099706,-190.814773,-0.691152,-4.333874,-2.231838,6.345391,4.407354,2.141546,-6.032004,0.010374,0.607022,-0.061832,72.080967,188.561383,1620.147442,889.391678,0
0.022917,-42.611323,174.704845,-162.869697,-0.182202,-2.349269,-4.247878,6.192404,2.503315,4.298646,-6.060467,0.014027,0.613489,-0.039427,90.120416,188.479645,1621.297685,889.836593,0
0.023958,-101.592325,191.412735,-88.587500,1.231548,0.363144,-5.767846,4.882694,-0.176306,5.771685,-4.751180,0.006721,0.605584,-0.054364,100.310726,188.475042,1621.549478,889.371596,0
0.025000,-147.744960,186.519969,-5.663258,2.814948,2.681475,-6.382977,3.155069,-2.605977,6.518696,-3.178611,-0.044421,0.600946,-0.013287,92.755646,188.490601,1621.702470,890.590854,0
0.026042,-178.222258,138.691670,66.169129,4.138218,4.698033,-5.851186,0.692365,-4.546773,6.023487,-0.819759,-0.128440,0.604343,-0.050629,69.015957,188.503655,1621.683287,891.030637,0
0.027083,-197.572564,55.913316,118.907766,5.133498,6.146547,-4.593145,-1.818847,-6.108967,4.819036,1.716986,-0.175929,0.592650,-0.039427,26.535598,188.440566,1622.430835,891.937841,0
0.028125,-163.896680,-16.233843,170.169129,6.151398,6.632935,-2.700131,-3.964384,-6.502272,2.955704,3.723611,-0.227071,0.590233,-0.087972,-7.948591,188.516881,1621.637824,891.815077,0
0.029167,-118.492651,-85.264128,189.804546,6.547248,5.983234,-0.148331,-5.624844,-6.002370,0.412508,5.392241,-0.267254,0.612705,-0.058098,-42.172651,188.515189,1621.095823,892.112308,0
0.030208,-35.601657,-137.985193,190.666288,6.558558,4.485017,2.379657,-6.400969,-4.510016,-2.071934,6.164294,-0.256295,0.619695,-0.076769,-68.163030,188.441612,1620.795232,892.698351,0
0.031250,43.546311,-174.602413,162.807387,6.060918,2.571417,4.411571,-6.307685,-2.532462,-4.250017,6.231893,-0.267254,0.574294,-0.043161,-85.614360,188.440897,1620.738634,893.062984,0
0.032292,101.846764,-190.984119,89.079167,4.669788,-0.165848,5.991068,-5.065139,0.066293,-5.727253,4.954626,-0.205153,0.611790,-0.043161,-94.865939,188.514756,1619.957694,893.466942,0
0.033333,147.817918,-186.248405,6.671970,3.097698,-2.516132,6.594293,-3.292738,2.532721,-6.449084,3.289554,-0.219765,0.608197,-0.035692,-88.260900,188.511846,1620.204156,893.832498,0
0.034375,177.614667,-137.876465,-66.760796,1.695258,-4.514939,6.054565,-0.777795,4.506599,-5.949678,0.934259,-0.146705,0.596504,-0.061832,-63.582480,188.439432,1619.841420,893.336622,0
0.035417,196.908260,-54.747765,-118.736175,0.756528,-5.988304,4.776681,1.714761,6.046738,-4.762014,-1.581138,-0.113828,0.599183,-0.039427,-21.972991,188.512201,1619.658200,893.358601,0
0.036458,163.810844,15.152346,-170.773107,-0.261372,-6.456941,2.883667,3.886418,6.465774,-2.944846,-3.580648,-0.022503,0.611856,-0.035692,11.719498,188.515875,1619.247349,893.814628,0
0.037500,118.667692,85.692744,-189.546781,-0.645912,-5.832092,0.331867,5.502101,5.936466,-0.384863,-5.274183,-0.018850,0.587097,-0.024490,48.182937,188.515897,1619.728437,893.497045,0
0.038542,33.598938,138.232596,-190.925569,-0.713772,-4.326774,-2.211995,6.356585,4.418381,2.137349,-6.021331,-0.015197,0.597419,-0.069301,72.397647,188.511209,1619.464992,893.870068,0
0.039583,-43.212475,174.535712,-162.931250,-0.182202,-2.370570,-4.291533,6.255838,2.473909,4.349006,-6.074699,-0.022503,0.614730,-0.061832,91.319276,188.442359,1620.120341,893.600564,0
0.040625,-101.592325,191.738920,-88.562879,1.186308,0.398647,-5.783720,4.845380,-0.220415,5.830439,-4.758295,-0.037115,0.607022,-0.043161,99.168416,188.504055,1621.263650,893.332139,0
0.041667,-147.676905,186.290432,-5.133902,2.826258,2.716978,-6.359165,3.121487,-2.613329,6.535483,-3.107454,-0.048074,0.598660,-0.069301,93.954506,188.516919,1621.238695,892.644941,0
0.042708,-178.732671,137.882250,66.292235,4.183458,4.719335,-5.890872,0.628932,-4.590882,6.006700,-0.752160,-0.106522,0.600162,-0.061832,69.852897,188.514615,1621.702104,891.886953,0
0.043750,-197.277659,56.094529,118.969319,5.156118,6.160748,-4.505836,-1.889743,-6.156752,4.722512,1.788143,-0.161317,0.598399,-0.046895,28.107688,188.438357,1622.385897,890.148458,0
0.044792,-163.930708,-15.968063,170.760038,6.151398,6.618734,-2.640602,-4.083788,-6.520651,2.917934,3.776979,-0.212459,0.592193,-0.054364,-7.699771,188.501060,1623.375238,889.596104,0
0.045833,-118.435938,-85.940659,189.361364,6.524628,5.972583,-0.092771,-5.658426,-5.965613,0.395722,5.452725,-0.238030,0.599509,-0.039427,-43.224481,188.495454,1623.762986,889.184938,0
0.046875,-35.079902,-138.263054,190.986364,6.581178,4.435313,2.431248,-6.460671,-4.473258,-2.197834,6.185641,-0.278213,0.615906,-0.084238,-67.133820,188.646100,1625.060237,888.087910,0
0.047917,43.103954,-174.119177,162.807387,6.049608,2.511062,4.554441,-6.285297,-2.547165,-4.321361,6.189199,-0.267254,0.608132,-0.024490,-86.349510,188.495445,1625.381047,887.321599,0
0.048958,101.495146,-192.361342,87.798864,4.692408,-0.229753,6.018848,-4.971854,0.154511,-5.781810,4.929721,-0.238030,0.610353,-0.035692,-94.911179,188.495341,1626.567792,886.592568,0
0.050000,147.568383,-185.741007,6.401136,3.142938,-2.533883,6.606198,-3.233036,2.554776,-6.486855,3.264649,-0.208806,0.608001,-0.054364,-89.640720,188.497012,1626.874246,886.319489,0
0.051042,178.828315,-137.864384,-65.899053,1.695258,-4.571743,6.082345,-0.736749,4.499248,-5.953875,0.888007,-0.164970,0.595328,-0.035692,-64.656930,188.575133,1627.388826,885.849186,0
0.052083,196.647383,-54.083315,-118.662311,0.733908,-5.952801,4.740964,1.800582,6.050414,-4.703260,-1.606043,-0.095563,0.589580,-0.039427,-22.086091,188.545705,1627.085671,885.064971,0
0.053125,163.776816,15.937605,-170.748485,-0.250062,-6.428538,2.887635,3.931194,6.465774,-2.886092,-3.619784,-0.059033,0.610745,-0.080503,12.375478,188.466780,1627.392306,884.412363,0
0.054167,118.679034,85.571935,-189.288258,-0.679842,-5.796589,0.288213,5.546877,5.899708,-0.351290,-5.281299,-0.018850,0.614926,-0.043161,47.232897,188.626443,1627.321393,883.577688,0
0.055208,34.007268,138.208434,-191.159470,-0.713772,-4.277070,-2.259618,6.371510,4.392651,2.196103,-6.039120,-0.026156,0.611006,-0.080503,72.126207,188.626907,1628.192383,882.751623,0
0.056250,-43.915710,174.439065,-162.771213,-0.136962,-2.359920,-4.267721,6.237181,2.437152,4.344810,-6.035562,-0.004238,0.613031,-0.054364,90.131726,188.551963,1627.662915,882.277506,0
0.057292,-101.342790,191.726839,-88.759849,1.220238,0.377345,-5.783720,4.837917,-0.187334,5.788472,-4.754738,-0.018850,0.607675,-0.035692,100.480376,188.470702,1626.978176,882.396886,0
0.058333,-147.994495,186.278351,-5.687879,2.747088,2.699227,-6.371071,3.061785,-2.642735,6.472533,-3.054087,-0.084604,0.601665,-0.050629,92.552066,188.692844,1626.677074,881.146760,0
0.059375,-178.403739,137.773521,66.710796,4.194768,4.687383,-5.831343,0.632663,-4.565152,5.981520,-0.766391,-0.106522,0.593695,-0.073035,68.608797,188.503450,1625.961309,881.236421,0
0.060418,-197.311687,55.538808,119.166288,5.167428,6.118145,-4.521711,-1.874817,-6.119994,4.735102,1.770353,-0.175929,0.600489,-0.028224,26.818348,188.579274,1625.304863,881.699273,0
0.061459,-164.078160,-15.460665,170.723107,6.174018,6.565480,-2.648539,-4.005430,-6.516975,2.901147,3.816115,-0.205153,0.605454,-0.054364,-8.106931,188.497142,1625.843682,881.056622,0
0.062500,-117.800758,-85.880254,189.632198,6.513318,5.940631,-0.108645,-5.647232,-5.925180,0.370542,5.434936,-0.241683,0.590821,-0.050629,-42.579811,188.716137,1625.336081,880.534290,0
0.063542,-34.399352,-138.057679,190.777084,6.592488,4.477916,2.419342,-6.449477,-4.451204,-2.109704,6.178526,-0.238030,0.607414,-0.017021,-68.174340,188.492258,1624.103802,881.073957,0
0.064583,42.740994,-174.602413,162.844319,6.038298,2.550115,4.471100,-6.296491,-2.576571,-4.279394,6.196315,-0.245336,0.615775,-0.039427,-85.580430,188.570544,1623.828228,881.650859,0
0.065625,101.631256,-191.624407,88.205114,4.624548,-0.183599,5.995036,-4.979317,0.099375,-5.727253,4.904816,-0.234377,0.604801,-0.054364,-95.261789,188.497806,1622.534579,881.732655,0
0.066667,147.545698,-186.055110,5.908712,3.142938,-2.537434,6.610167,-3.214379,2.584182,-6.491051,3.253976,-0.190541,0.602318,-0.043161,-88.102560,188.718938,1622.883793,881.585996,0
0.067708,178.329245,-138.178488,-65.886743,1.706568,-4.561092,6.042659,-0.755406,4.565411,-5.987448,0.912912,-0.135746,0.599966,-0.046895,-63.899160,188.494060,1623.809355,881.819753,0
0.068750,196.851548,-54.953140,-118.797728,0.711288,-5.981203,4.744933,1.767000,6.112902,-4.720047,-1.613159,-0.095563,0.592323,-0.039427,-21.554521,188.571509,1625.019862,881.921796,0
0.069792,163.413856,16.650378,-170.723864,-0.238752,-6.446290,2.855887,3.908806,6.480477,-2.911272,-3.637574,-0.044421,0.583309,-0.073035,12.420718,188.500030,1625.069557,882.473376,0
0.070839,118.168622,86.683378,-188.931251,-0.634602,-5.828541,0.252496,5.580460,5.896033,-0.321913,-5.316877,-0.004238,0.614534,-0.061832,48.443067,188.718282,1625.297568,882.538482,0
0.071875,34.710503,138.437971,-190.974811,-0.668532,-4.273520,-2.279461,6.337928,4.411030,2.187710,-6.049794,-0.037115,0.591082,-0.017021,72.420267,188.501655,1625.551992,882.733603,0
0.072917,-44.324040,174.366580,-162.685038,-0.114342,-2.327967,-4.331219,6.207330,2.429800,4.340613,-6.056909,-0.007891,0.614599,-0.069301,91.285346,188.576002,1625.606354,882.973968,0
0.073958,-101.626353,192.330884,-88.119697,1.254168,0.416398,-5.835312,4.871500,-0.268200,5.805259,-4.754738,-0.018850,0.609635,-0.061832,99.417236,188.566460,1626.351057,882.540519,0
0.075000,-148.198660,186.072976,-6.254167,2.769708,2.763132,-6.414725,3.072979,-2.708898,6.531287,-3.082550,-0.051727,0.606238,-0.043161,94.124156,188.723040,1627.730700,882.621484,0
0.076042,-179.220399,137.254043,66.612311,4.160838,4.776140,-5.851186,0.595350,-4.646019,5.968930,-0.713024,-0.102869,0.595524,-0.065566,69.321327,188.487188,1628.818215,881.936146,0
0.077084,-197.232289,54.874358,118.969319,5.190048,6.189150,-4.541554,-1.912131,-6.175131,4.777069,1.788143,-0.190541,0.603429,-0.065566,27.915418,188.566176,1629.528898,882.455605,0
0.078125,-164.055475,-15.134481,171.215531,6.174018,6.632935,-2.604885,-4.109908,-6.575787,2.909541,3.833905,-0.227071,0.610614,-0.054364,-7.405711,188.501659,1630.474845,882.868415,0
0.079167,-118.764871,-85.892335,189.312122,6.502008,5.915779,-0.041180,-5.699471,-5.969289,0.341165,5.459841,-0.227071,0.598660,-0.058098,-43.382821,188.716728,1631.486533,882.739067,0
0.080208,-33.503295,-138.408025,191.158713,6.569868,4.456615,2.486808,-6.505447,-4.476934,-2.193638,6.228335,-0.289172,0.595982,-0.043161,-67.246920,188.565830,1632.831979,882.960587,0
0.081250,43.364831,-174.131258,162.832008,6.060918,2.472009,4.542535,-6.311416,-2.543490,-4.333951,6.231893,-0.270907,0.621066,-0.043161,-86.417370,188.574002,1633.632669,882.729056,0
0.082292,101.336351,-192.675446,87.983523,4.624548,-0.275906,6.082345,-4.953198,0.191269,-5.781810,4.915490,-0.212459,0.609504,-0.046895,-95.148689,188.487997,1635.254107,882.068349,0
0.083333,147.364218,-185.620198,5.354735,3.109008,-2.569386,6.630010,-3.184528,2.646670,-6.516231,3.221955,-0.212459,0.599836,-0.046895,-89.538930,188.723014,1635.796349,881.490010,0
0.084375,179.055165,-137.562362,-65.899053,1.751808,-4.585944,6.102188,-0.710630,4.580114,-5.974858,0.895123,-0.143052,0.599901,-0.054364,-64.702170,188.515431,1635.911587,881.422653,0
0.085428,196.216368,-53.624241,-119.991856,0.711288,-6.034458,4.669529,1.845358,6.094523,-4.657096,-1.709221,-0.091910,0.604147,-0.043161,-21.509281,188.584338,1635.685307,880.481014,0
0.086468,163.187006,18.329624,-171.610228,-0.306612,-6.435639,2.764609,4.054329,6.469450,-2.789568,-3.694499,-0.073645,0.594349,-0.039427,13.834468,188.513632,1636.104408,879.505384,0
0.087513,116.966317,87.843145,-188.328031,-0.623292,-5.796589,0.208841,5.558072,5.885005,-0.263159,-5.348898,-0.048074,0.619303,-0.054364,48.194247,188.666235,1636.053755,879.271095,0
0.088550,34.041296,139.126583,-191.085607,-0.702462,-4.287721,-2.315178,6.375242,4.414705,2.267447,-6.113835,0.014027,0.614338,-0.043161,72.454197,188.580345,1637.479860,879.373620,0
0.089595,-45.118015,174.052476,-162.057197,-0.114342,-2.345719,-4.331219,6.184942,2.393043,4.349006,-6.049794,0.014027,0.636875,-0.087972,90.154346,188.584510,1637.147839,879.123579,0
0.090629,-101.762463,192.669149,-87.097917,1.299408,0.430599,-5.835312,4.822992,-0.271876,5.830439,-4.736948,-0.048074,0.609177,-0.073035,100.898846,188.512049,1637.185997,879.267352,0
0.091670,-148.244030,185.710549,-5.897159,2.781018,2.699227,-6.402819,3.121487,-2.683168,6.539680,-3.057645,-0.040768,0.606695,-0.069301,92.337176,188.739191,1636.793445,879.314297,0
0.092708,-178.846096,138.063463,66.403031,4.126908,4.754838,-5.882935,0.628932,-4.605585,5.977323,-0.780623,-0.113828,0.598007,-0.046895,68.439147,188.658890,1636.342014,879.985817,0
0.093750,-197.470482,54.403203,118.821591,5.167428,6.174949,-4.573302,-1.856160,-6.142049,4.798052,1.763238,-0.190541,0.587293,-0.046895,26.264158,188.577184,1635.773926,880.496445,0
0.094792,-163.919365,-15.460665,170.735417,6.162708,6.608083,-2.676319,-4.065131,-6.557409,2.955704,3.784095,-0.201500,0.611137,-0.050629,-7.564051,188.495761,1634.788467,881.187272,0
0.095833,-118.969036,-85.239967,189.558334,6.535938,6.000986,-0.128488,-5.609919,-6.002370,0.391525,5.427820,-0.234377,0.613750,-0.028224,-42.353611,188.721871,1634.530821,881.844659,0
0.096875,-33.707460,-138.021436,190.974054,6.603798,4.488567,2.427280,-6.486791,-4.469583,-2.139081,6.196315,-0.252642,0.557767,-0.095440,-68.163030,188.721882,1633.579179,881.863294,0
0.097917,43.637051,-174.372876,162.782766,6.083538,2.571417,4.494912,-6.352461,-2.605977,-4.308771,6.246125,-0.259948,0.618192,-0.058098,-85.512570,188.571042,1633.300170,882.992790,0
0.098958,101.438434,-191.539841,89.079167,4.681098,-0.187149,6.026785,-4.994243,0.073645,-5.794400,4.972416,-0.223418,0.611268,-0.043161,-95.205239,188.495600,1632.939471,884.391115,0
0.100000,147.636438,-186.006787,5.539394,3.120318,-2.555185,6.594293,-3.262887,2.554776,-6.520428,3.246860,-0.227071,0.601534,-0.046895,-88.079940,188.721813,1632.345295,885.392781,0
0.101042,178.068367,-137.610685,-66.440720,1.717878,-4.553992,6.094251,-0.777795,4.524978,-6.016825,0.941375,-0.161317,0.602514,-0.050629,-63.672960,188.721828,1631.569875,886.377447,0
0.102083,196.851548,-55.605509,-118.797728,0.711288,-6.045108,4.768744,1.767000,6.090847,-4.770407,-1.645179,-0.091910,0.601208,-0.024490,-22.323601,188.569997,1632.186871,887.371967,0
0.103125,163.572651,16.070494,-170.699243,-0.295302,-6.456941,2.883667,3.931194,6.531938,-2.907076,-3.609111,-0.040768,0.575666,-0.054364,12.556438,188.494605,1632.144068,888.565107,0
0.104168,117.488072,86.622974,-189.189773,-0.623292,-5.832092,0.292181,5.599117,5.925439,-0.351290,-5.299088,-0.051727,0.610222,-0.043161,48.431757,188.720523,1631.864878,889.566267,0
0.105215,33.632966,139.271554,-190.827084,-0.713772,-4.266419,-2.311210,6.397630,4.400002,2.233873,-6.096046,0.054210,0.620087,-0.058098,72.940527,188.596101,1631.121473,889.761508,0
0.106252,-43.291873,174.378661,-162.832766,-0.136962,-2.338618,-4.331219,6.229718,2.470234,4.302843,-6.117393,0.003068,0.614273,-0.050629,91.228796,188.517636,1631.718536,890.722580,0
0.107303,-102.272875,193.768512,-84.906629,1.310718,0.469652,-5.867061,4.860305,-0.282903,5.872406,-4.747622,-0.040768,0.609961,-0.073035,100.107146,188.593262,1632.081507,891.672889,0
0.108336,-148.039865,185.625982,-5.441667,2.837568,2.763132,-6.434568,3.128950,-2.686844,6.548073,-3.121686,-0.037115,0.606172,-0.046895,93.683066,188.742306,1632.116334,892.548586,0
0.109375,-179.254426,138.075544,65.947538,4.149528,4.761938,-5.902778,0.606544,-4.623964,6.027683,-0.737929,-0.110175,0.606434,-0.054364,69.705867,188.589554,1633.047621,892.395110,0
0.110417,-197.198262,54.729387,118.870834,5.178738,6.182050,-4.585208,-1.889743,-6.131022,4.806446,1.773911,-0.168623,0.593434,-0.046895,27.429088,188.593679,1633.036863,892.258311,0
