1-Time,2-VGERA,3-VGERB,4-VGERC,5-VN,6-IGERAN,7-IGERBN,8-IGERCN,9-IGERAT,10-IGERBT,11-IGERCT,12-IN,13-IFD,14-IFAULT,15-VFAULT,16-Speed (rad/s),17-Active Power,18-Reactive Power,19-FAULT 
0.000000,-84.578574,-54.312852,202.755304,6.739518,-1.500752,5.959319,-3.565128,1.977683,-5.664303,3.599087,-0.186888,0.204162,-0.058098,-35.443201,188.344518,1005.219213,-1318.804429,0
0.001042,-36.781277,-138.758371,175.758144,6.332358,-3.748078,6.316492,-1.721831,4.315460,-6.142726,1.841510,-0.161317,0.204358,-0.005818,-13.773241,188.495249,1005.867664,-1318.514988,0
0.002083,5.696387,-187.782680,117.048864,5.190048,-5.150438,4.979079,0.841620,5.657109,-4.871128,-0.581383,-0.095563,0.199328,-0.050629,3.384028,188.419918,1005.465623,-1318.373568,0
0.003125,76.632385,-199.489076,64.765720,4.206078,-6.286527,3.391645,3.345369,6.870107,-3.284778,-3.114570,-0.044421,0.167058,-0.020755,32.631688,188.489940,1005.946368,-1319.028378,0
0.004167,146.740381,-155.127996,18.908712,3.323898,-5.998955,1.200987,5.061799,6.653237,-1.211612,-4.733390,-0.029809,0.182344,-0.039427,66.222387,188.340170,1006.152040,-1318.247318,0
0.005208,200.356381,-93.044231,-32.475758,2.305998,-4.795411,-1.243660,6.013299,5.454943,1.235060,-5.726030,-0.000585,0.192926,-0.061832,88.978106,188.492557,1006.645861,-1319.080189,0
0.006250,179.871825,-47.922054,-108.555303,0.903558,-2.935065,-3.402570,6.188673,3.639122,3.467701,-5.900364,0.035945,0.197238,-0.028224,84.137427,188.416751,1006.428771,-1318.761674,0
0.007292,134.252288,-4.007968,-185.090341,-0.566742,-1.042766,-4.859040,5.502101,1.639514,4.936543,-5.341782,0.006721,0.203378,-0.013287,63.915147,188.492698,1006.373426,-1318.826655,0
0.008333,84.005010,54.850196,-202.756061,-0.883422,1.690948,-5.636883,3.520744,-1.003350,5.780079,-3.431219,-0.044421,0.184630,-0.028224,39.327208,188.282770,1005.863857,-1318.216216,0
0.009376,36.684098,139.319877,-175.685038,-0.408402,3.966676,-6.017867,1.688641,-3.348479,6.182961,-1.666527,-0.066339,0.191228,-0.017021,18.494188,188.497343,1005.770497,-1317.541731,0
0.010417,-5.861621,187.957597,-117.308144,0.699978,5.322882,-4.692360,-0.912124,-4.690128,4.986904,0.742136,-0.121134,0.194625,-0.028224,1.664908,188.498049,1005.417805,-1317.047188,0
0.011458,-76.990442,199.567345,-64.286364,1.695258,6.508675,-3.104926,-3.449455,-5.881071,3.371177,3.261091,-0.208806,0.174831,0.020321,-27.797641,188.497864,1005.486583,-1316.539936,0
0.012500,-146.758162,155.496208,-18.269318,2.600058,6.253055,-0.902362,-5.136035,-5.730365,1.243454,4.933279,-0.212459,0.180907,-0.013287,-60.845460,188.344323,1005.628997,-1316.542467,0
0.013541,-200.691752,92.784235,32.721212,3.595338,5.049511,1.486725,-6.050220,-4.484286,-1.148661,5.886782,-0.281866,0.190444,0.001650,-83.205330,188.498552,1005.209749,-1315.631887,0
0.014583,-180.400019,47.879515,108.702273,5.009088,3.210467,3.693258,-6.214401,-2.686844,-3.356122,6.078906,-0.252642,0.195605,-0.043161,-77.663430,188.519859,1004.645990,-1315.324602,0
0.015625,-134.564974,4.484908,185.409660,6.445458,1.279116,5.090199,-5.583799,-0.749724,-4.837554,5.513208,-0.223418,0.189660,-0.020755,-57.995340,188.435763,1004.136457,-1314.802370,0
0.016666,-85.304494,-54.542389,202.632198,6.773448,-1.483001,5.915665,-3.576322,1.929898,-5.655909,3.588413,-0.194194,0.203966,-0.031958,-33.724081,188.283909,1004.270055,-1314.505843,0
0.017708,-37.155580,-139.120798,175.795076,6.287118,-3.716126,6.300617,-1.688249,4.289730,-6.167906,1.859300,-0.146705,0.193122,-0.031958,-13.162501,188.498575,1004.793524,-1314.510910,0
0.018750,5.991292,-187.939731,117.307387,5.190048,-5.082983,4.983048,0.785649,5.657109,-4.871128,-0.563594,-0.091910,0.193906,-0.028224,2.954248,188.423364,1005.083216,-1314.446260,0
0.019795,77.471730,-199.464914,63.657765,4.183458,-6.332681,3.371803,3.412534,6.855404,-3.293171,-3.121686,-0.044421,0.172284,-0.009553,32.733478,188.500385,1005.586055,-1313.949406,0
0.020833,146.592928,-154.995106,17.899242,3.312588,-6.002505,1.216862,5.050605,6.649562,-1.169645,-4.768969,-0.004238,0.181299,-0.009553,65.340207,188.273297,1005.338573,-1314.244575,0
0.021875,200.583231,-92.500590,-32.832765,2.362548,-4.820262,-1.172226,5.983448,5.421861,1.209880,-5.715356,-0.011544,0.195801,-0.028224,88.921556,188.500761,1005.374095,-1313.646977,0
0.022916,179.826455,-47.728760,-109.023106,0.903558,-2.931514,-3.462099,6.143897,3.675880,3.497078,-5.925269,0.035945,0.185741,-0.046895,81.196827,188.516782,1006.063795,-1314.058023,0
0.023958,134.433768,-4.406638,-185.545834,-0.521502,-1.028565,-4.870946,5.472250,1.624811,4.953330,-5.356014,0.014027,0.208735,-0.024490,62.603187,188.433635,1006.122229,-1314.644446,0
0.025000,84.220518,55.115976,-202.706819,-0.826872,1.772604,-5.672600,3.524475,-1.025405,5.759095,-3.449008,-0.062686,0.207102,-0.002084,39.474238,188.301481,1006.145601,-1314.691104,0
0.026041,36.321138,139.537333,-175.574243,-0.363162,4.005729,-6.033741,1.662521,-3.352155,6.203945,-1.673642,-0.080951,0.192730,-0.046895,17.906068,188.434914,1006.544421,-1314.719782,0
0.027083,-6.224581,188.489156,-116.507955,0.722598,5.361936,-4.680454,-0.871079,-4.704831,4.974314,0.727904,-0.132093,0.193841,-0.020755,2.083378,188.427982,1006.884953,-1314.460173,0
0.028125,-77.387429,199.519022,-63.941667,1.717878,6.519326,-3.069209,-3.490500,-5.899449,3.375374,3.314459,-0.194194,0.174831,-0.043161,-28.227421,188.439551,1006.976417,-1315.025017,0
0.029166,-147.223205,154.735111,-18.466288,2.588748,6.238854,-0.902362,-5.154691,-5.715662,1.235060,4.926164,-0.201500,0.180711,-0.017021,-61.003800,188.271676,1006.827510,-1314.698808,0
0.030208,-201.032027,93.207067,33.275189,3.595338,5.024659,1.466882,-6.098728,-4.521043,-1.220005,5.915245,-0.219765,0.191751,-0.024490,-83.850000,188.492593,1007.078727,-1315.885502,0
0.031250,-179.957661,48.157376,109.403978,5.020398,3.206917,3.685321,-6.214401,-2.694195,-3.377105,6.089579,-0.234377,0.196846,-0.035692,-79.020630,188.492289,1007.280171,-1316.160926,0
0.032291,-134.417522,4.062076,185.520455,6.445458,1.257814,5.121948,-5.520366,-0.749724,-4.908898,5.520324,-0.223418,0.210172,-0.020755,-58.820970,188.492403,1007.566402,-1316.874930,0
0.033333,-83.818627,-54.953140,202.570645,6.796068,-1.525604,5.931539,-3.565128,1.992386,-5.706270,3.570624,-0.238030,0.190967,-0.028224,-35.160451,188.342303,1007.485063,-1317.312395,0
0.034386,-35.601657,-140.775882,175.117993,6.298428,-3.804883,6.296649,-1.650935,4.326487,-6.125939,1.784585,-0.135746,0.195539,-0.031958,-13.400011,188.493116,1007.127370,-1317.048896,0
0.035426,6.683185,-188.519615,115.620834,5.212668,-5.136237,4.903676,0.908785,5.671812,-4.883718,-0.663214,-0.117481,0.191816,-0.065566,3.768568,188.419949,1006.925887,-1317.349440,0
0.036463,78.197650,-199.078325,63.842424,4.172148,-6.293628,3.320211,3.434922,6.884810,-3.259598,-3.135917,-0.048074,0.175485,-0.002084,33.491248,188.495477,1006.813536,-1317.692305,0
0.037504,147.432273,-153.726611,17.886932,3.323898,-5.995405,1.137490,5.043143,6.616480,-1.098301,-4.776085,0.003068,0.181233,-0.024490,66.516447,188.344522,1006.023437,-1317.525085,0
0.038547,201.014246,-91.836140,-33.805303,2.272068,-4.777659,-1.271441,5.972254,5.432888,1.256044,-5.701125,-0.015197,0.191685,-0.013287,89.317406,188.495121,1006.292239,-1317.548964,0
0.039589,179.202617,-46.786449,-109.810985,0.880938,-2.896012,-3.454162,6.125240,3.591337,3.484488,-5.882575,0.010374,0.180776,-0.009553,83.832057,188.423192,1005.461516,-1316.734023,0
0.040629,133.458313,-3.307276,-185.853599,-0.578052,-1.014364,-4.827292,5.449862,1.573351,4.965920,-5.274183,0.017680,0.209715,-0.031958,63.813357,188.499703,1004.534079,-1316.212070,0
0.041677,83.573995,56.541523,-201.857387,-0.860802,1.808107,-5.664663,3.457310,-1.109947,5.750702,-3.374293,-0.033462,0.198348,-0.039427,38.750398,188.349886,1003.484839,-1316.224331,0
0.042723,35.719986,141.627330,-174.823296,-0.363162,3.984428,-5.990087,1.535655,-3.440373,6.178764,-1.581138,-0.066339,0.188680,-0.024490,17.645938,188.497533,1002.884662,-1317.017655,0
0.043764,-7.336146,188.839503,-115.129167,0.711288,5.347734,-4.589177,-1.001677,-4.712182,4.881986,0.845313,-0.146705,0.188746,-0.046895,1.088098,188.426269,1001.454123,-1316.985616,0
0.044805,-79.224914,199.059947,-62.636743,1.729188,6.515776,-3.017617,-3.516620,-5.884746,3.257866,3.371384,-0.183235,0.170259,-0.002084,-28.951261,188.500951,1000.629950,-1316.848029,0
0.045841,-147.631535,153.986095,-17.087500,2.622678,6.185600,-0.838865,-5.109915,-5.656850,1.243454,4.968858,-0.238030,0.178686,-0.031958,-61.343100,188.270532,1000.677254,-1316.363820,0
0.046886,-201.508412,91.781520,34.555493,3.617958,4.960754,1.570065,-6.042758,-4.410771,-1.232595,5.840530,-0.234377,0.190901,-0.013287,-83.261880,188.496297,999.849167,-1314.855033,0
0.047920,-180.059744,47.843272,109.921023,5.009088,3.128811,3.717069,-6.165893,-2.631708,-3.368712,6.032654,-0.245336,0.194233,-0.009553,-77.550330,188.421068,999.047651,-1314.355815,0
0.048963,-134.258727,3.844620,186.160607,6.479388,1.222311,5.066388,-5.475589,-0.683560,-4.854341,5.442051,-0.230724,0.214288,0.012853,-57.723900,188.494317,997.845994,-1313.754239,0
0.050001,-84.431122,-55.375972,202.164395,6.750828,-1.525604,5.891853,-3.501695,2.010765,-5.643319,3.531488,-0.190541,0.202464,-0.024490,-33.192511,188.340689,996.966048,-1313.338735,0
0.051041,-36.350262,-139.543630,175.314963,6.275808,-3.751629,6.300617,-1.673323,4.308109,-6.104955,1.784585,-0.128440,0.190705,-0.024490,-12.800581,188.493268,996.224217,-1313.201899,0
0.052083,6.626472,-188.000136,116.605682,5.201358,-5.072332,4.939393,0.882665,5.675488,-4.850144,-0.627635,-0.121134,0.189007,-0.005818,3.203068,188.416203,995.945476,-1313.124417,0
0.053125,77.619183,-199.235377,63.436174,4.194768,-6.240374,3.288462,3.438653,6.822322,-3.230221,-3.153706,-0.062686,0.171892,-0.031958,32.722168,188.474147,995.045926,-1312.696304,0
0.054166,147.046628,-154.632679,17.923864,3.301278,-5.935050,1.153364,5.024486,6.620156,-1.119284,-4.751180,-0.015197,0.180841,-0.024490,65.577717,188.336604,995.213606,-1312.632922,0
0.055208,200.526518,-92.814693,-33.448296,2.305998,-4.763458,-1.247629,5.968522,5.363049,1.281224,-5.661988,0.028639,0.192338,-0.031958,88.865006,188.491684,993.772510,-1312.528389,0
0.056250,179.792427,-47.789164,-109.614015,0.858318,-2.888911,-3.454162,6.121508,3.583986,3.413144,-5.839881,0.014027,0.186590,-0.031958,81.185517,188.417832,993.456855,-1311.910162,0
0.057291,133.900670,-3.536813,-185.656629,-0.532812,-0.911406,-4.847135,5.438668,1.584378,4.911363,-5.288415,-0.029809,0.201615,-0.031958,62.410917,188.491865,993.552603,-1311.484132,0
0.058333,83.460570,55.659617,-202.448296,-0.815562,1.765504,-5.636883,3.442385,-1.065838,5.792669,-3.395640,-0.048074,0.187308,-0.043161,39.168868,188.342160,994.113618,-1311.723882,0
0.059375,35.708643,139.827275,-175.303410,-0.374472,3.959576,-6.029773,1.621476,-3.388912,6.187158,-1.606043,-0.069992,0.189268,-0.017021,17.770348,188.417986,993.972649,-1311.177028,0
0.060416,-6.757679,188.416671,-116.495644,0.722598,5.315782,-4.648705,-0.923318,-4.701155,4.928150,0.816851,-0.168623,0.183324,0.005384,1.936348,188.417000,994.294463,-1311.546050,0
0.061458,-78.204089,199.229080,-64.003220,1.717878,6.494474,-3.017617,-3.460650,-5.859016,3.308226,3.296670,-0.197847,0.173133,-0.017021,-28.578031,188.492381,994.465723,-1311.052848,0
0.062500,-147.744960,154.578059,-17.900000,2.588748,6.231754,-0.838865,-5.154691,-5.693607,1.176307,4.954626,-0.208806,0.180580,-0.035692,-61.116900,188.341211,993.969362,-1311.876732,0
0.063541,-201.054712,92.639264,33.878409,3.584028,5.003357,1.538317,-6.053952,-4.447528,-1.232595,5.879666,-0.219765,0.190117,-0.046895,-83.872620,188.493011,994.055397,-1312.667197,0
0.064584,-179.572016,47.070094,110.167235,5.020398,3.125260,3.705164,-6.184550,-2.642735,-3.381302,6.064674,-0.238030,0.192796,-0.020755,-78.884910,188.419265,994.529075,-1312.666944,0
0.065625,-134.043219,3.204332,185.692804,6.490698,1.218761,5.137822,-5.490515,-0.668857,-4.875324,5.459841,-0.234377,0.180123,0.009119,-58.685250,188.498727,994.625664,-1312.773891,0
0.066667,-83.535064,-55.508862,202.324432,6.773448,-1.532705,5.891853,-3.490500,2.029144,-5.672696,3.556393,-0.201500,0.192404,-0.009553,-35.341411,188.348496,995.111491,-1312.951519,0
0.067708,-36.293550,-139.966462,175.413448,6.264498,-3.744528,6.272837,-1.650935,4.333839,-6.113349,1.773911,-0.168623,0.188158,0.012853,-13.648831,188.422778,995.180856,-1313.379548,0
0.068750,6.694527,-188.060541,116.593372,5.144808,-5.107835,4.915582,0.890128,5.635054,-4.795587,-0.595615,-0.080951,0.185349,-0.031958,3.836428,188.423111,994.842142,-1312.496124,0
0.069792,78.106910,-199.114568,63.510038,4.217388,-6.282977,3.288462,3.393877,6.851728,-3.247008,-3.135917,-0.069992,0.172806,-0.043161,33.231118,188.498711,995.442617,-1312.532800,0
0.070833,147.160053,-154.101119,17.468371,3.278658,-5.942150,1.121615,5.050605,6.579722,-1.123481,-4.701370,0.003068,0.180057,-0.002084,66.414657,188.349004,995.300653,-1311.393031,0
0.071875,200.696656,-91.848221,-33.829924,2.317308,-4.735056,-1.255566,5.961060,5.414509,1.256044,-5.679778,0.021333,0.189464,-0.009553,89.170376,188.422105,996.371386,-1311.148110,0
0.072917,179.316042,-46.907258,-109.835606,0.892248,-2.888911,-3.442256,6.054344,3.532525,3.476094,-5.836323,0.010374,0.199981,0.020321,83.945157,188.423715,995.732571,-1311.461711,0
0.073958,134.059465,-3.416004,-185.656629,-0.521502,-0.968211,-4.819354,5.420011,1.573351,4.949133,-5.242163,-0.004238,0.196127,-0.020755,63.869907,188.499386,995.229630,-1311.753570,0
0.075000,83.846215,55.973720,-202.214395,-0.894732,1.751303,-5.648789,3.393877,-1.087893,5.729718,-3.363619,-0.033462,0.199590,-0.017021,38.897428,188.492940,994.429240,-1311.348339,0
0.076042,35.935493,140.105136,-175.229546,-0.397092,4.005729,-5.954369,1.587894,-3.366858,6.140994,-1.552675,-0.099216,0.189072,-0.035692,17.917378,188.493543,993.553000,-1311.034736,0
0.077083,-7.188694,188.187134,-116.298675,0.733908,5.283829,-4.601082,-0.927049,-4.675425,4.865200,0.809735,-0.117481,0.183585,-0.002084,1.110718,188.415609,992.978400,-1310.268372,0
0.078125,-78.022609,199.216999,-62.858334,1.717878,6.451871,-3.057303,-3.475575,-5.836962,3.266260,3.335806,-0.186888,0.172153,-0.002084,-28.295281,188.491639,992.326172,-1310.132421,0
0.079167,-147.313945,154.541816,-17.075189,2.667918,6.189150,-0.862676,-5.080064,-5.631120,1.163716,4.894143,-0.219765,0.181233,-0.005818,-61.173450,188.492567,991.763506,-1308.860228,0
0.080208,-200.816519,92.711749,34.186174,3.617958,4.932352,1.550223,-6.001712,-4.399743,-1.186431,5.872551,-0.238030,0.191881,-0.050629,-83.194020,188.491062,991.596496,-1308.212770,0
0.081250,-180.105114,47.927838,110.044129,4.997778,3.121710,3.681352,-6.121116,-2.628032,-3.393892,5.993518,-0.259948,0.198675,-0.039427,-77.550330,188.415369,990.731658,-1308.199492,0
0.082292,-134.292754,3.518435,185.865152,6.445458,1.193909,5.121948,-5.430813,-0.672533,-4.824964,5.417146,-0.234377,0.210042,-0.046895,-57.644730,188.492256,990.257914,-1307.590720,0
0.083333,-83.637147,-55.738399,202.262879,6.750828,-1.554006,5.856136,-3.475575,1.999738,-5.592959,3.467446,-0.219765,0.202203,-0.031958,-32.932381,188.418182,989.086118,-1306.464939,0
0.084375,-35.374807,-140.087271,175.179546,6.309738,-3.726777,6.193466,-1.658398,4.289730,-6.058792,1.781027,-0.124787,0.202594,-0.035692,-12.461281,188.492439,989.043859,-1305.197614,0
0.085417,7.295680,-188.169269,116.433334,5.178738,-5.061681,4.895739,0.860277,5.627703,-4.799784,-0.634751,-0.099216,0.163269,-0.028224,3.485818,188.424746,988.981855,-1305.272640,0
0.086458,78.424500,-198.981678,63.559280,4.217388,-6.233273,3.324180,3.401340,6.770861,-3.230221,-3.153706,-0.029809,0.183389,-0.020755,33.140638,188.503445,988.316609,-1304.669998,0
0.087500,147.602411,-154.451466,17.271402,3.289968,-5.903097,1.117647,5.009560,6.568695,-1.131874,-4.754738,-0.026156,0.182474,-0.017021,65.702127,188.424529,988.515656,-1305.293335,0
0.088542,200.798738,-92.295214,-34.297727,2.260758,-4.720855,-1.223818,5.923746,5.359373,1.268634,-5.661988,-0.000585,0.192926,-0.020755,88.910246,188.424636,987.932250,-1305.213430,0
0.089583,179.542892,-46.532750,-110.155682,0.880938,-2.874710,-3.474005,6.076732,3.528850,3.484488,-5.875459,0.014027,0.193318,-0.039427,81.049797,188.421096,988.403139,-1305.623322,0
0.090625,133.424285,-2.787797,-185.915152,-0.555432,-0.957560,-4.811417,5.393891,1.551296,4.923953,-5.263510,0.014027,0.216966,-0.020755,62.263887,188.497801,988.640097,-1305.253295,0
0.091667,82.780020,56.384471,-202.251326,-0.826872,1.783255,-5.640851,3.449848,-1.076865,5.696145,-3.381409,-0.051727,0.195605,-0.009553,39.112318,188.423711,989.004246,-1304.408303,0
0.092708,35.322998,140.515887,-175.155682,-0.374472,3.970226,-5.974212,1.554312,-3.352155,6.178764,-1.581138,-0.091910,0.186525,-0.017021,17.849518,188.424248,989.955534,-1304.235119,0
0.093750,-7.449571,188.561642,-116.335606,0.745218,5.294480,-4.624894,-0.953169,-4.712182,4.936543,0.806177,-0.121134,0.188419,-0.046895,1.608358,188.473778,991.017800,-1304.901189,0
0.094792,-79.054777,199.120352,-63.301515,1.706568,6.473173,-3.089052,-3.471844,-5.825934,3.329210,3.339364,-0.183235,0.172741,-0.013287,-28.928641,188.488733,991.936227,-1304.839528,0
0.095833,-148.005837,153.925690,-16.964394,2.611368,6.235304,-0.874582,-5.154691,-5.634795,1.155323,4.933279,-0.212459,0.179469,-0.046895,-61.252620,188.297715,992.108332,-1305.168892,0
0.096875,-201.349617,91.986895,34.678599,3.617958,4.985606,1.526411,-6.083803,-4.407095,-1.224202,5.851204,-0.248989,0.189791,0.009119,-83.997030,188.429491,992.229476,-1305.089611,0
0.097917,-179.367851,46.562696,110.684281,5.031708,3.132361,3.717069,-6.203206,-2.657438,-3.444252,6.011307,-0.267254,0.203313,0.001650,-78.783120,188.495969,992.883515,-1305.092688,0
0.098958,-133.861739,2.829824,186.049811,6.434148,1.225861,5.086231,-5.490515,-0.731345,-4.896308,5.459841,-0.245336,0.214745,0.012853,-58.775730,188.495966,994.182406,-1305.491399,0
0.100000,-83.943394,-56.245797,201.979735,6.728208,-1.550456,5.891853,-3.516620,2.014441,-5.622336,3.545719,-0.175929,0.187243,-0.013287,-35.183071,188.495857,995.227496,-1305.967987,0
0.101042,-35.907905,-140.534264,175.228788,6.264498,-3.751629,6.280774,-1.647204,4.341190,-6.075579,1.791701,-0.128440,0.190444,0.009119,-13.275601,188.420482,995.405323,-1306.823568,0
0.102083,7.397762,-188.326320,115.965531,5.133498,-5.065232,4.875896,0.893859,5.646082,-4.837554,-0.624077,-0.088257,0.190575,0.001650,4.085248,188.420567,996.042097,-1306.912641,0
0.103125,78.844173,-199.042082,62.943750,4.160838,-6.226173,3.288462,3.419997,6.859079,-3.200844,-3.175054,-0.029809,0.173525,-0.039427,33.626968,188.495908,996.414873,-1307.775223,0
0.104167,147.659123,-153.509155,16.742046,3.323898,-5.867595,1.161301,5.035680,6.616480,-1.085711,-4.754738,-0.018850,0.182474,-0.017021,66.674787,188.495931,996.495743,-1307.852784,0
0.105208,201.048273,-91.787817,-34.679356,2.305998,-4.720855,-1.259535,5.964791,5.355697,1.251847,-5.679778,-0.004238,0.195147,-0.005818,89.340026,188.345176,996.903036,-1307.729330,0
0.106250,179.134562,-47.088472,-110.918940,0.869628,-2.906662,-3.406539,6.076732,3.547228,3.404750,-5.822092,0.039598,0.199132,-0.031958,83.843367,188.489081,997.063888,-1306.458234,0
0.107292,133.855300,-2.727392,-186.161364,-0.566742,-0.957560,-4.815386,5.386429,1.580702,4.928150,-5.245720,-0.000585,0.208212,-0.024490,63.768117,188.498002,997.282005,-1306.444715,0
0.108333,83.279090,56.771060,-201.931251,-0.872112,1.797456,-5.609103,3.416265,-1.095244,5.696145,-3.367177,-0.033462,0.200765,-0.020755,38.569438,188.487601,997.022976,-1306.666394,0
0.109375,34.937353,140.745424,-175.032576,-0.363162,4.005729,-5.970244,1.599088,-3.352155,6.153584,-1.566907,-0.080951,0.181364,-0.009553,17.566768,188.482243,996.815432,-1306.386198,0
0.110417,-7.982669,188.537480,-115.670834,0.756528,5.319332,-4.601082,-0.927049,-4.726885,4.902970,0.799061,-0.121134,0.207625,-0.017021,0.907138,188.558612,996.750029,-1306.012613,0
