1-Time,2-VGERA,3-VGERB,4-VGERC,5-VN,6-IGERAN,7-IGERBN,8-IGERCN,9-IGERAT,10-IGERBT,11-IGERCT,12-IN,13-IFD,14-IFAULT,15-VFAULT,16-Speed (rad/s),17-FAULT 
0.000000,-125.751851,-49.957671,182.581198,6.524628,4.279101,1.809601,-6.052636,-4.179198,-1.650091,5.935715,-0.245336,0.439986,-0.024490,160.706125,188.497882,0
0.001042,-51.628610,-107.034865,187.403016,6.603798,2.266093,3.897394,-6.025211,-2.150184,-3.696734,5.916681,-0.263601,0.425026,-0.028224,98.535056,188.420345,0
0.002083,13.431972,-163.259630,164.026653,6.185328,0.093323,4.979388,-4.838075,0.007481,-4.953728,4.854557,-0.216112,0.467945,-0.020755,40.639168,188.495861,0
0.003125,65.437337,-186.973718,95.741199,4.805508,-2.391872,5.630871,-2.867352,2.473909,-5.513734,2.924461,-0.150358,0.453769,-0.073035,-22.538491,188.495633,0
0.004167,123.216035,-186.192325,26.463018,3.527478,-4.479436,5.562294,-0.755583,4.591141,-5.610426,0.800213,-0.150358,0.442272,-0.017021,-93.972449,188.495700,0
0.005208,165.818467,-138.953577,-33.100618,2.317308,-5.821441,4.575545,1.661785,5.918087,-4.583076,-1.495345,-0.073645,0.450568,-0.046895,-154.243438,188.495776,0
0.006250,199.244816,-69.314902,-83.776981,1.299408,-6.272326,2.647766,3.898928,6.429016,-2.717730,-3.832779,-0.040768,0.455076,-0.035692,-189.655047,188.495691,0
0.007292,174.064464,-8.378101,-148.788799,-0.012552,-5.459313,0.586642,5.156586,5.671812,-0.755692,-5.020531,-0.015197,0.460694,-0.020755,-190.571157,188.420330,0
0.008333,126.221797,49.918539,-182.553344,-0.645912,-4.269969,-1.634495,6.022451,4.462490,1.540739,-5.953220,-0.022503,0.455729,-0.039427,-156.064348,188.495823,0
0.009375,52.869847,107.410108,-187.540616,-0.815562,-2.228559,-3.699429,5.951928,2.459206,3.627670,-5.880889,0.003068,0.458146,-0.054364,-94.786769,188.420336,0
0.010417,-12.258791,163.575677,-164.743344,-0.374472,0.022317,-4.842381,4.733449,0.224350,4.860491,-4.803538,-0.040768,0.458015,-0.035692,-37.705201,188.495674,0
0.011459,-65.024104,187.348962,-96.469708,1.005348,2.539464,-5.463385,2.735300,-2.238402,5.448699,-2.862021,-0.051727,0.446583,-0.031958,27.168958,188.420301,0
0.012501,-123.789599,186.165033,-27.286072,2.317308,4.563123,-5.425286,0.631367,-4.385040,5.460786,-0.718739,-0.099216,0.443578,-0.050629,100.536926,188.495689,0
0.013542,-166.959156,139.352499,32.762109,3.504858,5.915779,-4.381390,-1.805591,-5.667877,4.501925,1.584433,-0.143052,0.452071,-0.017021,159.303685,188.420358,0
0.014583,-199.614214,68.932431,83.745745,4.534068,6.348913,-2.434562,-4.030980,-6.189834,2.604348,3.906640,-0.197847,0.449458,-0.050629,195.280794,188.495787,0
0.015625,-174.615343,9.297952,148.934835,5.857338,5.528799,-0.388677,-5.237705,-5.417926,0.630224,4.991605,-0.227071,0.459518,-0.039427,195.405204,188.420356,0
0.016667,-126.874759,-49.270992,182.203016,6.490698,4.257799,1.836270,-6.033047,-4.215956,-1.621889,5.924295,-0.223418,0.463111,-0.043161,160.400755,188.495843,0
0.017708,-53.035081,-106.940150,187.367562,6.637728,2.216389,3.866915,-6.048718,-2.161212,-3.700763,5.855771,-0.238030,0.459518,-0.061832,98.806496,188.420347,0
0.018750,12.331750,-162.951808,164.203926,6.151398,0.040068,5.002247,-4.814568,0.051590,-4.865093,4.824102,-0.219765,0.454096,-0.005818,39.779608,188.495633,0
0.019792,65.063035,-187.151307,95.894835,4.816818,-2.441576,5.581343,-2.824255,2.481261,-5.505677,2.863550,-0.183235,0.442076,-0.058098,-23.703421,188.495656,0
0.020833,123.182007,-186.026575,26.203018,3.436998,-4.443933,5.535625,-0.739911,4.569087,-5.505677,0.811633,-0.139399,0.437569,-0.039427,-94.198649,188.495405,0
0.021875,165.943234,-138.929899,-33.301527,2.272068,-5.778838,4.514588,1.673539,5.848248,-4.522643,-1.533414,-0.084604,0.445473,-0.035692,-154.797628,188.420273,0
0.022917,198.915883,-68.853170,-83.493345,1.288098,-6.183569,2.590618,3.832323,6.384907,-2.721758,-3.832779,-0.048074,0.448216,-0.031958,-190.322337,188.495725,0
0.023958,174.211917,-7.584869,-148.138799,-0.012552,-5.416709,0.620931,5.078227,5.613000,-0.731519,-4.932972,-0.015197,0.448674,-0.054364,-190.401507,188.495635,0
0.025000,125.303055,50.344753,-182.399707,-0.634602,-4.181212,-1.607826,5.893159,4.433084,1.540739,-5.884696,-0.029809,0.442990,-0.020755,-155.781598,188.495683,0
0.026042,51.803652,106.841822,-187.670616,-0.770322,-2.189506,-3.668950,5.893159,2.370988,3.575295,-5.808558,-0.007891,0.466965,-0.039427,-93.203370,188.420325,0
0.027083,-12.984711,163.445445,-164.495162,-0.340542,-0.002535,-4.747135,4.674680,0.209647,4.787972,-4.723593,-0.037115,0.435609,-0.046895,-37.829611,188.495658,0
0.028125,-65.182899,186.614926,-96.351526,0.971418,2.475559,-5.390998,2.700039,-2.190618,5.339921,-2.782076,-0.051727,0.430775,-0.035692,26.479048,188.495693,0
0.029167,-123.403954,186.330783,-26.576982,2.351238,4.534721,-5.345280,0.650957,-4.304174,5.448699,-0.756808,-0.069992,0.438679,-0.058098,98.953526,188.495774,0
0.030208,-165.598055,139.707678,33.329381,3.538788,5.812821,-4.358531,-1.715478,-5.605389,4.465666,1.485454,-0.150358,0.448347,-0.061832,158.726875,188.495673,0
0.031250,-199.693612,70.341306,84.029381,4.579308,6.288558,-2.510758,-3.964375,-6.160428,2.620464,3.773398,-0.197847,0.455533,-0.058098,196.095114,188.495651,0
0.032292,-174.819508,9.073005,148.379380,5.812098,5.535899,-0.529641,-5.128003,-5.414250,0.726916,4.904047,-0.234377,0.457885,-0.054364,195.212934,188.495754,0
0.033333,-126.874759,-49.057885,182.628471,6.513318,4.282651,1.748644,-5.997785,-4.238010,-1.609803,5.886226,-0.248989,0.468467,-0.061832,161.927605,188.495711,0
0.034375,-53.999193,-106.466579,186.953925,6.603798,2.298045,3.779289,-5.982113,-2.234727,-3.575869,5.859577,-0.259948,0.460628,-0.031958,100.310726,188.495662,0
0.035417,11.265555,-163.579291,164.499380,6.151398,0.118175,4.910811,-4.845911,-0.058682,-4.905382,4.793647,-0.241683,0.458473,-0.035692,41.996368,188.495721,0
0.036458,65.063035,-185.706915,97.596654,4.816818,-2.356369,5.554674,-2.847762,2.363637,-5.437187,2.909233,-0.179582,0.447171,-0.039427,-22.267051,188.495653,0
0.037500,123.556310,-186.369915,27.349382,3.482238,-4.390679,5.516576,-0.810434,4.513951,-5.549994,0.819247,-0.139399,0.440835,-0.031958,-93.961139,188.495781,0
0.038542,165.239999,-140.196702,-33.017891,2.294688,-5.693631,4.506968,1.603016,5.804139,-4.583076,-1.381139,-0.106522,0.451483,-0.046895,-153.293398,188.495725,0
0.039583,199.278843,-69.338581,-83.564254,1.242858,-6.155167,2.636336,3.836241,6.370204,-2.701614,-3.802324,-0.073645,0.445212,-0.028224,-189.903867,188.495647,0
0.040625,174.336684,-8.733280,-148.044253,-0.001242,-5.391857,0.655219,5.031212,5.561539,-0.771807,-4.841607,-0.007891,0.458864,-0.061832,-190.299717,188.495741,0
0.041667,126.119715,49.800146,-182.565162,-0.736392,-4.202514,-1.543059,5.900995,4.411030,1.504479,-5.861855,-0.011544,0.457493,-0.039427,-155.397058,188.495635,0
0.042708,52.949244,106.829983,-187.268798,-0.838182,-2.196607,-3.627042,5.877487,2.440828,3.490690,-5.736227,-0.007891,0.442337,-0.028224,-93.723629,188.495651,0
0.043750,-12.496984,163.504641,-164.518798,-0.363162,-0.030937,-4.739515,4.659008,0.250081,4.787972,-4.719786,-0.018850,0.434760,-0.043161,-37.037911,188.495698,0
0.044792,-65.103501,186.200551,-96.576072,1.005348,2.454258,-5.352899,2.688285,-2.161212,5.259344,-2.808724,-0.073645,0.441357,-0.046895,27.123718,188.495635,0
0.045833,-122.938911,186.685962,-26.139709,2.373858,4.488567,-5.345280,0.662711,-4.263741,5.400353,-0.791070,-0.110175,0.434890,-0.031958,99.790466,188.495560,0
0.046875,-165.291808,139.577446,33.695745,3.561408,5.741815,-4.309003,-1.695888,-5.550253,4.417320,1.485454,-0.117481,0.442011,-0.039427,158.003035,188.495734,0
0.047917,-199.432734,69.477038,83.580290,4.545378,6.228203,-2.480280,-3.913442,-6.086913,2.612406,3.742943,-0.201500,0.449784,-0.050629,195.416514,188.495712,0
0.048958,-174.581316,8.137702,147.776653,5.857338,5.450692,-0.499162,-5.080987,-5.373817,0.702743,4.881205,-0.219765,0.477547,-0.058098,195.393894,188.495640,0
0.050000,-126.284949,-49.673528,182.238471,6.490698,4.272000,1.710545,-5.974277,-4.109359,-1.557428,5.832929,-0.248989,0.427117,-0.024490,160.819225,188.495691,0
0.051042,-52.683463,-106.431061,187.060289,6.603798,2.294495,3.771669,-5.935098,-2.128130,-3.579898,5.779633,-0.270907,0.429142,-0.031958,99.371996,188.495698,0
0.052083,12.343092,-163.235951,164.227562,6.162708,0.125275,4.907001,-4.779306,-0.010898,-4.853007,4.751771,-0.219765,0.437438,-0.020755,40.842748,188.495709,0
0.053125,65.301227,-185.695075,97.407563,4.839438,-2.317316,5.524196,-2.855598,2.337907,-5.392870,2.905426,-0.157664,0.444428,-0.031958,-23.545081,188.495703,0
0.054167,123.034555,-186.417272,27.172109,3.516168,-4.316123,5.470858,-0.822188,4.502923,-5.489561,0.849702,-0.135746,0.438483,-0.043161,-93.870659,188.495575,0
0.055208,164.774956,-140.421649,-33.065163,2.272068,-5.654578,4.506968,1.556001,5.726948,-4.502499,-1.331649,-0.099216,0.450895,-0.073035,-153.293398,188.495790,0
0.056250,198.893198,-70.889527,-83.694254,1.288098,-6.116114,2.674435,3.804897,6.289338,-2.713701,-3.707152,-0.044421,0.452789,-0.061832,-190.378887,188.495832,0
0.057292,174.915152,-9.680422,-147.725162,0.010068,-5.374106,0.685698,4.929346,5.543161,-0.840297,-4.757855,-0.007891,0.462523,-0.017021,-190.639017,188.495691,0
0.058333,126.868320,49.101628,-182.399707,-0.713772,-4.174112,-1.535439,5.803046,4.377948,1.399730,-5.804752,0.010374,0.463568,-0.065566,-156.969148,188.495723,0
0.059375,54.196919,106.498483,-186.973344,-0.872112,-2.203707,-3.547035,5.787374,2.411422,3.418171,-5.713386,0.010374,0.464678,-0.050629,-94.108169,188.571031,0
0.060417,-10.943061,163.966373,-164.471526,-0.340542,-0.059339,-4.667128,4.619829,0.279487,4.667107,-4.708366,-0.026156,0.454422,-0.024490,-38.440351,188.495700,0
0.061458,-65.137529,185.075819,-98.218799,0.971418,2.344199,-5.303372,2.735300,-2.072994,5.259344,-2.831566,-0.059033,0.443317,-0.013287,26.264158,188.495790,0
0.062500,-123.324556,186.745158,-27.061527,2.339928,4.392710,-5.284322,0.682300,-4.175523,5.392296,-0.829139,-0.095563,0.437830,-0.050629,98.523746,188.495631,0
0.063542,-164.452463,141.009999,33.790291,3.550098,5.660159,-4.301383,-1.641037,-5.432629,4.405233,1.401702,-0.135746,0.446257,-0.043161,157.279195,188.495790,0
0.064583,-199.398707,70.009806,83.804836,4.556688,6.160748,-2.480280,-3.858591,-6.039128,2.604348,3.708681,-0.197847,0.443121,-0.054364,196.264764,188.495752,0
0.065625,-175.125756,8.919095,147.114835,5.800788,5.386787,-0.495353,-4.955613,-5.300302,0.730945,4.755578,-0.223418,0.456578,-0.061832,194.817084,188.568397,0
0.066667,-126.489114,-49.140760,182.711198,6.513318,4.190344,1.680066,-5.860657,-4.094656,-1.501024,5.726336,-0.245336,0.439006,-0.009553,161.158525,188.495721,0
0.067708,-53.329986,-105.957490,186.729380,6.603798,2.290945,3.672613,-5.848903,-2.186942,-3.503351,5.714915,-0.238030,0.427443,-0.017021,99.077936,188.495774,0
0.068750,11.923420,-163.721362,164.156653,6.185328,0.132376,4.804136,-4.740127,-0.040304,-4.724085,4.747964,-0.241683,0.418232,-0.065566,41.159428,188.495714,0
0.069792,65.528077,-184.463790,97.880290,4.862058,-2.225009,5.383231,-2.859516,2.304825,-5.280062,2.897812,-0.186888,0.426725,-0.028224,-22.515871,188.571015,0
0.070833,122.830390,-186.843486,26.191200,3.482238,-4.259318,5.455618,-0.877039,4.414705,-5.417042,0.861123,-0.135746,0.434433,-0.054364,-93.565290,188.495731,0
0.071875,163.459226,-140.788667,-34.329709,2.305998,-5.505466,4.480299,1.438462,5.653433,-4.494442,-1.285966,-0.106522,0.442076,-0.039427,-151.811788,188.495712,0
0.072917,198.893198,-69.906866,-83.646981,1.231548,-6.052209,2.651576,3.703031,6.248905,-2.745931,-3.646242,-0.029809,0.450764,-0.073035,-189.971727,188.495807,0
0.073958,174.790384,-8.508333,-146.968799,-0.001242,-5.331503,0.742846,4.858823,5.465970,-0.860441,-4.674103,-0.000585,0.449066,-0.043161,-190.390197,188.571082,0
0.075000,126.153742,49.575200,-182.352435,-0.668532,-4.191863,-1.466862,5.756031,4.377948,1.379586,-5.721000,-0.015197,0.453508,-0.073035,-156.030418,188.495635,0
0.076042,53.652479,106.249858,-186.689707,-0.781632,-2.225009,-3.497507,5.748195,2.440828,3.373854,-5.724807,0.014027,0.448021,-0.035692,-94.854629,188.495682,0
0.077083,-11.385419,163.800623,-164.530617,-0.329232,-0.112594,-4.621410,4.674680,0.341974,4.606675,-4.750241,-0.011544,0.444232,-0.046895,-38.429041,188.495669,0
0.078125,-65.296324,184.519372,-99.046072,0.960108,2.269643,-5.238604,2.727464,-1.981100,5.206970,-2.869635,-0.055380,0.440116,-0.039427,26.818348,188.571075,0
0.079167,-123.154419,186.887229,-27.475163,2.339928,4.353657,-5.303372,0.725398,-4.109359,5.396324,-0.871014,-0.124787,0.442468,-0.031958,99.564266,188.495731,0
0.080208,-164.168900,141.661160,33.376654,3.550098,5.628206,-4.316623,-1.578350,-5.410575,4.413291,1.321758,-0.172276,0.448543,-0.039427,156.397015,188.571123,0
0.081250,-199.251254,72.034324,83.923017,4.556688,6.167849,-2.537427,-3.784150,-6.061182,2.676867,3.643964,-0.175929,0.452855,-0.028224,195.540924,188.495785,0
0.082292,-175.432003,10.221416,147.292108,5.812098,5.425841,-0.602028,-4.920352,-5.311329,0.839723,4.709895,-0.230724,0.461935,-0.054364,195.755814,188.571076,0
0.083333,-127.770816,-48.690867,182.356653,6.490698,4.264900,1.596250,-5.876329,-4.171847,-1.444621,5.733950,-0.238030,0.464090,-0.039427,161.610925,188.495658,0
0.084375,-55.031361,-105.910132,186.516653,6.581178,2.329998,3.604036,-5.880247,-2.278836,-3.450976,5.695881,-0.234377,0.463503,-0.058098,99.813086,188.571064,0
0.085417,10.630375,-163.662166,164.274835,6.162708,0.217582,4.769847,-4.744045,-0.124846,-4.687825,4.759385,-0.216112,0.458734,-0.020755,41.453488,188.495743,0
0.086458,65.233172,-184.073093,99.133017,4.873368,-2.217909,5.402281,-2.886942,2.246013,-5.255889,2.916847,-0.161317,0.442795,-0.050629,-23.545081,188.495720,0
0.087500,122.671595,-186.807968,27.077563,3.493548,-4.252218,5.463238,-0.888793,4.352218,-5.408985,0.899192,-0.135746,0.437895,-0.058098,-93.305160,188.495631,0
0.088542,163.289089,-141.629256,-34.069709,2.238138,-5.480614,4.491729,1.426709,5.616676,-4.522643,-1.285966,-0.069992,0.445016,-0.009553,-151.823098,188.571122,0
0.089583,198.711718,-70.498830,-83.635163,1.265478,-6.006055,2.704914,3.656016,6.237877,-2.725787,-3.558683,-0.048074,0.446453,-0.013287,-190.718187,188.495734,0
0.090625,175.142002,-8.768798,-146.354253,0.043998,-5.256947,0.769514,4.780464,5.476997,-0.916845,-4.636035,-0.018850,0.460171,-0.039427,-190.311027,188.571187,0
0.091667,126.289852,49.598878,-182.387889,-0.657222,-4.163461,-1.394475,5.728605,4.377948,1.331240,-5.641055,0.014027,0.433714,-0.058098,-156.403648,188.495734,0
0.092708,53.380259,105.906519,-186.772435,-0.792942,-2.249861,-3.394641,5.720769,2.540073,3.309393,-5.622021,0.003068,0.418298,-0.050629,-93.520050,188.571062,0
0.093750,-11.839119,164.049248,-164.199708,-0.306612,-0.148096,-4.526164,4.627665,0.411814,4.530127,-4.674103,-0.004238,0.422936,-0.035692,-37.954021,188.495691,0
0.094792,-65.602571,183.844533,-99.093345,0.994038,2.251892,-5.154788,2.758808,-1.966397,5.134451,-2.865828,-0.048074,0.439790,-0.035692,26.173678,188.571064,0
0.095833,-122.700719,187.124015,-26.529709,2.339928,4.264900,-5.234794,0.764577,-4.079953,5.319777,-0.901470,-0.128440,0.434825,-0.050629,98.003486,188.495743,0
0.096875,-162.705718,142.193928,34.286654,3.561408,5.560751,-4.293764,-1.480402,-5.329708,4.397176,1.306530,-0.135746,0.444297,-0.043161,155.503525,188.571040,0
0.097917,-198.967692,71.264770,83.993926,4.567998,6.096843,-2.552667,-3.721463,-5.958261,2.701040,3.602088,-0.175929,0.450307,-0.039427,196.366554,188.495665,0
0.098958,-175.851676,9.534737,146.334835,5.789478,5.361936,-0.689655,-4.802814,-5.256193,0.888069,4.607109,-0.227071,0.460040,-0.050629,195.371274,188.571116,0
0.100000,-127.146979,-48.702706,182.604835,6.502008,4.272000,1.512433,-5.790134,-4.179198,-1.400304,5.673040,-0.223418,0.458864,-0.043161,162.380005,188.495674,0
0.101042,-54.951963,-105.483918,186.221198,6.615108,2.354850,3.524029,-5.747037,-2.256781,-3.322053,5.673040,-0.227071,0.454161,-0.069301,100.978016,188.571160,0
0.102083,10.278757,-164.147576,164.014835,6.174018,0.245985,4.701270,-4.763634,-0.165279,-4.607249,4.755578,-0.208806,0.453442,-0.020755,42.686278,188.495783,0
0.103125,65.425995,-183.019397,100.563017,4.918608,-2.125601,5.303225,-2.906531,2.143092,-5.223659,2.966337,-0.143052,0.442860,-0.043161,-22.074781,188.571201,0
0.104167,122.841732,-186.890843,27.987563,3.504858,-4.167011,5.428950,-0.939726,4.275027,-5.425100,0.990558,-0.121134,0.442599,-0.024490,-93.158130,188.495752,0
0.105208,162.835389,-142.753988,-33.880618,2.272068,-5.406058,4.491729,1.297417,5.524782,-4.534730,-1.206021,-0.073645,0.450764,-0.039427,-150.409348,188.571147,0
0.106250,198.586950,-70.676420,-83.741526,1.276788,-5.935050,2.670625,3.628590,6.157011,-2.729816,-3.535842,-0.033462,0.441292,-0.058098,-190.073517,188.495662,0
0.107292,175.561674,-10.284226,-146.366071,0.032688,-5.260497,0.788564,4.698187,5.462294,-0.973248,-4.506600,-0.022503,0.460563,-0.058098,-190.571157,188.646610,0
0.108333,127.276650,48.734611,-182.411526,-0.713772,-4.152810,-1.386855,5.693344,4.374272,1.290951,-5.591565,-0.000585,0.451875,-0.024490,-156.233998,188.495629,0
0.109375,54.866127,105.799965,-186.382435,-0.792942,-2.239210,-3.356543,5.630657,2.473909,3.277162,-5.568724,-0.022503,0.457035,-0.024490,-94.470089,188.495656,0
0.110417,-10.580101,164.049248,-164.270617,-0.385782,-0.176499,-4.499495,4.619829,0.382408,4.538185,-4.674103,-0.011544,0.453247,-0.061832,-38.078431,188.495702,0
0.111458,-65.489146,183.548551,-99.696072,0.960108,2.184437,-5.120499,2.715710,-1.878179,5.090134,-2.865828,-0.066339,0.432343,-0.028224,27.044548,188.571170,0
0.112500,-122.598636,187.147694,-26.647891,2.339928,4.243598,-5.200506,0.799838,-4.035844,5.291575,-0.905277,-0.128440,0.433322,-0.017021,98.964836,188.495712,0
0.113542,-162.819143,142.359678,34.523018,3.550098,5.496846,-4.305193,-1.472566,-5.311329,4.385089,1.268461,-0.168623,0.439136,-0.069301,155.186845,188.571131,0
0.114583,-198.899637,71.170056,83.840290,4.534068,6.103944,-2.506949,-3.713627,-5.932531,2.652694,3.544985,-0.186888,0.442599,-0.058098,195.710574,188.495622,0
0.115625,-175.658853,9.001970,145.992108,5.800788,5.326433,-0.701084,-4.818486,-5.223111,0.867925,4.607109,-0.175929,0.453508,-0.065566,195.495684,188.646533,0
0.116667,-126.999526,-49.318349,182.167562,6.513318,4.193894,1.512433,-5.782298,-4.124062,-1.368073,5.627357,-0.241683,0.466507,-0.017021,161.362105,188.495758,0
0.117708,-53.806371,-105.507597,186.469380,6.615108,2.326448,3.501170,-5.770545,-2.223699,-3.338169,5.631164,-0.223418,0.432212,-0.035692,99.349376,188.570998,0
0.118750,11.333610,-163.697683,164.073926,6.162708,0.249535,4.705080,-4.740127,-0.121170,-4.607249,4.744157,-0.201500,0.410132,-0.043161,41.679688,188.495604,0
0.119792,65.573447,-183.279861,100.054835,4.907298,-2.040395,5.307035,-2.906531,2.124713,-5.183371,2.966337,-0.172276,0.436915,-0.028224,-23.443291,188.571011,0
0.120833,122.399375,-186.950040,27.172109,3.538788,-4.142159,5.371802,-0.967152,4.297081,-5.388841,0.998171,-0.161317,0.439267,-0.035692,-93.078960,188.495622,0
0.121875,162.381689,-142.564559,-34.329709,2.294688,-5.388307,4.533637,1.262155,5.521106,-4.546816,-1.171759,-0.135746,0.448804,-0.069301,-150.827818,188.571114,0
0.122917,198.439498,-71.943223,-83.942436,1.254168,-5.991854,2.762061,3.554149,6.116578,-2.842623,-3.490159,-0.048074,0.455206,-0.013287,-190.706877,188.495698,0
0.123958,175.743154,-10.023762,-146.070617,0.066618,-5.296000,0.860951,4.643336,5.488024,-1.005479,-4.514214,-0.022503,0.460628,-0.009553,-190.740807,188.571151,0
0.125000,127.242622,48.841164,-182.281526,-0.645912,-4.195413,-1.303039,5.654164,4.355893,1.230519,-5.644862,0.003068,0.461477,-0.039427,-157.659058,188.495812,0
0.126042,55.319827,105.693412,-186.382435,-0.781632,-2.303115,-3.337494,5.665918,2.525370,3.228816,-5.641055,-0.007891,0.462392,-0.028224,-95.171309,188.571087,0
0.127083,-9.956264,164.392588,-164.258798,-0.351852,-0.233303,-4.510925,4.702105,0.422841,4.522069,-4.719786,-0.040768,0.446845,-0.020755,-39.175501,188.495729,0
