1-Time,2-VGERA,3-VGERB,4-VGERC,5-VN,6-IGERAN,7-IGERBN,8-IGERCN,9-IGERAT,10-IGERBT,11-IGERCT,12-IN,13-IFD,14-IFAULT,15-VFAULT,16-Speed (rad/s),17-Active Power,18-Reactive Power,19-FAULT 
0.000000,-61.235708,-92.307295,201.955114,6.682968,-0.247504,6.106157,-4.990511,0.536789,-5.836367,4.922606,-0.248989,0.330631,-0.050629,149.497915,188.495638,1503.993903,-878.077086,0
0.001042,-10.307881,-157.399206,167.657766,6.072228,-2.608439,6.415706,-2.953183,2.926027,-6.264430,3.029831,-0.197847,0.331611,-0.035692,129.501836,188.571111,1504.167157,-879.188803,0
0.002083,37.931773,-207.498715,98.582955,4.760268,-4.809612,5.931539,-0.382269,5.050610,-5.811187,0.550012,-0.150358,0.332330,-0.039427,83.933847,188.495597,1504.561012,-880.033339,0
0.003125,109.922624,-186.852450,43.997727,3.719748,-6.055759,4.538566,2.087898,6.487829,-4.526999,-1.780378,-0.080951,0.307964,-0.050629,42.912478,188.495551,1504.777920,-880.485386,0
0.004167,178.488040,-137.320744,-6.611174,2.792328,-6.478242,2.716986,4.106569,6.829673,-2.684651,-3.822582,-0.033462,0.319265,-0.043161,5.804368,188.495693,1505.652859,-880.384279,0
0.005208,196.511273,-76.940385,-63.227652,1.717878,-5.636826,0.018349,5.617773,6.079820,-0.095291,-5.388034,-0.026156,0.323380,-0.069301,-31.643041,188.571075,1506.607942,-880.619537,0
0.006250,173.417942,-24.146835,-146.201137,0.134478,-4.401330,-2.271524,6.453600,4.760226,2.254857,-6.152971,0.006721,0.333636,-0.039427,-91.970580,188.495626,1506.804960,-880.856113,0
0.007292,124.406997,27.402382,-192.156629,-0.668532,-2.228559,-3.981983,5.822999,2.687103,3.941927,-5.637084,-0.029809,0.343501,-0.035692,-129.316199,188.571123,1506.638480,-881.231975,0
0.008333,61.660284,92.397646,-201.894319,-0.872112,0.380895,-5.839281,4.916276,-0.010898,5.855619,-4.776085,0.010374,0.328868,-0.024490,-144.731728,188.495687,1505.958932,-882.301603,0
0.009375,10.426210,157.586204,-167.941667,-0.283992,2.787984,-6.140893,2.860291,-2.370729,6.266895,-2.851289,-0.059033,0.327757,-0.039427,-128.117339,188.570273,1505.738238,-882.926972,0
0.010417,-37.824787,207.480338,-98.559091,0.994038,4.921701,-5.656726,0.270720,-4.462231,5.792669,-0.343008,-0.095563,0.306592,-0.020755,-79.812330,188.475884,1505.494131,-883.559356,0
0.011458,-110.257996,187.474361,-43.666099,2.034558,6.196251,-4.287564,-2.177058,-5.833286,4.600808,1.990940,-0.190541,0.304240,-0.031958,-36.359311,188.696416,1505.441578,-883.241996,0
0.012500,-178.437766,137.121153,6.905871,3.007218,6.647136,-2.469953,-4.173341,-6.267024,2.699706,3.997566,-0.172276,0.315019,-0.031958,-0.834602,188.486835,1505.030841,-883.212878,0
0.013542,-197.164234,76.535419,63.386932,4.104288,5.795069,0.145344,-5.695740,-5.498793,0.122937,5.516766,-0.234377,0.319265,-0.043161,37.121758,188.487378,1504.815080,-883.321823,0
0.014583,-173.526463,24.200943,146.052652,5.676378,4.573774,2.447122,-6.527836,-4.238010,-2.185244,6.324397,-0.274560,0.334812,-0.035692,96.284366,188.488161,1504.538619,-882.399965,0
0.015625,-124.810424,-26.840877,192.229735,6.535938,2.401003,4.125833,-5.856189,-2.194293,-3.884905,5.797836,-0.252642,0.340757,-0.039427,134.399066,188.638624,1504.330261,-882.377068,0
0.016667,-62.233848,-91.860302,201.708902,6.694278,-0.219102,6.042659,-4.997974,0.492680,-5.819580,4.922606,-0.212459,0.334028,-0.028224,150.527125,188.489746,1504.190657,-882.188230,0
0.017708,-11.045144,-157.435449,168.039394,6.049608,-2.604889,6.328397,-2.964377,2.874566,-6.260233,3.076083,-0.201500,0.328018,-0.031958,129.795896,188.479893,1504.622880,-881.731196,0
0.018750,37.670896,-207.148369,98.989205,4.782888,-4.777659,5.879948,-0.378538,5.035907,-5.790203,0.567801,-0.154011,0.315280,-0.035692,83.854677,188.483379,1504.271922,-881.557958,0
0.019792,109.741144,-187.432334,44.280871,3.753678,-6.069960,4.514755,2.054315,6.447395,-4.535392,-1.837303,-0.051727,0.307245,-0.046895,42.539248,188.629759,1503.924553,-882.114303,0
0.020833,178.227162,-136.837508,-6.549621,2.781018,-6.439189,2.681269,4.091643,6.811295,-2.676257,-3.819024,-0.029809,0.313124,-0.009553,5.872228,188.478295,1503.454563,-881.883394,0
0.021875,196.772150,-75.841023,-62.882955,1.706568,-5.604874,-0.001494,5.632699,6.054090,-0.057521,-5.338224,-0.029809,0.319330,-0.028224,-31.337671,188.487886,1502.627610,-881.397161,0
0.022917,172.998269,-23.434062,-145.917993,0.168408,-4.408430,-2.223901,6.457332,4.782280,2.280037,-6.163645,0.024986,0.311034,-0.043161,-91.450320,188.488632,1502.786189,-881.306770,0
0.023958,124.180147,27.366140,-192.181251,-0.747702,-2.239210,-3.981983,5.830462,2.756942,3.941927,-5.669104,-0.007891,0.318350,-0.039427,-128.411399,188.565968,1503.703600,-880.817979,0
0.025000,62.159355,92.421808,-201.820455,-0.939972,0.412848,-5.871029,5.005829,0.033211,5.889193,-4.793874,-0.004238,0.315737,-0.031958,-144.618628,188.495135,1504.339071,-880.840577,0
0.026042,11.004677,157.851984,-167.953978,-0.306612,2.766682,-6.220265,2.867754,-2.322945,6.321452,-2.918889,-0.088257,0.323054,-0.031958,-125.572589,188.495284,1505.620149,-880.471833,0
0.027083,-37.734047,207.576985,-99.137690,1.005348,4.996257,-5.696412,0.274452,-4.502664,5.876602,-0.392817,-0.121134,0.313451,-0.020755,-79.212900,188.495427,1507.129695,-880.865232,0
0.028125,-110.348736,187.293147,-44.072349,2.034558,6.228203,-4.335187,-2.225566,-5.906801,4.584021,2.019403,-0.179582,0.305155,-0.020755,-36.619441,188.495325,1507.333600,-881.942417,0
0.029167,-178.868781,137.217800,6.610417,2.995908,6.689740,-2.430267,-4.247969,-6.314809,2.703903,4.040260,-0.197847,0.309205,-0.020755,-0.732812,188.495369,1508.024206,-882.776442,0
0.030208,-197.016782,75.931374,63.128409,4.126908,5.844773,0.224716,-5.751711,-5.506144,0.097757,5.573692,-0.245336,0.316129,-0.020755,36.658048,188.495363,1508.114217,-883.407998,0
0.031250,-173.401696,23.137823,146.101894,5.642448,4.598626,2.490777,-6.553955,-4.241686,-2.243998,6.399112,-0.296478,0.325667,-0.031958,96.080786,188.495374,1508.852397,-884.197715,0
0.032292,-123.664831,-27.167061,192.118940,6.524628,2.401003,4.205205,-5.930816,-2.157536,-3.926872,5.815625,-0.259948,0.334290,-0.028224,133.064486,188.419978,1508.733420,-884.464238,0
0.033333,-61.700751,-92.017354,201.918182,6.728208,-0.215552,6.078377,-5.031556,0.496356,-5.819580,5.040015,-0.216112,0.328018,-0.035692,149.328265,188.495428,1510.213107,-884.189000,0
0.034375,-11.532871,-157.411287,167.817804,6.072228,-2.661693,6.419675,-3.012885,2.914999,-6.247643,3.090315,-0.168623,0.324556,-0.046895,129.513146,188.495483,1510.080673,-884.600848,0
0.035417,37.591498,-207.389987,99.407765,4.805508,-4.816712,5.915665,-0.386001,5.076340,-5.781810,0.582033,-0.132093,0.316129,-0.039427,84.352317,188.495354,1510.323591,-885.108713,0
0.036458,110.047392,-186.937016,44.896402,3.764988,-6.041558,4.518723,2.091629,6.473126,-4.543786,-1.819514,-0.088257,0.309074,-0.028224,43.048198,188.420048,1510.578915,-885.156446,0
0.037500,178.522067,-137.187854,-6.364962,2.792328,-6.524396,2.661426,4.084180,6.851728,-2.684651,-3.858160,-0.044421,0.313778,-0.024490,5.623408,188.495345,1511.242156,-885.939938,0
0.038542,196.533958,-75.925590,-62.735227,1.717878,-5.601324,-0.021337,5.670013,6.065117,-0.015554,-5.341782,-0.011544,0.312994,-0.024490,-31.326361,188.495327,1510.997894,-886.417030,0
0.039583,173.157064,-23.083715,-145.622538,0.123168,-4.376478,-2.299304,6.464794,4.763902,2.250660,-6.199223,-0.011544,0.317109,-0.043161,-91.484250,188.495296,1511.150162,-886.349841,0
0.040625,123.193350,27.535272,-192.132008,-0.713772,-2.203707,-3.989920,5.804342,2.731212,3.992287,-5.647757,-0.011544,0.321159,-0.050629,-129.293579,188.568348,1510.714387,-886.600480,0
0.041667,60.945707,92.156028,-201.918940,-0.917352,0.366694,-5.855155,4.979709,0.014833,5.914373,-4.808105,0.021333,0.319657,-0.017021,-144.652558,188.495859,1510.911225,-886.578770,0
0.042708,11.072732,157.489557,-168.015531,-0.238752,2.773783,-6.208359,2.856560,-2.352351,6.304665,-2.858405,-0.048074,0.320571,-0.017021,-128.106029,188.495653,1509.955479,-887.191776,0
0.043750,-37.427800,207.262881,-99.396212,0.994038,4.978505,-5.656726,0.278183,-4.510016,5.868209,-0.371470,-0.113828,0.313059,-0.024490,-80.309970,188.495696,1509.529427,-887.591130,0
0.044792,-110.507531,187.389794,-44.823296,2.023248,6.238854,-4.287564,-2.158401,-5.873719,4.563038,1.994498,-0.161317,0.307833,-0.043161,-37.003981,188.495754,1509.134449,-887.371221,0
0.045833,-178.698644,137.495661,6.204167,2.939358,6.632935,-2.430267,-4.221849,-6.259673,2.691313,4.061607,-0.212459,0.313712,-0.046895,-1.139972,188.495864,1508.350259,-887.653623,0
0.046875,-197.186919,76.644147,62.968371,4.025118,5.777318,0.220747,-5.733054,-5.513496,0.026413,5.541671,-0.248989,0.316587,-0.020755,36.805078,188.495747,1507.852544,-888.361779,0
0.047917,-173.390353,23.403603,145.831061,5.597208,4.534721,2.470934,-6.546492,-4.208604,-2.218818,6.359976,-0.245336,0.338144,-0.013287,95.967686,188.495953,1507.045761,-888.007086,0
0.048958,-123.517379,-27.239546,192.278978,6.490698,2.425855,4.157582,-5.859920,-2.157536,-3.914282,5.794278,-0.252642,0.318742,-0.035692,134.432996,188.492282,1506.829455,-887.732343,0
0.050000,-60.770666,-91.654927,201.979735,6.728208,-0.236853,6.082345,-5.027825,0.613980,-5.857351,4.936837,-0.208806,0.283532,-0.031958,150.696775,188.493393,1505.201517,-889.084243,0
0.051042,-10.840979,-157.362963,168.027084,6.072228,-2.576487,6.360146,-2.983034,2.900296,-6.239250,3.040505,-0.190541,0.335923,0.001650,129.829826,188.495761,1504.743819,-888.952668,0
0.052083,37.262566,-207.196692,99.432387,4.794198,-4.791860,5.951382,-0.359881,5.039583,-5.794400,0.546454,-0.113828,0.319134,-0.031958,84.397557,188.495754,1504.311975,-888.976253,0
0.053125,110.013364,-187.118230,45.167235,3.753678,-6.059310,4.522692,2.065509,6.462098,-4.514409,-1.808840,-0.080951,0.309532,-0.024490,43.274397,188.495636,1503.945479,-888.997140,0
0.054167,178.612807,-137.356986,-5.872538,2.803638,-6.474692,2.677300,4.128957,6.859079,-2.659471,-3.815466,-0.037115,0.315933,-0.043161,6.381178,188.495797,1503.685826,-888.912090,0
0.055208,196.794835,-76.650444,-62.612121,1.695258,-5.622625,-0.009431,5.662550,6.101875,-0.023948,-5.356014,0.028639,0.318154,-0.024490,-31.077541,188.495714,1504.293367,-889.349704,0
0.056250,173.157064,-23.748165,-145.831819,0.145788,-4.380028,-2.307241,6.505840,4.708765,2.288430,-6.156529,-0.000585,0.329652,-0.005818,-91.144950,188.495767,1503.242177,-889.899048,0
0.057292,123.533625,27.474868,-192.279735,-0.736392,-2.196607,-3.993889,5.826730,2.668724,4.004877,-5.651315,0.021333,0.325471,-0.035692,-128.547119,188.420303,1502.875579,-890.689532,0
0.058333,60.684829,92.180190,-201.955872,-0.906042,0.444800,-5.906746,4.975978,0.047914,5.935356,-4.751180,-0.015197,0.294572,-0.020755,-144.810898,188.495432,1502.536997,-890.502442,0
0.059375,10.585005,157.622447,-167.781629,-0.295302,2.809285,-6.188516,2.897605,-2.389108,6.380206,-2.858405,-0.062686,0.320767,-0.035692,-125.527349,188.495779,1503.348974,-891.107382,0
0.060417,-37.484512,207.649470,-98.977652,1.005348,5.049511,-5.728160,0.259526,-4.495313,5.880799,-0.367912,-0.113828,0.304697,0.016587,-79.495650,188.495660,1503.554197,-890.880615,0
0.061458,-110.326051,187.111933,-44.835606,2.000628,6.253055,-4.343124,-2.206909,-5.888422,4.584021,2.054981,-0.194194,0.308029,-0.009553,-37.501621,188.420296,1503.535637,-891.581412,0
0.062500,-179.152344,137.906411,5.871780,2.928048,6.721692,-2.473921,-4.214386,-6.311133,2.716493,4.061607,-0.205153,0.314170,-0.028224,-1.490582,188.495772,1504.464610,-891.913864,0
0.063542,-196.994097,77.429406,62.882197,4.036428,5.827022,0.212810,-5.781562,-5.520847,0.118740,5.577249,-0.238030,0.320767,-0.013287,36.318748,188.495586,1505.201970,-891.671906,0
0.064583,-173.719286,24.128457,146.151137,5.676378,4.573774,2.494746,-6.598732,-4.226983,-2.256588,6.402670,-0.230724,0.329194,-0.028224,95.945066,188.495801,1505.831406,-892.708678,0
0.065625,-123.721544,-26.973767,192.278978,6.513318,2.340649,4.213142,-5.923354,-2.183266,-3.956249,5.815625,-0.270907,0.339973,-0.024490,133.222826,188.420271,1506.360186,-893.213200,0
0.066667,-61.144968,-91.691169,202.115152,6.705588,-0.286557,6.086314,-5.020362,0.569871,-5.857351,4.968858,-0.227071,0.325471,-0.013287,149.588395,188.495776,1507.000056,-892.910227,0
0.067708,-10.761581,-157.157588,167.670076,6.060918,-2.615540,6.447455,-2.960646,2.933378,-6.306397,3.036947,-0.183235,0.325797,-0.050629,129.626246,188.495749,1507.471322,-893.557171,0
0.068750,37.262566,-207.631605,98.792235,4.782888,-4.823813,5.911696,-0.374807,5.098395,-5.823777,0.550012,-0.139399,0.300386,-0.009553,84.261837,188.495732,1508.192019,-894.020001,0
0.069792,109.605034,-186.912855,44.810227,3.764988,-6.077061,4.542535,2.087898,6.462098,-4.573163,-1.830187,-0.055380,0.313255,-0.031958,43.545837,188.420358,1508.600395,-893.971469,0
0.070833,178.567437,-137.791899,-5.798674,2.826258,-6.510195,2.724923,4.084180,6.829673,-2.714028,-3.851044,-0.069992,0.319004,-0.050629,6.290698,188.495711,1508.877149,-894.049927,0
0.071875,196.613355,-77.701482,-62.649053,1.740498,-5.619075,0.014381,5.625236,6.109226,-0.061718,-5.348898,-0.000585,0.321355,-0.043161,-31.145401,188.495741,1509.108388,-893.984980,0
0.072917,173.576737,-24.473019,-145.770266,0.134478,-4.404880,-2.267555,6.479720,4.749199,2.254857,-6.199223,-0.018850,0.330827,-0.028224,-91.563420,188.495716,1509.979459,-894.167887,0
0.073958,124.191490,27.039955,-192.168940,-0.691152,-2.253411,-4.005795,5.826730,2.709157,3.971304,-5.615736,-0.022503,0.341279,-0.017021,-129.237029,188.420320,1509.770081,-893.723879,0
0.075000,61.297324,91.793601,-202.078978,-0.917352,0.437700,-5.863092,4.968515,0.018508,5.884996,-4.758295,-0.026156,0.328149,-0.046895,-144.810898,188.495638,1509.257895,-893.892901,0
0.076042,10.641717,157.284181,-168.077084,-0.272682,2.752481,-6.148830,2.886411,-2.374405,6.317255,-2.883310,-0.069992,0.324164,-0.017021,-128.207819,188.495745,1508.819026,-893.340591,0
0.077083,-37.280347,207.468257,-98.780682,1.005348,4.950103,-5.751972,0.315497,-4.458555,5.813652,-0.389260,-0.084604,0.305547,-0.050629,-80.027220,188.495702,1507.944631,-892.590257,0
0.078125,-109.736241,187.788464,-44.232386,2.045868,6.256606,-4.299470,-2.214372,-5.877395,4.634381,2.026518,-0.157664,0.308356,-0.005818,-37.015291,188.420323,1508.565177,-892.084935,0
0.079167,-178.392396,137.628551,6.056439,3.007218,6.682639,-2.473921,-4.203192,-6.274376,2.712296,4.036702,-0.208806,0.315149,-0.024490,-1.592372,188.495714,1507.815056,-891.477315,0
0.080208,-197.289002,77.731429,62.722159,4.047738,5.827022,0.177093,-5.744248,-5.502468,0.127133,5.495419,-0.216112,0.322270,-0.046895,36.533638,188.495763,1507.272873,-890.726942,0
0.081250,-173.730628,25.034525,145.732576,5.642448,4.563123,2.490777,-6.602463,-4.256389,-2.197834,6.345744,-0.259948,0.327169,-0.031958,95.945066,188.495597,1506.900439,-889.869217,0
0.082292,-124.662971,-26.538854,192.291288,6.490698,2.432956,4.153614,-5.886040,-2.197969,-3.893298,5.836972,-0.219765,0.340822,-0.035692,134.353826,188.420311,1507.120285,-889.614447,0
0.083333,-62.143108,-91.280419,201.881251,6.694278,-0.204901,6.062502,-4.990511,0.503707,-5.832170,4.972416,-0.227071,0.327692,-0.043161,150.662845,188.495731,1507.090915,-889.116368,0
0.084375,-11.079171,-157.181750,168.285607,6.072228,-2.604889,6.376020,-2.964377,2.907648,-6.281217,3.033389,-0.183235,0.319461,-0.058098,129.954236,188.495702,1506.890179,-889.021271,0
0.085417,37.058401,-207.124207,99.124622,4.839438,-4.809612,5.931539,-0.397195,5.065313,-5.794400,0.557128,-0.143052,0.313843,-0.046895,83.967777,188.495705,1506.250965,-888.666004,0
0.086458,109.321472,-187.516900,44.367046,3.764988,-6.027357,4.506817,2.076703,6.436368,-4.526999,-1.815956,-0.088257,0.304763,-0.024490,42.765448,188.420405,1505.706542,-888.449717,0
0.087500,177.977627,-137.079126,-6.032576,2.814948,-6.432089,2.701112,4.076718,6.814970,-2.672061,-3.801235,-0.059033,0.311818,-0.043161,6.449038,188.495769,1504.815229,-887.748748,0
0.088542,196.896918,-76.783334,-62.304356,1.717878,-5.651028,0.030255,5.617773,6.061441,-0.078505,-5.334667,-0.022503,0.318938,-0.031958,-30.749551,188.496670,1504.271174,-887.154887,0
0.089583,173.361229,-24.666314,-145.597917,0.168408,-4.394229,-2.283429,6.472257,4.741847,2.212890,-6.163645,0.032292,0.326973,-0.043161,-91.167570,188.505631,1503.795305,-886.449353,0
0.090625,124.679217,26.568800,-192.070455,-0.713772,-2.221459,-4.021669,5.808073,2.712833,3.988091,-5.672662,-0.011544,0.338601,-0.020755,-128.309609,188.420667,1504.418576,-887.120427,0
0.091667,62.397547,91.684873,-201.734281,-0.883422,0.387996,-5.894841,4.942396,0.062617,5.884996,-4.793874,-0.048074,0.327235,-0.031958,-144.618628,188.495774,1504.899775,-887.014111,0
0.092708,11.435692,157.404990,-168.150947,-0.295302,2.805735,-6.204390,2.815515,-2.378081,6.338239,-2.865521,-0.051727,0.326581,-0.024490,-125.776169,188.495703,1504.846187,-887.597345,0
0.093750,-37.144237,207.359529,-99.186932,0.971418,5.014008,-5.704349,0.315497,-4.495313,5.855619,-0.335892,-0.117481,0.311687,-0.031958,-79.224210,188.495797,1504.990479,-888.727607,0
0.094792,-109.600130,187.546846,-44.478599,2.045868,6.260156,-4.307407,-2.229297,-5.925180,4.579824,2.047866,-0.175929,0.301954,-0.043161,-36.834331,188.420383,1504.514713,-889.565441,0
0.095833,-178.437766,137.374852,6.204167,2.973288,6.725242,-2.422330,-4.195729,-6.270700,2.691313,4.075838,-0.223418,0.312079,-0.039427,-1.004252,188.495870,1504.335150,-890.013546,0
0.096875,-197.107522,76.571662,62.426705,4.104288,5.795069,0.185030,-5.803950,-5.520847,0.089363,5.570134,-0.267254,0.320506,-0.020755,36.115168,188.495725,1504.534465,-890.745056,0
0.097917,-173.605861,24.273428,145.597160,5.653758,4.595075,2.478871,-6.595000,-4.212280,-2.218818,6.402670,-0.263601,0.330501,-0.043161,95.786726,188.495709,1504.551065,-891.266121,0
0.098961,-124.334039,-26.587178,192.045076,6.547248,2.418755,4.213142,-5.934548,-2.164887,-3.964642,5.819183,-0.267254,0.334812,-0.039427,133.087106,188.278783,1504.136994,-892.082122,0
0.100001,-62.687548,-91.546198,201.967425,6.694278,-0.272356,6.070440,-5.016631,0.555168,-5.878334,4.990205,-0.219765,0.327431,-0.050629,149.396125,188.501462,1504.515446,-893.219227,0
0.101042,-11.941201,-157.109264,168.174811,6.049608,-2.622640,6.415706,-2.923332,2.911324,-6.327380,3.061852,-0.212459,0.322401,-0.046895,129.841136,188.420403,1505.069754,-893.667477,0
0.102083,36.854236,-207.172531,99.457008,4.748958,-4.795411,5.935508,-0.363612,5.061637,-5.848957,0.557128,-0.135746,0.315868,-0.035692,84.307077,188.495631,1505.644428,-893.917891,0
0.103125,109.344157,-187.190715,44.871780,3.742368,-6.069960,4.526660,2.128943,6.447395,-4.526999,-1.851535,-0.066339,0.305220,-0.005818,43.014268,188.420265,1505.457412,-894.506448,0
0.104167,177.864202,-137.381148,-6.020265,2.781018,-6.460491,2.633646,4.102837,6.833349,-2.625897,-3.843929,-0.015197,0.311230,-0.039427,5.759128,188.495848,1505.258549,-895.519714,0
0.105208,196.749465,-76.348421,-62.045834,1.695258,-5.583572,0.010412,5.625236,6.065117,-0.044931,-5.316877,-0.018850,0.316717,-0.046895,-30.806101,188.495801,1504.852649,-895.517417,0
0.106250,173.100352,-23.542790,-145.154735,0.123168,-4.369377,-2.287398,6.453600,4.752874,2.250660,-6.149413,-0.011544,0.317240,-0.024490,-91.190190,188.495754,1504.685876,-895.322941,0
0.107292,123.930612,26.834580,-192.132008,-0.702462,-2.246311,-3.966109,5.781954,2.712833,3.979697,-5.647757,-0.007891,0.337687,-0.043161,-129.157859,188.495814,1504.370118,-894.785967,0
0.108333,62.227410,91.201636,-201.943561,-0.872112,0.412848,-5.835312,4.901350,0.011157,5.847226,-4.761853,-0.022503,0.320114,-0.046895,-144.596008,188.495758,1503.376035,-895.053448,0
0.109382,11.378980,157.682851,-167.535417,-0.272682,2.827037,-6.196453,2.822977,-2.396460,6.287878,-2.815711,-0.059033,0.322597,-0.024490,-127.676249,188.495736,1502.358459,-894.992253,0
0.110417,-36.872017,206.840050,-99.728599,0.982728,4.971405,-5.644820,0.229675,-4.465907,5.809455,-0.364355,-0.106522,0.309532,-0.031958,-80.445690,188.495817,1501.687182,-894.553179,0
