1-Time,2-VGERA,3-VGERB,4-VGERC,5-VN,6-IGERAN,7-IGERBN,8-IGERCN,9-IGERAT,10-IGERBT,11-IGERCT,12-IN,13-IFD,14-IFAULT,15-VFAULT,16-Speed (rad/s),17-FAULT 
0.000000,-108.318428,-91.454365,175.029380,6.377598,5.056612,-1.116357,-4.058405,-4.976836,1.238577,3.906640,-0.183235,0.558224,-0.058098,3.089968,188.571093,0
0.001042,-29.011664,-143.192041,175.242107,6.411528,4.257799,0.575213,-4.834157,-4.219632,-0.429357,4.690860,-0.234377,0.562797,-0.009553,0.398188,188.571138,0
0.002083,48.071969,-170.114576,146.559380,5.846028,2.834137,2.445844,-5.186772,-2.855928,-2.298732,5.162915,-0.256295,0.567108,-0.058098,-1.196522,188.721849,0
0.003125,113.461484,-174.459594,79.195745,4.488828,0.863733,4.087886,-4.720537,-0.896754,-3.914291,4.660405,-0.230724,0.561555,-0.039427,-1.965602,188.721867,0
0.004167,152.060013,-171.582647,-2.680618,2.871498,-1.071169,5.097493,-3.748888,1.099179,-5.002073,3.735330,-0.219765,0.564626,-0.020755,-2.474551,188.571067,0
0.005208,169.731629,-129.600542,-72.809708,1.480368,-2.935065,5.051775,-1.746822,2.929702,-5.018189,1.843302,-0.179582,0.556917,-0.013287,-2.689441,188.571256,0
0.006250,189.773828,-47.021528,-124.585162,0.451158,-4.454584,4.564116,0.184722,4.491896,-4.554874,-0.143897,-0.150358,0.560249,-0.061832,-2.757301,188.721931,0
0.007292,157.459044,23.031522,-164.317889,-0.351852,-4.823813,3.325918,1.849846,4.866823,-3.438889,-1.678076,-0.106522,0.566912,-0.024490,-0.156002,188.721922,0
0.008333,108.119167,92.232144,-174.847889,-0.566742,-4.940972,1.283843,3.949861,5.028556,-1.323756,-3.809938,-0.044421,0.529285,-0.050629,1.992898,188.571161,0
0.009375,27.791578,143.697517,-175.675162,-0.578052,-4.088905,-0.415346,4.737367,4.201512,0.348206,-4.643648,-0.000585,0.560575,-0.031958,4.311448,188.646540,0
0.010417,-49.598303,169.755784,-146.555162,-0.001242,-2.722048,-2.263119,5.101735,2.878242,2.209524,-5.054793,-0.040768,0.538234,-0.024490,5.668648,188.721911,0
0.011458,-113.966993,175.308409,-77.430617,1.378578,-0.716141,-3.931829,4.619829,0.845552,3.845227,-4.548476,-0.018850,0.558812,-0.046895,6.980608,188.721896,0
0.012500,-151.953027,171.768462,4.103018,2.939358,1.208110,-4.926197,3.679523,-1.150380,4.981355,-3.691924,-0.059033,0.559857,-0.031958,7.274668,188.571075,0
0.013542,-170.339221,129.064161,73.333927,4.307868,3.079107,-4.880479,1.630441,-2.922092,4.924952,-1.738987,-0.080951,0.558093,-0.024490,7.591348,188.646531,0
0.014583,-190.018459,46.686414,124.553926,5.337078,4.538271,-4.366151,-0.277595,-4.462231,4.409262,0.255827,-0.124787,0.544244,-0.039427,7.941958,188.721797,0
0.015625,-157.578908,-22.857547,164.641198,6.140088,4.953654,-3.135572,-1.934883,-4.833482,3.313422,1.736709,-0.183235,0.560641,-0.009553,4.933498,188.646495,0
0.016667,-108.454538,-91.987133,174.544835,6.366288,5.017559,-1.085878,-4.003554,-4.980512,1.242606,3.872378,-0.219765,0.561882,-0.031958,2.920318,188.571053,0
0.017708,-28.773472,-143.795845,175.277562,6.388908,4.225846,0.586642,-4.802814,-4.186550,-0.421299,4.671826,-0.179582,0.564560,-0.031958,0.522598,188.646500,0
0.018750,48.389559,-169.629165,146.252108,5.846028,2.866090,2.396316,-5.124085,-2.892686,-2.206069,5.109619,-0.216112,0.562927,-0.039427,-1.117352,188.721842,0
0.019792,113.631622,-174.838451,78.238472,4.443588,0.853082,4.072646,-4.700947,-0.871023,-3.865945,4.648985,-0.227071,0.559204,-0.031958,-1.988222,188.721954,0
0.020833,152.060013,-171.144594,-3.283345,2.837568,-1.028565,5.044156,-3.721463,1.073449,-5.002073,3.742943,-0.197847,0.562405,-0.013287,-2.384071,188.571042,0
0.021875,169.958479,-128.807310,-73.211527,1.457748,-2.903112,4.990818,-1.731150,2.892945,-4.957756,1.835688,-0.157664,0.554631,-0.046895,-2.621581,188.646484,0
0.022917,189.388183,-46.157260,-124.573344,0.473778,-4.372927,4.522208,0.153379,4.444111,-4.579047,-0.166739,-0.099216,0.544244,-0.017021,-2.576341,188.721947,0
0.023958,157.130111,23.954987,-164.164253,-0.340542,-4.813162,3.348777,1.810667,4.855795,-3.438889,-1.643814,-0.095563,0.554435,-0.013287,-0.189932,188.646518,0
0.025001,107.291164,92.930662,-174.670617,-0.544122,-4.891268,1.302892,3.887174,4.984447,-1.368073,-3.752835,-0.066339,0.522230,-0.043161,1.947658,188.571125,0
0.026043,26.736725,144.064535,-175.415162,-0.589362,-4.067603,-0.411536,4.717777,4.172106,0.324033,-4.590352,-0.044421,0.546857,-0.017021,4.515028,188.646466,0
0.027083,-50.165428,169.862337,-145.964253,0.032688,-2.764651,-2.228830,5.089981,2.878242,2.157149,-5.031952,-0.026156,0.557179,-0.039427,5.860918,188.721869,0
0.028125,-114.409351,174.894034,-77.466072,1.389888,-0.751644,-3.886111,4.670762,0.871282,3.772708,-4.597966,-0.048074,0.558877,-0.013287,7.025848,188.646489,0
0.029167,-152.395385,171.413284,3.949382,2.961978,1.154856,-4.899528,3.714785,-1.154056,4.928981,-3.672890,-0.044421,0.561098,-0.035692,7.353838,188.571170,0
0.030208,-170.067001,129.194393,73.558472,4.296558,2.993900,-4.865240,1.677457,-2.844901,4.884664,-1.788476,-0.095563,0.552345,-0.054364,7.500868,188.721875,0
0.031250,-190.007117,46.686414,125.133017,5.371008,4.456615,-4.350911,-0.187482,-4.443852,4.465666,0.164461,-0.150358,0.559596,-0.013287,7.840168,188.721833,0
0.032292,-157.363400,-22.727315,164.440289,6.162708,4.879098,-3.162241,-1.868278,-4.818779,3.329537,1.729095,-0.139399,0.565018,-0.039427,4.956118,188.646440,0
0.033333,-108.091578,-92.046329,174.674835,6.354978,5.031760,-1.143026,-3.952621,-4.965809,1.258721,3.872378,-0.168623,0.560314,-0.043161,3.033418,188.571140,0
0.034375,-28.852869,-143.831363,174.710289,6.377598,4.215196,0.540924,-4.755799,-4.234335,-0.368925,4.664212,-0.230724,0.562470,-0.020755,0.375568,188.721902,0
0.035417,48.571039,-169.889630,145.779380,5.800788,2.887392,2.369648,-5.139757,-2.911065,-2.222184,5.063936,-0.238030,0.564952,-0.024490,-1.219142,188.721992,0
0.036458,114.323514,-174.258326,77.919381,4.443588,0.870834,4.004069,-4.728373,-0.962917,-3.869974,4.671826,-0.201500,0.556917,-0.046895,-1.942982,188.571138,0
0.037500,152.309548,-170.884130,-3.956982,2.837568,-1.039216,5.013677,-3.737134,1.062421,-4.945670,3.739136,-0.197847,0.558158,-0.020755,-2.474551,188.571149,0
0.038542,169.561492,-128.440292,-73.991527,1.446438,-2.867609,4.987008,-1.742904,2.808403,-4.969843,1.866144,-0.172276,0.552214,-0.031958,-2.678131,188.721824,0
0.039583,189.422210,-45.375867,-124.998799,0.451158,-4.348075,4.556496,0.125953,4.411030,-4.534730,-0.121056,-0.124787,0.546531,-0.028224,-2.712061,188.721905,0
0.040625,156.619699,24.606147,-164.258798,-0.340542,-4.774109,3.356396,1.806749,4.819038,-3.414716,-1.632394,-0.077298,0.537646,-0.009553,-0.110762,188.571051,0
0.041667,106.894176,93.427912,-174.446071,-0.566742,-4.880617,1.287653,3.910682,4.958716,-1.331814,-3.749028,-0.077298,0.537254,-0.013287,2.026828,188.571201,0
0.042708,26.600615,144.313160,-175.084253,-0.578052,-4.099556,-0.339149,4.702105,4.175782,0.295832,-4.578931,-0.026156,0.556395,-0.024490,4.311448,188.721938,0
0.043750,-50.210798,169.578194,-145.810617,0.021378,-2.736249,-2.225020,5.074310,2.863539,2.141034,-4.986269,-0.015197,0.561359,-0.020755,5.691268,188.721931,0
0.044792,-114.715598,174.870355,-77.170617,1.389888,-0.748093,-3.863252,4.643336,0.926419,3.780765,-4.567510,-0.037115,0.560053,-0.005818,6.991918,188.571087,0
0.045833,-152.474782,170.916034,4.079382,3.029838,1.172607,-4.884289,3.714785,-1.073190,4.856462,-3.710959,-0.033462,0.559988,-0.035692,7.263358,188.495756,0
0.046875,-170.577413,128.531393,73.641199,4.319178,2.972598,-4.830951,1.673539,-2.863280,4.900779,-1.780863,-0.102869,0.558812,-0.061832,7.534798,188.721911,0
0.047917,-189.757582,46.615379,125.333926,5.393628,4.453064,-4.350911,-0.140467,-4.436501,4.473723,0.168268,-0.121134,0.560641,-0.017021,7.930648,188.721907,0
0.048958,-157.068495,-22.904904,164.901198,6.185328,4.957204,-3.127953,-1.883950,-4.837158,3.389969,1.675799,-0.164970,0.569917,-0.017021,4.922188,188.571105,0
0.050000,-108.216345,-92.555419,174.225744,6.343668,4.978505,-1.116357,-3.944785,-4.951106,1.282894,3.800047,-0.194194,0.561359,-0.002084,2.897698,188.495749,0
0.051042,-28.240374,-144.387809,174.733926,6.400218,4.204545,0.537114,-4.732291,-4.193901,-0.372953,4.641371,-0.227071,0.560249,-0.035692,0.466048,188.721751,0
0.052083,49.535151,-169.345022,145.649380,5.823408,2.890942,2.384887,-5.104495,-2.903713,-2.222184,5.075357,-0.216112,0.561817,-0.009553,-1.173902,188.721925,0
0.053125,114.607077,-174.814772,76.855745,4.432278,0.909887,4.015499,-4.697029,-0.915132,-3.853858,4.641371,-0.194194,0.557113,-0.054364,-1.999532,188.571087,0
0.054167,152.354918,-170.469755,-4.855164,2.837568,-0.968211,5.028916,-3.780232,1.029340,-4.973872,3.727716,-0.234377,0.558158,-0.013287,-2.384071,188.495707,0
0.055208,169.913109,-127.800971,-74.369708,1.480368,-2.860509,5.009867,-1.801673,2.812078,-4.965814,1.881371,-0.143052,0.556395,-0.017021,-2.621581,188.721905,0
0.056250,189.206703,-44.606314,-125.365162,0.462468,-4.312573,4.579355,0.067184,4.385299,-4.538759,-0.044918,-0.117481,0.576580,-0.035692,-2.565031,188.646536,0
0.057292,156.506274,24.996844,-164.436071,-0.306612,-4.784760,3.417354,1.771487,4.826389,-3.491264,-1.582904,-0.077298,0.559204,-0.013287,-0.189932,188.571093,0
0.058333,106.701354,93.700216,-174.339707,-0.555432,-4.905469,1.360040,3.840159,4.955041,-1.392246,-3.741414,-0.073645,0.569133,-0.039427,1.958968,188.495667,0
0.059375,26.702698,144.502588,-174.930617,-0.578052,-4.131508,-0.350579,4.713859,4.197836,0.247486,-4.571317,-0.015197,0.567631,0.005384,4.548958,188.721933,0
0.060417,-50.290195,169.613712,-145.491526,-0.035172,-2.817906,-2.186922,5.086063,2.903972,2.124918,-5.024338,-0.029809,0.565997,-0.035692,5.860918,188.646426,0
0.061458,-115.112586,174.550694,-77.206072,1.401198,-0.787146,-3.821344,4.709941,0.970528,3.772708,-4.655069,-0.044421,0.563515,-0.039427,7.037158,188.571248,0
0.062500,-152.951167,170.679248,4.103018,2.961978,1.126454,-4.880479,3.714785,-1.051135,4.916894,-3.737607,-0.051727,0.564430,-0.031958,7.365148,188.495848,0
0.063542,-170.429961,128.661625,74.043017,4.364418,3.018752,-4.861430,1.720554,-2.841225,4.941067,-1.868421,-0.077298,0.559008,-0.035692,7.512178,188.722029,0
0.064583,-189.836979,46.390432,125.794835,5.371008,4.431763,-4.392820,-0.167892,-4.436501,4.538185,0.107358,-0.102869,0.566651,-0.002084,7.862788,188.646609,0
0.065625,-157.011783,-23.177208,164.723926,6.174018,4.914600,-3.173671,-1.829098,-4.837158,3.422200,1.656764,-0.164970,0.575274,-0.035692,4.933498,188.571198,0
0.066667,-107.739960,-93.040829,174.438471,6.377598,5.028209,-1.158265,-3.913442,-4.984188,1.294980,3.849536,-0.219765,0.564299,-0.024490,2.988178,188.495709,0
0.067708,-27.673249,-144.600916,174.639380,6.400218,4.254249,0.502826,-4.740127,-4.226983,-0.316550,4.645178,-0.241683,0.559596,-0.028224,0.330328,188.722032,0
0.068750,50.363154,-169.581808,145.330290,5.800788,2.908693,2.358218,-5.178936,-2.984580,-2.234271,5.132460,-0.241683,0.574555,-0.009553,-1.264382,188.571199,0
0.069792,115.401052,-174.577987,76.430290,4.454898,0.895686,4.065027,-4.759716,-0.962917,-3.861916,4.736543,-0.208806,0.558942,-0.017021,-1.942982,188.571156,0
0.070833,152.445658,-170.611826,-5.540618,2.826258,-0.982412,5.047966,-3.827247,1.058746,-4.994016,3.792433,-0.197847,0.559204,-0.028224,-2.451931,188.495613,0
0.071875,169.822369,-127.362917,-75.102436,1.457748,-2.906662,5.028916,-1.797755,2.823106,-5.026246,1.915633,-0.183235,0.555872,-0.024490,-2.700751,188.721862,0
0.072917,189.308785,-44.464242,-125.731526,0.462468,-4.372927,4.594594,0.086774,4.429408,-4.651566,-0.094408,-0.124787,0.554566,-0.024490,-2.700751,188.571207,0
0.073958,156.109286,25.079719,-164.861526,-0.283992,-4.802511,3.383065,1.787159,4.844768,-3.467091,-1.609552,-0.132093,0.556068,-0.005818,-0.110762,188.571181,0
0.075000,106.792094,94.185626,-174.186071,-0.578052,-4.994226,1.340991,3.934189,5.035907,-1.404333,-3.821359,-0.037115,0.567173,-0.024490,2.038138,188.495662,0
0.076042,26.611958,145.106392,-174.682435,-0.578052,-4.195413,-0.354389,4.729531,4.249297,0.247486,-4.601772,-0.026156,0.572922,-0.024490,4.300138,188.721976,0
0.077083,-50.743895,169.365087,-145.692435,0.010068,-2.807255,-2.175492,5.097817,2.903972,2.145062,-5.115703,-0.004238,0.566651,-0.028224,5.691268,188.495669,0
0.078125,-115.430176,175.095301,-76.496981,1.423818,-0.776496,-3.889921,4.690352,0.922743,3.817025,-4.674103,-0.033462,0.563450,-0.039427,7.037158,188.571111,0
0.079167,-153.019222,170.430623,4.457564,2.961978,1.179708,-4.937627,3.734374,-1.073190,4.953154,-3.726186,-0.048074,0.567500,-0.020755,7.263358,188.495703,0
0.080208,-171.257963,127.714482,74.102108,4.341798,3.036503,-4.865240,1.708800,-2.911065,4.916894,-1.807511,-0.066339,0.558746,-0.028224,7.568728,188.721523,0
0.081250,-189.712211,45.893182,125.806653,5.359698,4.502768,-4.408059,-0.207072,-4.476934,4.546242,0.126392,-0.106522,0.562731,-0.017021,7.908028,188.496152,0
0.082292,-156.433315,-24.230904,165.125744,6.140088,4.953654,-3.162241,-1.927047,-4.881267,3.373854,1.740516,-0.179582,0.562274,-0.024490,4.888258,188.571567,0
0.083333,-107.411028,-94.118204,173.906653,6.343668,5.045961,-1.135406,-3.944785,-4.998891,1.266779,3.841923,-0.201500,0.566389,-0.035692,2.818528,188.496130,0
0.084375,-26.153354,-145.275756,174.899380,6.377598,4.275550,0.552354,-4.834157,-4.230659,-0.389069,4.687053,-0.219765,0.540651,-0.028224,0.420808,188.722400,0
0.085417,51.780967,-168.930647,145.460290,5.800788,2.876741,2.369648,-5.155428,-2.947822,-2.222184,5.075357,-0.230724,0.574294,-0.028224,-1.230452,188.496130,0
0.086458,115.593874,-175.560647,75.106654,4.432278,0.853082,4.099315,-4.759716,-0.900429,-3.898175,4.698474,-0.216112,0.561947,-0.013287,-2.010842,188.571476,0
0.087500,152.513713,-169.972505,-5.989709,2.837568,-1.046317,5.097493,-3.784150,1.044043,-5.014160,3.788626,-0.208806,0.558812,-0.050629,-2.372762,188.496234,0
0.088542,170.707084,-126.747274,-74.866072,1.457748,-2.913763,5.025106,-1.715478,2.881918,-4.977901,1.843302,-0.161317,0.558681,-0.024490,-2.666821,188.646974,0
0.089583,189.036565,-43.966992,-126.026981,0.428538,-4.305472,4.545067,0.141625,4.381624,-4.530701,-0.136284,-0.095563,0.557636,-0.031958,-2.508481,188.496165,0
0.090625,155.791696,25.103397,-165.003344,-0.351852,-4.838014,3.344967,1.783241,4.855795,-3.438889,-1.636201,-0.099216,0.564952,-0.013287,-0.156002,188.571581,0
0.091667,106.621956,94.351376,-173.926071,-0.510192,-4.880617,1.325751,3.859749,4.977095,-1.376131,-3.756642,-0.066339,0.560184,-0.024490,1.981588,188.496105,0
0.092708,26.623300,145.331338,-174.741526,-0.555432,-4.135059,-0.358198,4.694269,4.212539,0.235399,-4.597966,-0.037115,0.565540,-0.028224,4.458478,188.646882,0
0.093750,-50.970745,169.151980,-145.349708,0.055308,-2.775302,-2.205971,5.054720,2.878242,2.108803,-5.020531,-0.048074,0.565410,-0.031958,5.917468,188.496082,0
0.094792,-115.498231,175.118980,-75.752436,1.412508,-0.758744,-3.886111,4.576731,0.889661,3.829111,-4.590352,-0.018850,0.562143,-0.046895,7.082398,188.571569,0
0.095833,-153.268757,169.945212,5.178473,2.939358,1.137104,-4.876669,3.675605,-1.051135,4.900779,-3.695731,-0.048074,0.561686,-0.009553,7.319908,188.496016,0
0.096875,-171.167223,127.063321,74.752108,4.341798,3.057805,-4.830951,1.677457,-2.863280,4.880635,-1.780863,-0.084604,0.554958,-0.039427,7.500868,188.722427,0
0.097917,-189.746239,44.531664,126.125744,5.393628,4.485017,-4.362341,-0.191400,-4.392392,4.477752,0.168268,-0.139399,0.562470,0.016587,7.817548,188.496038,0
0.098958,-156.127068,-25.249082,165.078471,6.196638,4.886198,-3.154621,-1.887867,-4.826130,3.337595,1.713868,-0.179582,0.562601,-0.050629,4.910878,188.496069,0
0.100000,-106.435573,-94.733847,174.013017,6.400218,4.989156,-1.123976,-3.936949,-4.929051,1.258721,3.834309,-0.190541,0.555872,-0.005818,2.931628,188.496228,0
0.101042,-25.472804,-145.311274,174.627562,6.411528,4.229397,0.529494,-4.771470,-4.131414,-0.352809,4.633757,-0.186888,0.552802,-0.009553,0.330328,188.722386,0
0.102083,52.631654,-168.942487,144.963926,5.823408,2.841238,2.384887,-5.131921,-2.833874,-2.230242,5.041095,-0.248989,0.560706,-0.020755,-1.275692,188.496208,0
0.103125,115.877437,-175.300183,74.681199,4.387038,0.860183,4.084076,-4.697029,-0.882051,-3.926377,4.679440,-0.256295,0.554958,-0.035692,-1.931672,188.496132,0
0.104167,152.842646,-169.641005,-6.060618,2.837568,-1.028565,5.051775,-3.776314,1.069773,-4.981929,3.739136,-0.208806,0.560641,-0.031958,-2.406691,188.496235,0
0.105208,170.865879,-126.155310,-75.220617,1.457748,-2.952816,4.964149,-1.684135,2.926027,-4.945670,1.812847,-0.157664,0.551757,-0.039427,-2.689441,188.571494,0
0.106250,188.957168,-43.742046,-126.476072,0.439848,-4.309022,4.541257,0.153379,4.440436,-4.510557,-0.105828,-0.161317,0.555219,-0.024490,-2.712061,188.496217,0
0.107292,155.417394,25.209951,-165.617889,-0.363162,-4.816712,3.314488,1.853764,4.800659,-3.398601,-1.712338,-0.106522,0.564038,-0.031958,-0.099452,188.496147,0
0.108333,106.644641,94.872305,-173.772435,-0.532812,-4.873517,1.268604,3.891092,4.966068,-1.335843,-3.764255,-0.048074,0.559988,-0.046895,2.038138,188.496183,0
0.109375,26.226313,145.911463,-174.528798,-0.578052,-4.071154,-0.365818,4.706023,4.190485,0.287774,-4.601772,-0.015197,0.561294,-0.043161,4.277518,188.571482,0
0.110417,-51.810090,168.642891,-145.314253,0.021378,-2.722048,-2.205971,5.031212,2.819430,2.177293,-4.986269,-0.007891,0.563058,-0.035692,5.747818,188.496067,0
0.111458,-115.815821,175.912212,-74.346072,1.412508,-0.677088,-3.897540,4.561060,0.852904,3.829111,-4.586545,-0.048074,0.555219,-0.002084,7.025848,188.496145,0
0.112500,-153.246072,169.601873,6.041200,2.950668,1.190359,-4.876669,3.609000,-1.102596,4.848404,-3.608173,-0.077298,0.558681,-0.024490,7.229428,188.496036,0
0.113542,-172.029253,125.678125,75.094836,4.319178,3.036503,-4.785233,1.559919,-2.918416,4.868548,-1.697111,-0.091910,0.555219,-0.013287,7.625278,188.496074,0
0.114583,-189.451334,43.324057,126.397562,5.382318,4.499218,-4.331862,-0.269759,-4.447528,4.429406,0.210144,-0.150358,0.555480,-0.020755,7.885408,188.496092,0
0.115625,-155.582628,-26.302779,165.468471,6.162708,4.903950,-3.097474,-1.993652,-4.800400,3.248961,1.778585,-0.164970,0.532159,-0.058098,4.854328,188.496118,0
0.116667,-105.857105,-95.775704,173.351198,6.332358,4.967855,-1.059209,-3.983965,-4.932727,1.214404,3.860957,-0.190541,0.545028,-0.020755,2.784598,188.496087,0
0.117708,-24.338554,-145.926916,174.875744,6.411528,4.154841,0.636170,-4.806732,-4.109359,-0.461587,4.656598,-0.248989,0.552802,0.001650,0.477358,188.496170,0
0.118750,53.493684,-168.208451,144.904835,5.823408,2.777333,2.411556,-5.088823,-2.815495,-2.282616,5.041095,-0.245336,0.560771,-0.069301,-1.241762,188.496273,0
0.119792,115.854752,-176.448594,73.534836,4.420968,0.785627,4.141223,-4.704865,-0.801184,-3.930406,4.622336,-0.234377,0.558877,-0.017021,-2.022152,188.496156,0
0.120833,152.933386,-169.108237,-6.143345,2.848878,-1.088920,5.074634,-3.690119,1.117558,-4.989987,3.704874,-0.175929,0.559465,-0.017021,-2.304902,188.496187,0
0.121875,171.909389,-125.231846,-75.031527,1.446438,-2.945716,4.956529,-1.664545,2.948081,-4.901353,1.717675,-0.164970,0.550450,-0.035692,-2.723371,188.496192,0
0.122917,188.855085,-43.434225,-126.676981,0.439848,-4.333874,4.503158,0.165132,4.418381,-4.454153,-0.109635,-0.110175,0.557962,-0.054364,-2.497171,188.496015,0
0.123958,155.621559,25.375701,-165.866071,-0.317922,-4.781209,3.272580,1.889025,4.848444,-3.354284,-1.727566,-0.073645,0.565801,-0.017021,-0.156002,188.496063,0
0.125000,106.429134,95.298519,-173.382435,-0.510192,-4.862866,1.245745,3.895010,4.921959,-1.259295,-3.790904,-0.037115,0.559922,-0.031958,1.992898,188.496158,0
0.126042,25.715900,146.183767,-174.729707,-0.578052,-4.060503,-0.419156,4.702105,4.102267,0.324033,-4.590352,-0.059033,0.557636,-0.020755,4.435858,188.420830,0
0.127083,-52.467955,168.524498,-145.066071,0.043998,-2.668794,-2.232640,4.992033,2.812078,2.173264,-4.963428,-0.007891,0.560706,-0.024490,5.996638,188.496105,0
0.128125,-115.985958,176.267391,-73.306072,1.435128,-0.630934,-3.916590,4.553224,0.794092,3.821054,-4.567510,-0.011544,0.553912,-0.043161,7.116328,188.496263,0
