1-Time,2-VGERA,3-VGERB,4-VGERC,5-VN,6-IGERAN,7-IGERBN,8-IGERCN,9-IGERAT,10-IGERBT,11-IGERCT,12-IN,13-IFD,14-IFAULT,15-VFAULT,16-Speed (rad/s),17-Active Power,18-Reactive Power,19-FAULT 
0.000000,-118.197746,-82.678815,178.564963,6.287118,4.847145,-1.684173,-3.210648,-4.785697,1.826794,2.980021,-0.175929,0.550646,-0.039427,14.185078,188.495826,941.254853,1040.763264,0
0.001042,-40.410877,-131.328615,181.605682,6.422838,4.385609,0.339804,-4.524090,-4.418122,-0.200209,4.339119,-0.194194,0.541827,-0.046895,-14.372671,188.497155,941.264998,1041.047881,0
0.002083,30.491093,-173.080220,149.622728,5.755548,3.210467,2.339971,-5.177080,-3.289667,-2.160064,4.958184,-0.234377,0.544636,-0.043161,-39.232051,188.497844,940.641805,1041.106313,0
0.003134,104.069894,-175.822585,95.751515,4.692408,1.435328,3.971059,-4.874839,-1.488549,-3.884905,4.769618,-0.201500,0.557440,-0.005818,-56.920890,188.570694,940.537823,1042.216117,0
0.004168,148.305646,-177.888419,9.220265,3.086388,-0.300758,4.919550,-4.039012,0.235378,-4.829161,3.887272,-0.234377,0.557309,-0.054364,-65.041470,188.495320,940.314644,1042.561358,0
0.005208,164.582134,-144.702176,-68.496591,1.638708,-2.086548,5.106074,-2.415866,2.021792,-5.101946,2.449902,-0.168623,0.549928,-0.028224,-60.381750,188.495436,939.928856,1043.032410,0
0.006250,180.972047,-64.013818,-125.420834,0.552948,-3.854587,4.796524,-0.438240,3.804531,-4.803981,0.503760,-0.132093,0.555480,-0.020755,-53.957670,188.646192,940.087632,1042.122572,0
0.007291,168.155022,14.246278,-163.756061,-0.204822,-4.465235,3.828190,0.957292,4.536005,-3.926872,-0.915821,-0.080951,0.527978,-0.005818,-37.942711,188.646201,940.917890,1041.980937,0
0.008333,116.138314,84.653787,-178.528788,-0.476262,-4.756357,1.788338,3.136412,4.782280,-1.887279,-2.965141,-0.062686,0.526280,-0.024490,-7.677151,188.646140,941.680305,1041.327583,0
0.009376,37.228538,132.240467,-181.384849,-0.532812,-4.255768,-0.215797,4.423735,4.337515,0.148117,-4.281544,0.003068,0.551561,-0.031958,19.014448,188.646156,942.183189,1040.124184,0
0.010417,-33.242417,173.327622,-149.364963,0.066618,-3.123229,-2.200089,5.125233,3.260520,2.086989,-4.897051,0.021333,0.519551,-0.005818,44.213127,188.646172,942.261583,1040.315247,0
0.011458,-104.325868,176.420333,-95.764584,1.118448,-1.380043,-3.851020,4.778215,1.407942,3.795043,-4.662233,-0.004238,0.553978,-0.039427,62.048997,188.646897,941.963489,1039.691771,0
0.012500,-148.641017,177.990851,-8.260795,2.758398,0.348943,-4.783637,3.946120,-0.363770,4.709922,-3.840371,-0.033462,0.553651,-0.035692,68.484387,188.646386,942.022202,1039.118047,0
0.013552,-164.441120,142.895825,69.936174,4.240008,2.219939,-5.005878,2.278197,-2.128130,5.003690,-2.306939,-0.059033,0.552541,-0.043161,64.899117,188.646629,940.933678,1038.298798,0
0.014583,-181.863201,64.176654,125.198485,5.303148,3.952475,-4.676485,0.285646,-3.885138,4.688938,-0.360797,-0.088257,0.552671,-0.046895,59.119707,188.646397,941.498948,1037.748766,0
0.015625,-167.787158,-12.887432,164.309281,6.083538,4.577324,-3.700214,-1.132275,-4.565152,3.845403,1.019648,-0.157664,0.557048,-0.039427,42.946408,188.646476,942.367108,1037.600588,0
0.016667,-116.893358,-83.198294,179.205114,6.298428,4.882648,-1.632582,-3.289007,-4.855536,1.801614,3.068968,-0.186888,0.550842,-0.031958,14.931538,188.700848,943.676241,1038.242445,0
0.017708,-39.390052,-131.932661,180.817804,6.354978,4.343006,0.371553,-4.520359,-4.388716,-0.237979,4.367582,-0.205153,0.552606,-0.005818,-13.976821,188.634649,943.755568,1037.927998,0
0.018750,31.012848,-173.490970,149.881250,5.789478,3.160763,2.383625,-5.177080,-3.256585,-2.227211,4.979531,-0.241683,0.559792,-0.035692,-38.146291,188.646987,944.772257,1037.686503,0
0.019792,103.843044,-175.484319,96.514773,4.737648,1.410476,3.967090,-4.844988,-1.448116,-3.893298,4.723366,-0.216112,0.559661,-0.024490,-56.411940,188.592989,945.034731,1036.599136,0
0.020833,148.793373,-178.033390,9.171023,3.075078,-0.354012,4.931456,-3.953190,0.327271,-4.854341,3.883714,-0.197847,0.560641,-0.043161,-64.962300,188.654764,946.202274,1036.226938,0
0.021875,164.321256,-143.844432,-68.693561,1.638708,-2.136252,5.090199,-2.374821,2.073253,-5.097749,2.357398,-0.183235,0.551691,-0.054364,-60.302580,188.660218,946.742656,1034.998352,0
0.022917,182.197037,-63.204398,-125.310038,0.541638,-3.904291,4.784618,-0.371075,3.852316,-4.774604,0.432603,-0.110175,0.549144,-0.054364,-54.410070,188.646580,947.760319,1034.438015,0
0.023966,166.204112,15.430207,-164.814773,-0.238752,-4.461684,3.776598,1.065502,4.532329,-3.838741,-0.944284,-0.091910,0.538365,-0.020755,-35.906911,188.721945,947.311812,1033.633330,0
0.025000,115.571189,84.412168,-179.255114,-0.498882,-4.745707,1.740715,3.188652,4.752874,-1.815935,-2.965141,-0.059033,0.541174,-0.035692,-6.896761,188.646654,947.448972,1032.708865,0
0.026041,37.137798,132.578733,-180.806251,-0.544122,-4.255768,-0.307075,4.408810,4.319136,0.164904,-4.253081,-0.048074,0.526215,-0.013287,19.704358,188.646551,947.047045,1032.297459,0
0.027083,-33.650747,173.460512,-149.500379,0.077928,-3.077076,-2.219932,5.069262,3.164950,2.154136,-4.907725,-0.011544,0.533270,-0.058098,43.591077,188.623925,948.030684,1031.149061,0
0.028125,-104.949705,176.033744,-94.890531,1.084518,-1.323238,-3.843083,4.725976,1.371184,3.799240,-4.598192,-0.029809,0.551953,-0.058098,62.229957,188.720536,947.552674,1030.276420,0
0.029166,-148.924580,178.280793,-6.968182,2.769708,0.398647,-4.767763,3.908806,-0.385824,4.739299,-3.776330,-0.018850,0.551430,-0.039427,69.276087,188.646636,947.801960,1029.874288,0
0.030208,-164.293668,143.511951,70.010038,4.240008,2.219939,-4.934443,2.289392,-2.120778,4.999494,-2.310497,-0.048074,0.549666,-0.013287,62.716287,188.721962,947.841411,1029.872289,0
0.031250,-182.396299,62.352438,125.543182,5.280528,3.959576,-4.624894,0.266989,-3.870435,4.663758,-0.364355,-0.091910,0.533596,-0.043161,59.391147,188.646614,947.110084,1030.052520,0
0.032291,-167.151978,-14.228413,164.358523,6.038298,4.577324,-3.696245,-1.147200,-4.576179,3.799240,1.012532,-0.146705,0.540913,-0.002084,41.227288,188.661969,946.682009,1029.886494,0
0.033333,-115.554943,-84.225171,179.475948,6.343668,4.861346,-1.620676,-3.326320,-4.804076,1.747057,3.076083,-0.194194,0.538038,-0.031958,13.676128,188.645622,946.208996,1029.224079,0
0.034383,-37.325717,-133.104508,179.820644,6.400218,4.293302,0.446956,-4.535284,-4.366662,-0.275749,4.374697,-0.219765,0.552149,-0.035692,-15.107821,188.646811,945.743939,1029.215096,0
0.035417,32.532743,-173.527213,149.758144,5.823408,3.182065,2.407437,-5.192005,-3.175719,-2.252391,5.004436,-0.230724,0.551103,-0.017021,-39.458251,188.646931,946.061871,1028.738914,0
0.036458,104.625676,-175.593048,96.096212,4.771578,1.403375,4.018682,-4.848719,-1.381953,-3.977232,4.751829,-0.205153,0.562535,-0.024490,-56.943510,188.797657,947.431671,1028.707065,0
0.037500,149.269758,-178.069633,8.740152,3.120318,-0.393065,4.994953,-3.964384,0.375056,-4.887915,3.873041,-0.183235,0.562209,-0.017021,-65.143260,188.704496,948.149188,1028.650444,0
0.038542,164.638846,-143.385358,-68.853599,1.638708,-2.193057,5.102105,-2.359895,2.165146,-5.093552,2.353840,-0.135746,0.553390,-0.013287,-60.393060,188.646350,949.032442,1028.463350,0
0.039583,182.900272,-62.564110,-125.433144,0.575568,-3.946894,4.752870,-0.303911,3.874370,-4.770407,0.368562,-0.132093,0.551953,-0.024490,-54.172560,188.646438,949.731045,1028.144944,0
0.040625,166.635127,13.895932,-164.913258,-0.216132,-4.468785,3.788504,1.110279,4.536005,-3.893298,-0.990536,-0.073645,0.556199,-0.076769,-37.365901,188.797286,950.709148,1028.266314,0
0.041667,115.117489,84.557139,-179.944508,-0.521502,-4.774109,1.669280,3.281936,4.756550,-1.803345,-3.082550,-0.066339,0.546792,-0.028224,-7.258681,188.646560,952.158550,1028.286189,0
0.042708,37.251223,132.977403,-180.510796,-0.544122,-4.245117,-0.354698,4.449855,4.252972,0.253034,-4.313565,-0.026156,0.551887,-0.043161,19.218028,188.662639,953.375744,1027.129319,0
0.043750,-34.490092,173.907505,-149.943561,0.043998,-3.034473,-2.331052,5.117770,3.106138,2.229676,-4.918398,-0.022503,0.552279,-0.073035,45.016137,188.646706,954.444382,1026.571289,0
0.044802,-106.685108,175.719641,-92.539205,1.141068,-1.149275,-3.934360,4.677468,1.209451,3.895763,-4.591077,-0.007891,0.553651,-0.020755,62.275197,188.797373,955.602887,1025.572262,0
0.045834,-149.582445,178.909000,-5.798674,2.758398,0.590362,-4.839197,3.864030,-0.518151,4.789659,-3.762098,-0.015197,0.548817,-0.050629,67.952817,188.646393,957.304545,1025.247461,0
0.046875,-164.259640,142.328022,70.724053,4.206078,2.329998,-4.970161,2.143868,-2.278836,5.037264,-2.168183,-0.062686,0.548294,-0.039427,64.808637,188.630851,959.424441,1023.753792,0
0.047916,-184.279154,60.032904,125.247728,5.257908,4.122888,-4.601082,0.117734,-4.035844,4.659562,-0.179347,-0.102869,0.543983,-0.050629,58.961367,188.646431,962.495032,1022.952807,0
0.048958,-165.983700,-15.678121,165.060228,6.049608,4.627028,-3.597031,-1.281529,-4.605585,3.677535,1.176193,-0.172276,0.526345,-0.031958,42.007678,188.797246,963.968505,1021.289116,0
0.050000,-114.035048,-84.925863,180.473107,6.332358,4.868447,-1.422247,-3.464381,-4.815103,1.587582,3.261091,-0.186888,0.543983,-0.039427,14.230318,188.646659,966.664122,1020.032753,0
0.051041,-36.157440,-133.201155,180.128410,6.343668,4.279101,0.562045,-4.609911,-4.289471,-0.452010,4.442296,-0.205153,0.544963,-0.028224,-14.723281,188.721956,968.512314,1018.251002,0
0.052083,34.846613,-173.744669,150.410607,5.857338,3.089757,2.582054,-5.270364,-3.105879,-2.424456,5.068477,-0.216112,0.555349,-0.009553,-38.632621,188.646495,970.902478,1017.875552,0
0.053125,105.635159,-175.158135,94.582008,4.782888,1.229412,4.145676,-4.796480,-1.231247,-4.019199,4.662883,-0.212459,0.554631,-0.024490,-56.739930,188.664273,971.212872,1015.804926,0
0.054166,149.644061,-178.927377,7.275189,3.109008,-0.563479,5.050513,-3.882294,0.540465,-4.976045,3.759190,-0.194194,0.559204,-0.017021,-64.555140,188.648934,973.552563,1014.271363,0
0.055208,164.457366,-141.887325,-69.419887,1.604778,-2.327967,5.117979,-2.150939,2.319528,-5.064176,2.193737,-0.157664,0.547902,-0.054364,-60.494850,188.646118,975.065979,1011.950534,0
0.056259,185.475020,-59.012324,-125.420834,0.575568,-4.085355,4.705247,-0.124805,4.043455,-4.711653,0.190669,-0.128440,0.548229,-0.043161,-54.376140,188.646035,977.710048,1011.022326,0
0.057292,165.285369,14.101307,-165.639584,-0.227442,-4.546891,3.657541,1.240877,4.572763,-3.771594,-1.122176,-0.095563,0.553259,-0.020755,-35.759881,188.857405,979.151803,1009.276353,0
0.058333,114.380227,84.279278,-180.818561,-0.510192,-4.781209,1.538317,3.382683,4.808011,-1.643871,-3.178611,-0.066339,0.545159,-0.043161,-6.591391,188.645765,981.397867,1008.129138,0
0.059375,37.228538,133.521043,-179.612122,-0.521502,-4.145710,-0.481692,4.472243,4.252972,0.412508,-4.342027,-0.022503,0.530657,-0.024490,19.919248,188.721782,982.854082,1007.020360,0
0.060417,-35.159300,173.943748,-150.435985,0.021378,-2.942165,-2.450110,5.162546,3.014245,2.368167,-4.968208,-0.000585,0.560575,-0.043161,44.122647,188.646415,985.032742,1005.980340,0
0.061458,-106.072613,175.453861,-93.400947,1.152378,-1.103121,-3.985952,4.647617,1.187397,3.954517,-4.559056,-0.007891,0.554174,-0.009553,62.365677,188.872651,985.925513,1005.133575,0
0.062500,-150.126885,179.271427,-5.133902,2.769708,0.672018,-4.878883,3.759551,-0.587991,4.865200,-3.644689,-0.033462,0.549601,-0.046895,68.303427,188.646406,987.273100,1003.981752,0
0.063542,-164.361723,141.337388,70.994887,4.194768,2.432956,-4.942381,2.046852,-2.333972,4.961723,-2.097026,-0.084604,0.542938,0.005384,62.704977,188.662328,987.217513,1002.510162,0
0.064583,-185.549514,58.728167,124.976894,5.257908,4.137090,-4.545522,0.024450,-4.057899,4.600808,-0.115305,-0.117481,0.539149,-0.043161,59.459007,188.647038,987.661575,1001.678224,0
0.065625,-165.144355,-16.318409,165.318751,6.060918,4.595075,-3.493847,-1.367351,-4.627640,3.597798,1.254466,-0.124787,0.511451,-0.009553,40.107598,188.873114,988.388898,1000.630835,0
0.066675,-112.140851,-86.411814,181.359470,6.366288,4.871997,-1.354781,-3.591247,-4.804076,1.440698,3.364269,-0.186888,0.532551,-0.039427,12.567748,188.708373,989.713298,999.615843,0
0.067708,-34.955135,-133.466935,179.894508,6.354978,4.240048,0.641417,-4.654688,-4.226983,-0.502371,4.492106,-0.205153,0.525561,-0.043161,-15.876901,188.641810,990.172435,998.934353,0
0.068765,38.476213,-173.720507,150.841478,5.857338,2.951297,2.709049,-5.274095,-2.984580,-2.537767,5.057804,-0.205153,0.557113,-0.058098,-40.849381,188.647089,991.017261,997.886270,0
0.069798,107.007601,-175.133973,92.218371,4.692408,1.112252,4.240922,-4.789017,-1.154056,-4.107330,4.659325,-0.216112,0.561490,-0.035692,-57.463770,188.873152,991.709339,997.762972,0
0.070833,149.893596,-179.410613,5.564015,3.109008,-0.648686,5.121948,-3.863637,0.606628,-4.971848,3.737843,-0.161317,0.559008,-0.050629,-64.758720,188.646904,992.038962,997.515609,0
0.071875,164.434681,-140.691316,-70.269318,1.672638,-2.395422,5.149728,-2.102431,2.356285,-5.127126,2.161717,-0.172276,0.551038,-0.020755,-60.302580,188.647050,992.567329,997.865051,0
0.072917,185.860665,-58.891515,-124.940720,0.620808,-4.127958,4.725090,-0.050177,4.127997,-4.749424,0.169322,-0.121134,0.544963,-0.054364,-54.398760,188.646915,993.920278,998.202599,0
0.073958,164.786299,15.043618,-166.255114,-0.227442,-4.632098,3.633729,1.326698,4.668332,-3.691857,-1.200449,-0.069992,0.544244,-0.009553,-36.619441,188.736207,995.441535,997.824736,0
0.075000,113.665649,84.762515,-181.421781,-0.555432,-4.845114,1.466882,3.517012,4.826389,-1.572527,-3.313810,-0.059033,0.546465,-0.043161,-6.975931,188.646793,997.375943,997.454341,0
0.076042,36.797523,133.943875,-179.415152,-0.487572,-4.120858,-0.584876,4.632692,4.201512,0.504836,-4.445205,-0.029809,0.556133,-0.002084,19.263268,188.646811,999.048810,996.711321,0
0.077091,-37.529882,173.798777,-151.088447,0.032688,-2.846308,-2.624728,5.158815,2.937054,2.561215,-5.025134,-0.004238,0.554304,-0.050629,46.181067,188.646801,1001.584124,996.048168,0
0.078125,-106.310805,175.780045,-92.748485,1.174998,-0.946909,-4.116915,4.617766,1.069773,4.042648,-4.569729,-0.015197,0.558550,-0.035692,62.003757,188.856853,1003.281076,995.261847,0
0.079166,-150.455817,179.802986,-4.715341,2.724468,0.821130,-4.974129,3.658804,-0.746048,4.974314,-3.637574,-0.051727,0.552214,-0.050629,67.455177,188.646246,1006.023063,994.906827,0
0.080208,-164.985560,140.056812,70.921023,4.194768,2.564316,-4.993972,1.901329,-2.492029,5.037264,-1.986733,-0.091910,0.546531,-0.043161,65.034837,188.646427,1008.521415,994.108203,0
0.081250,-187.092094,57.302620,124.706061,5.235288,4.286201,-4.533616,-0.117342,-4.245362,4.642775,0.030566,-0.124787,0.550777,-0.043161,58.938747,188.646351,1011.941811,994.066201,0
0.082291,-164.032790,-16.777484,166.168182,6.060918,4.722885,-3.398601,-1.557651,-4.693803,3.492881,1.389664,-0.121134,0.540651,-0.031958,40.955848,188.872624,1013.743219,992.821180,0
0.083333,-112.503811,-85.771526,181.556440,6.400218,4.875547,-1.235723,-3.680800,-4.796724,1.348371,3.463889,-0.179582,0.490547,-0.039427,13.495168,188.667155,1015.548094,991.520661,0
0.084375,-34.149817,-134.191790,179.365152,6.354978,4.122888,0.796192,-4.766629,-4.160820,-0.657648,4.541916,-0.248989,0.512039,-0.046895,-15.707251,188.721996,1016.952823,990.027020,0
0.085416,38.566953,-173.382242,151.641667,5.846028,2.905143,2.832075,-5.318872,-2.947822,-2.684651,5.089824,-0.259948,0.545485,-0.017021,-39.503491,188.646627,1019.113206,989.208584,0
0.086458,106.928204,-175.593048,91.418182,4.669788,0.970241,4.324263,-4.766629,-1.014378,-4.203854,4.620189,-0.208806,0.553390,-0.035692,-57.022680,188.872602,1020.803328,987.632512,0
0.087509,150.415351,-179.736798,2.707955,3.075078,-0.804898,5.193383,-3.789010,0.827173,-5.135519,3.663128,-0.219765,0.553782,-0.024490,-63.424140,188.646424,1024.060412,986.877887,0
0.088542,164.536764,-138.891261,-71.069508,1.661328,-2.551635,5.133854,-1.953176,2.529046,-5.135519,1.994498,-0.150358,0.548817,-0.028224,-60.675810,188.629464,1026.046785,984.952924,0
0.089583,187.403245,-56.294121,-124.682197,0.609498,-4.266419,4.685404,0.039375,4.245621,-4.711653,0.009219,-0.091910,0.548425,-0.028224,-54.421380,188.646542,1028.131955,983.956094,0
0.090625,163.289089,16.396679,-166.575190,-0.250062,-4.678251,3.570232,1.498341,4.719793,-3.654087,-1.349878,-0.062686,0.544506,-0.013287,-34.889011,188.872626,1029.552510,983.393192,0
0.091667,112.383947,85.547773,-181.741857,-0.476262,-4.866416,1.327982,3.614028,4.863147,-1.408856,-3.449008,-0.022503,0.537124,-0.031958,-6.184231,188.646440,1031.823458,982.295123,0
0.092708,35.549848,134.644567,-178.861175,-0.521502,-4.106657,-0.703933,4.707319,4.161079,0.609753,-4.523477,-0.015197,0.543330,-0.020755,20.326408,188.646422,1033.058227,981.675499,0
0.093750,-37.484512,173.726292,-151.790152,0.021378,-2.817906,-2.751722,5.233442,2.859863,2.636756,-5.050039,-0.007891,0.559596,-0.017021,44.608977,188.667452,1034.487425,980.667274,0
0.094792,-106.945985,175.538427,-91.751326,1.107138,-0.875903,-4.224067,4.643886,0.930094,4.155958,-4.562614,-0.022503,0.557636,-0.020755,62.535327,188.874927,1036.259286,979.542508,0
0.095833,-151.000257,180.141252,-4.333712,2.769708,0.916987,-5.029689,3.655073,-0.856320,5.054051,-3.623342,-0.051727,0.556003,-0.050629,67.489107,188.646811,1038.196389,979.321397,0
0.096875,-165.337178,139.319877,70.896402,4.217388,2.709878,-5.033658,1.785657,-2.617005,5.054051,-1.887113,-0.091910,0.550842,-0.035692,63.338337,188.646513,1039.949203,978.153144,0
0.097925,-188.691386,54.753549,125.026137,5.235288,4.385609,-4.509805,-0.300179,-4.351959,4.613398,0.162207,-0.132093,0.554435,-0.024490,59.142327,188.646514,1041.748795,977.669593,0
0.098958,-163.533720,-16.378814,166.722160,6.072228,4.783240,-3.335104,-1.680786,-4.796724,3.480291,1.496399,-0.168623,0.553455,-0.005818,39.270658,188.854347,1043.894224,977.637004,0
0.100000,-112.118166,-85.904416,182.073485,6.343668,4.921701,-1.124603,-3.800204,-4.873915,1.285421,3.570624,-0.223418,0.549666,-0.024490,12.522508,188.721866,1045.968645,977.810019,0
0.101042,-34.138475,-134.469650,179.229735,6.343668,4.140640,0.919218,-4.815137,-4.160820,-0.762566,4.616631,-0.219765,0.522099,-0.028224,-16.691221,188.646545,1047.691138,977.351451,0
0.102083,39.519724,-173.261433,152.023296,5.812098,2.855439,2.935258,-5.322603,-2.844901,-2.764388,5.143192,-0.216112,0.519421,-0.024490,-41.154751,188.646440,1049.191422,976.493312,0
0.103125,107.245794,-175.798423,90.260985,4.635858,0.909887,4.435383,-4.733047,-0.937187,-4.325558,4.613073,-0.219765,0.550581,-0.002084,-57.531630,188.797311,1050.763119,976.004642,0
0.104167,150.177158,-180.461652,2.535606,3.029838,-0.854602,5.256880,-3.725577,0.919067,-5.122929,3.620434,-0.194194,0.548882,-0.020755,-63.978330,188.721773,1051.657380,974.856245,0
0.105208,164.797641,-137.731494,-71.721970,1.638708,-2.714947,5.193383,-1.882280,2.628291,-5.110339,1.884205,-0.172276,0.545224,-0.013287,-60.291270,188.663014,1052.593313,973.454431,0
0.106250,188.356015,-54.192043,-124.435985,0.609498,-4.340975,4.677467,0.169973,4.377948,-4.694867,-0.111747,-0.117481,0.519551,0.005384,-54.172560,188.646619,1054.631525,972.902800,0
0.107292,162.676594,17.906792,-167.079925,-0.227442,-4.742156,3.471017,1.617745,4.804335,-3.553366,-1.431709,-0.091910,0.530983,-0.020755,-35.624161,188.797306,1055.956501,972.334089,0
0.108346,110.795997,87.976035,-181.717235,-0.544122,-4.891268,1.200987,3.714775,4.899904,-1.312332,-3.573532,-0.026156,0.544244,-0.009553,-6.105061,188.721905,1057.460431,972.442321,0
0.109375,33.791761,135.188208,-178.959660,-0.464952,-4.096006,-0.830928,4.800603,4.168430,0.702080,-4.573287,-0.018850,0.551757,0.012853,19.907938,188.625918,1058.437650,972.490211,0
0.110416,-39.571532,173.230975,-152.344129,0.032688,-2.743350,-2.866811,5.259562,2.797375,2.783640,-5.117638,0.014027,0.548817,-0.013287,46.203687,188.493901,1060.522582,972.138880,0
