1-Time,2-VGERA,3-VGERB,4-VGERC,5-VN,6-IGERAN,7-IGERBN,8-IGERCN,9-IGERAT,10-IGERBT,11-IGERCT,12-IN,13-IFD,14-IFAULT,15-VFAULT,16-Speed (rad/s),17-Active Power,18-Reactive Power,19-FAULT 
0.000000,-157.760388,165.668329,5.083902,2.973288,4.389159,-3.898643,-0.774063,-4.057899,3.962911,0.653190,-0.135746,0.393605,-0.043161,9.683698,188.495939,1312.371107,-83.855498,0
0.001042,-182.214819,112.113681,64.913447,4.115598,4.832944,-2.473921,-2.509150,-4.649694,2.674526,2.293357,-0.183235,0.400921,-0.058098,4.073938,188.495899,1313.695847,-83.678291,0
0.002083,-188.566619,35.472426,125.863258,5.235288,4.772589,-0.834896,-3.945728,-4.535746,0.995849,3.712938,-0.205153,0.404514,-0.050629,0.511288,188.345088,1315.663516,-84.813436,0
0.003125,-157.295345,-31.697400,168.679546,6.072228,3.842416,0.800160,-4.486776,-3.756487,-0.657648,4.360466,-0.234377,0.413986,-0.076769,-4.634761,188.495969,1316.695107,-85.635583,0
0.004167,-86.245922,-84.249332,195.836743,6.592488,2.333548,2.903510,-4.878570,-2.161212,-2.755995,4.652209,-0.219765,0.408042,-0.039427,-8.231341,188.495830,1317.644708,-86.691531,0
0.005208,-21.173997,-142.153105,183.957008,6.400218,0.572610,3.943279,-3.994235,-0.444636,-3.847135,3.961987,-0.201500,0.390992,-0.054364,-10.742161,188.495917,1317.925581,-87.803342,0
0.006250,41.198414,-185.680602,133.668182,5.472798,-1.401345,4.768744,-2.818854,1.514539,-4.686473,2.816360,-0.186888,0.405886,-0.039427,-12.936301,188.345156,1318.741005,-88.534861,0
0.007292,95.744498,-195.695672,58.487311,4.036428,-3.148081,4.685404,-1.087498,3.370792,-4.720047,1.147730,-0.150358,0.389097,-0.065566,-10.730851,188.495971,1319.324012,-89.954739,0
0.008333,157.311591,-165.614221,-5.626326,2.860188,-4.294821,4.006776,0.617738,4.403678,-3.977232,-0.531573,-0.091910,0.390535,-0.046895,-5.075851,188.495899,1319.330824,-90.449703,0
0.009375,181.527830,-110.839402,-64.926515,1.706568,-4.681802,2.597929,2.360288,4.936662,-2.630094,-2.221551,-0.051727,0.399288,-0.050629,0.895828,188.495975,1319.481116,-91.241771,0
0.010417,188.117823,-33.449131,-125.408523,0.564258,-4.660500,0.962872,3.793134,4.855795,-0.984990,-3.587764,-0.026156,0.402293,-0.054364,4.469788,188.269639,1319.507505,-91.689105,0
0.011458,156.460904,33.080407,-168.421781,-0.227442,-3.794232,-0.695996,4.375227,4.058158,0.622343,-4.178366,-0.040768,0.410328,-0.061832,9.333088,188.496029,1319.429491,-91.455250,0
0.012500,85.921893,84.714191,-195.542046,-0.838182,-2.260512,-2.811251,4.725976,2.514343,2.674526,-4.537709,-0.059033,0.411765,-0.020755,13.472548,188.495944,1320.047318,-91.571159,0
0.013542,21.757368,142.485074,-183.859281,-0.589362,-0.577680,-3.787523,3.927463,0.834525,3.757273,-3.847487,-0.018850,0.403795,-0.046895,15.655378,188.495770,1319.271069,-91.719819,0
0.014583,-40.751152,185.698468,-133.767425,0.349368,1.460180,-4.636800,2.740887,-1.154056,4.613398,-2.655608,-0.040768,0.400072,-0.050629,17.657248,188.345133,1319.017176,-92.775718,0
0.015625,-95.989130,195.810184,-59.078977,1.763118,3.164313,-4.561397,0.964755,-2.973552,4.634381,-1.047461,-0.091910,0.394715,-0.058098,16.967338,188.495893,1317.994176,-92.216649,0
0.016667,-157.737703,165.632086,5.071591,2.973288,4.374958,-3.878800,-0.837496,-4.024817,3.946124,0.685210,-0.157664,0.393539,-0.046895,9.638458,188.495835,1317.483909,-92.494443,0
0.017708,-182.169449,111.292180,65.024243,4.081668,4.786790,-2.418361,-2.494225,-4.605585,2.632559,2.368072,-0.194194,0.394127,-0.031958,4.028698,188.495908,1316.885041,-93.395677,0
0.018750,-188.430509,33.515320,125.543182,5.269218,4.737087,-0.826959,-3.878563,-4.498989,0.958079,3.677359,-0.197847,0.416991,-0.020755,0.217228,188.269747,1315.832439,-93.106959,0
0.019792,-156.524055,-33.388727,168.433334,6.060918,3.845967,0.863658,-4.442000,-3.712378,-0.674435,4.317772,-0.212459,0.401117,-0.058098,-4.600831,188.495984,1314.822039,-92.787704,0
0.020833,-84.975562,-84.623840,195.701326,6.603798,2.329998,2.927321,-4.822600,-2.095048,-2.743405,4.655767,-0.234377,0.390469,-0.043161,-8.220031,188.495935,1314.221087,-92.873185,0
0.021875,-20.345994,-142.310157,184.006251,6.434148,0.629415,3.891687,-4.009161,-0.418906,-3.876512,4.004681,-0.216112,0.400007,-0.054364,-11.024911,188.495935,1314.936598,-92.910341,0
0.022918,41.402579,-185.608117,133.618940,5.461488,-1.355191,4.776681,-2.859899,1.521890,-4.636113,2.816360,-0.186888,0.406670,-0.073035,-12.732721,188.269689,1314.369400,-92.782374,0
0.023959,95.948663,-195.647348,59.275190,4.081668,-3.080626,4.677467,-1.087498,3.264196,-4.669687,1.151288,-0.168623,0.396087,-0.046895,-11.635651,188.496024,1313.160243,-92.000182,0
0.025000,158.003484,-165.529655,-4.666099,2.837568,-4.209615,4.034556,0.643857,4.414705,-3.977232,-0.503111,-0.117481,0.399745,-0.035692,-5.222881,188.495897,1313.395030,-91.885872,0
0.026042,181.868105,-111.938764,-64.655682,1.683948,-4.703103,2.582054,2.349093,4.944013,-2.638487,-2.157509,-0.080951,0.398243,-0.039427,0.986308,188.495877,1313.500092,-91.444537,0
0.027084,187.936343,-34.246471,-125.703978,0.519018,-4.653399,0.923186,3.774477,4.815362,-1.039547,-3.545070,-0.059033,0.403795,-0.061832,4.119178,188.269760,1312.912795,-90.738393,0
0.028125,156.528959,33.297864,-168.581819,-0.283992,-3.758729,-0.688059,4.356570,4.050806,0.639130,-4.185482,-0.037115,0.414639,-0.031958,9.016408,188.495821,1313.021305,-90.953924,0
0.029167,84.764958,85.100780,-195.739016,-0.792942,-2.228559,-2.827125,4.729707,2.499640,2.720690,-4.544825,-0.044421,0.400137,-0.031958,13.189798,188.495711,1313.241046,-91.169075,0
0.030209,19.999280,142.678368,-183.859281,-0.555432,-0.481822,-3.791491,3.905075,0.819822,3.820223,-3.836813,-0.048074,0.393670,-0.061832,15.610138,188.495875,1313.679344,-91.262953,0
0.031250,-41.953458,186.036733,-132.967235,0.394608,1.460180,-4.648705,2.737156,-1.168759,4.638578,-2.701860,-0.037115,0.375444,-0.039427,17.849518,188.269762,1314.452476,-90.564180,0
0.032292,-96.011815,195.918912,-57.958712,1.819668,3.224668,-4.577271,0.972218,-3.010310,4.680545,-0.976304,-0.128440,0.391514,-0.024490,16.718518,188.495921,1314.873660,-91.293179,0
0.033334,-158.009923,165.511277,5.736364,2.995908,4.389159,-3.930392,-0.766600,-4.090980,3.958714,0.717231,-0.143052,0.396936,-0.054364,9.695008,188.495910,1315.719122,-91.745119,0
0.034375,-181.987969,111.485474,65.147349,4.126908,4.815193,-2.462016,-2.471837,-4.612937,2.619969,2.360956,-0.175929,0.398896,-0.050629,4.051318,188.495752,1315.677709,-91.823175,0
0.035417,-188.555276,34.820057,126.244887,5.246598,4.737087,-0.775368,-3.878563,-4.513692,0.970669,3.723611,-0.205153,0.403991,-0.050629,0.488668,188.269774,1316.539156,-92.291680,0
0.036459,-156.909700,-32.096070,168.716478,6.106158,3.842416,0.883500,-4.427074,-3.760163,-0.682828,4.332003,-0.201500,0.415554,-0.061832,-4.713931,188.495866,1317.254541,-92.558481,0
0.037500,-86.121154,-84.358061,196.070645,6.603798,2.315797,2.951133,-4.818868,-2.153860,-2.789568,4.648651,-0.227071,0.412810,-0.028224,-8.253961,188.495904,1318.033518,-92.832881,0
0.038542,-21.310107,-142.430966,183.600001,6.411528,0.604563,3.899624,-3.986773,-0.440961,-3.863922,3.919293,-0.208806,0.413725,-0.054364,-10.787401,188.496015,1316.991221,-93.090929,0
0.039584,41.345866,-186.067191,133.323485,5.382318,-1.426196,4.768744,-2.777809,1.525566,-4.678080,2.816360,-0.201500,0.399680,-0.046895,-12.981541,188.269809,1317.558086,-93.174896,0
0.040625,96.152828,-195.417811,58.117993,4.002498,-3.133880,4.649687,-1.020334,3.348738,-4.703260,1.165520,-0.132093,0.392102,-0.050629,-10.662991,188.495772,1318.475714,-93.375155,0
0.041667,157.640524,-165.445088,-5.909470,2.814948,-4.273520,4.026619,0.640126,4.407354,-3.989822,-0.570710,-0.091910,0.393735,-0.099175,-5.075851,188.420598,1318.462121,-93.741130,0
0.042708,181.380377,-110.356166,-65.332765,1.695258,-4.671151,2.574117,2.375213,4.929310,-2.621700,-2.178856,-0.095563,0.399027,-0.054364,0.963688,188.495986,1317.954877,-93.570412,0
0.043750,188.151850,-32.893409,-125.703978,0.552948,-4.656950,0.927155,3.725969,4.830065,-1.018564,-3.545070,-0.040768,0.383087,-0.073035,4.469788,188.269763,1318.038210,-93.396194,0
0.044792,156.143314,33.660291,-168.409470,-0.238752,-3.737428,-0.703933,4.326719,4.003021,0.651720,-4.171251,-0.015197,0.424895,-0.054364,9.344398,188.495897,1317.339502,-93.635970,0
0.045834,85.343426,85.040375,-195.677463,-0.872112,-2.242760,-2.771565,4.722245,2.462882,2.678723,-4.530593,-0.033462,0.393082,-0.069301,13.461238,188.420468,1316.755549,-93.741038,0
0.046875,21.246955,142.750854,-183.600758,-0.566742,-0.517325,-3.795460,3.908806,0.805119,3.757273,-3.836813,-0.040768,0.408564,-0.065566,15.666688,188.496020,1316.131198,-93.795895,0
0.047917,-41.080085,185.903843,-133.558144,0.394608,1.424677,-4.620925,2.703574,-1.135677,4.596611,-2.687629,-0.069992,0.401052,-0.039427,17.679868,188.269595,1315.433908,-93.820558,0
0.048959,-96.363432,195.580647,-58.894318,1.763118,3.178514,-4.553459,0.957292,-2.929443,4.621791,-1.008325,-0.110175,0.394585,-0.046895,16.944718,188.495673,1314.381274,-92.972483,0
0.050000,-157.919183,165.402549,5.379356,2.950668,4.307503,-3.874832,-0.766600,-3.988059,3.891567,0.685210,-0.110175,0.392625,-0.043161,9.615838,188.420329,1312.627049,-92.475956,0
0.051042,-181.987969,111.002238,65.381250,4.092978,4.758388,-2.402487,-2.441986,-4.528395,2.598985,2.343167,-0.175929,0.394585,-0.054364,4.040008,188.495694,1311.389420,-92.152808,0
0.052084,-188.237686,33.322025,125.887879,5.269218,4.719335,-0.791242,-3.852443,-4.414446,0.924505,3.670244,-0.230724,0.393605,-0.061832,0.149368,188.269599,1309.435014,-92.104660,0
0.053125,-156.410630,-33.666587,168.568751,6.049608,3.803363,0.800160,-4.397223,-3.686648,-0.661845,4.193247,-0.241683,0.411765,-0.061832,-4.612141,188.495644,1307.130534,-91.197040,0
0.054167,-84.794082,-85.070834,195.492046,6.649038,2.273193,2.875730,-4.789017,-2.069318,-2.684651,4.595284,-0.238030,0.364535,-0.054364,-8.231341,188.420338,1305.116110,-90.421684,0
0.055209,-19.880952,-142.370562,184.006251,6.400218,0.640065,3.863907,-3.997967,-0.459339,-3.775791,3.944198,-0.186888,0.390077,-0.009553,-10.979671,188.495776,1304.621167,-89.123642,0
0.056250,41.867621,-185.257771,133.569697,5.427558,-1.309037,4.673498,-2.803928,1.463078,-4.568966,2.823476,-0.216112,0.403012,-0.102909,-12.721411,188.269648,1303.119993,-88.009835,0
0.057292,96.300281,-195.550701,58.782765,4.025118,-3.034473,4.613969,-1.106155,3.267871,-4.690670,1.176193,-0.139399,0.397067,-0.069301,-11.590411,188.495698,1302.586868,-87.315092,0
0.058333,157.799319,-165.094742,-5.047727,2.860188,-4.188313,4.010745,0.606544,4.322812,-3.973036,-0.485321,-0.091910,0.396087,-0.065566,-5.211571,188.495749,1301.509874,-86.066373,0
0.059375,181.868105,-111.914603,-65.111174,1.706568,-4.603695,2.578086,2.296854,4.903580,-2.625897,-2.132604,-0.095563,0.400856,-0.046895,0.974998,188.495785,1301.413377,-85.889412,0
0.060417,187.743520,-34.379361,-125.888637,0.552948,-4.532690,0.994621,3.707312,4.745523,-1.018564,-3.509491,-0.048074,0.404253,-0.054364,4.164418,188.269413,1300.186774,-86.181693,0
0.061459,156.597014,33.430754,-168.766478,-0.261372,-3.712576,-0.703933,4.248361,3.984643,0.609753,-4.157019,-0.059033,0.415358,-0.050629,9.016408,188.495703,1299.979877,-85.878569,0
0.062500,84.946438,85.571935,-195.148107,-0.781632,-2.207258,-2.755691,4.636423,2.466558,2.678723,-4.462994,-0.026156,0.400007,-0.039427,13.212418,188.420330,1299.086630,-85.588006,0
0.063542,19.863170,142.738773,-183.834660,-0.566742,-0.556378,-3.759743,3.834179,0.830849,3.736289,-3.765656,-0.044421,0.388967,-0.058098,15.598828,188.495720,1298.167492,-85.090675,0
0.064583,-42.271048,185.384364,-133.139584,0.383298,1.453079,-4.553459,2.740887,-1.102596,4.537857,-2.666281,-0.066339,0.377665,-0.061832,17.804278,188.269487,1297.107830,-84.326308,0
0.065625,-96.431487,195.894751,-57.700190,1.751808,3.146562,-4.525679,0.953561,-2.900037,4.609201,-1.036788,-0.117481,0.392821,-0.076769,16.786378,188.495678,1296.906351,-83.443497,0
0.066667,-157.658305,165.233416,6.044129,2.995908,4.279101,-3.843083,-0.755406,-3.980708,3.891567,0.681652,-0.117481,0.392494,-0.076769,9.638458,188.420218,1296.748582,-83.185312,0
0.067709,-181.851859,111.328423,65.565909,4.126908,4.708684,-2.398518,-2.408403,-4.462231,2.565412,2.239989,-0.150358,0.397982,-0.069301,4.017388,188.495669,1295.334708,-82.304567,0
0.068750,-188.010836,34.469711,126.367993,5.314458,4.683832,-0.838865,-3.811398,-4.429149,1.004242,3.634665,-0.227071,0.407192,-0.050629,0.443428,188.269592,1295.544400,-81.286303,0
0.069792,-157.011783,-32.494740,168.814963,6.117468,3.789162,0.800160,-4.352447,-3.693999,-0.619878,4.218152,-0.208806,0.410589,-0.031958,-4.702621,188.495750,1295.959633,-81.289516,0
0.070833,-86.631567,-84.925863,195.184281,6.581178,2.312247,2.840012,-4.740509,-2.139157,-2.680454,4.566821,-0.216112,0.419082,-0.035692,-8.242651,188.420329,1296.180893,-81.064593,0
0.071875,-21.446217,-142.334319,183.735417,6.366288,0.647166,3.824221,-3.930802,-0.474042,-3.708644,3.880157,-0.219765,0.409609,-0.069301,-10.742161,188.495741,1294.860934,-81.148372,0
0.072917,41.674799,-185.064476,133.717425,5.404938,-1.340990,4.653655,-2.800197,1.437348,-4.535392,2.809245,-0.164970,0.401117,-0.058098,-12.879751,188.344802,1294.245145,-80.982192,0
0.073959,96.515789,-195.369487,58.154924,4.025118,-3.006070,4.586189,-1.038990,3.238465,-4.577359,1.151288,-0.164970,0.390600,-0.024490,-10.730851,188.495767,1292.558117,-80.943731,0
0.075000,157.266221,-165.022257,-5.958712,2.814948,-4.106657,3.919467,0.602812,4.278703,-3.918479,-0.453301,-0.117481,0.391645,-0.050629,-5.041921,188.420296,1291.448968,-80.447312,0
0.076042,181.346350,-110.682350,-65.640531,1.672638,-4.525589,2.530463,2.240884,4.819038,-2.592324,-2.104142,-0.037115,0.392952,-0.039427,0.929758,188.495759,1289.835615,-79.902490,0
0.077083,187.471300,-32.736358,-125.630114,0.552948,-4.486536,0.990652,3.610296,4.723468,-1.022760,-3.392082,-0.033462,0.371982,-0.061832,4.605508,188.344863,1288.384218,-78.499200,0
0.078125,156.177341,34.191850,-168.384849,-0.261372,-3.677073,-0.624561,4.166271,3.973615,0.550999,-4.060957,-0.048074,0.400333,-0.080503,9.378328,188.495568,1286.973814,-77.195527,0
0.079167,85.706386,85.777311,-194.323296,-0.747702,-2.225009,-2.660445,4.558064,2.477585,2.573805,-4.391837,-0.015197,0.392625,-0.017021,13.495168,188.420278,1285.487320,-76.150297,0
0.080208,20.702515,142.593802,-183.773107,-0.566742,-0.570579,-3.604968,3.793134,0.867607,3.606192,-3.726520,-0.059033,0.410197,-0.076769,15.644068,188.495807,1283.882462,-75.263052,0
0.081250,-41.726608,184.466215,-133.976705,0.326748,1.360772,-4.450276,2.643872,-1.073190,4.420350,-2.652050,-0.051727,0.397655,-0.061832,17.521528,188.420350,1282.186224,-75.115412,0
0.082292,-96.941900,195.641052,-59.005114,1.774428,3.015202,-4.442339,0.972218,-2.830198,4.495891,-1.047461,-0.124787,0.396022,-0.061832,17.012578,188.495698,1280.560670,-74.758848,0
0.083333,-157.306688,164.858908,5.207008,2.973288,4.129989,-3.731963,-0.695704,-3.822651,3.824420,0.592706,-0.146705,0.394193,-0.031958,9.593218,188.420361,1278.120274,-73.390459,0
0.084375,-182.180791,111.594202,65.713637,4.115598,4.619927,-2.378675,-2.315119,-4.410771,2.598985,2.200853,-0.154011,0.395369,-0.046895,4.062628,188.495725,1277.753657,-72.570042,0
0.085417,-187.330286,33.466996,125.937122,5.246598,4.577324,-0.898394,-3.658412,-4.307850,1.000045,3.456773,-0.201500,0.400921,-0.069301,0.024958,188.345037,1274.552072,-71.207459,0
0.086458,-156.728220,-33.847801,168.605682,6.072228,3.725257,0.681103,-4.180804,-3.602106,-0.552731,4.090070,-0.216112,0.392821,-0.050629,-4.668691,188.495821,1272.131152,-70.057213,0
0.087500,-85.882962,-85.880254,193.731629,6.592488,2.273193,2.701112,-4.613643,-2.014182,-2.541963,4.420949,-0.245336,0.365188,-0.046895,-8.220031,188.495761,1268.468978,-69.421747,0
0.088542,-19.313827,-142.358481,184.240152,6.400218,0.718172,3.677383,-3.856175,-0.481394,-3.633103,3.837462,-0.208806,0.399811,-0.058098,-10.979671,188.495718,1267.353840,-68.444045,0
0.089583,42.797706,-183.445635,134.160606,5.461488,-1.202529,4.514755,-2.703181,1.382212,-4.375918,2.706067,-0.172276,0.404122,-0.058098,-12.642241,188.344916,1264.245192,-68.115417,0
0.090625,96.867406,-195.804400,58.573485,4.036428,-2.892461,4.502849,-1.154663,3.120841,-4.489229,1.226003,-0.150358,0.397067,-0.065566,-11.624341,188.495767,1262.974604,-66.412766,0
0.091667,156.937289,-164.357807,-5.183144,2.848878,-3.925592,3.867876,0.487140,4.102267,-3.838741,-0.367912,-0.139399,0.397263,-0.043161,-5.132401,188.495685,1260.169733,-64.993459,0
0.092708,181.913475,-112.325353,-65.615909,1.683948,-4.458134,2.558243,2.151331,4.723468,-2.646881,-1.951154,-0.095563,0.401182,-0.043161,0.918448,188.495729,1259.208305,-63.010828,0
0.093750,186.643297,-34.512251,-125.913258,0.519018,-4.411980,1.006527,3.479699,4.616872,-1.077317,-3.281789,-0.040768,0.402293,-0.061832,4.311448,188.344811,1257.197736,-62.141097,0
0.094792,156.948631,33.346187,-168.692614,-0.306612,-3.602517,-0.549158,4.046867,3.900100,0.496442,-3.929317,-0.044421,0.412288,-0.069301,8.982478,188.495740,1255.211147,-61.765170,0
0.095833,86.432306,86.490084,-193.067614,-0.725082,-2.150453,-2.569167,4.487168,2.429800,2.515052,-4.288660,-0.022503,0.406147,-0.065566,13.212418,188.495727,1253.233183,-61.616435,0
0.096875,19.511553,142.642126,-184.031629,-0.589362,-0.595431,-3.553376,3.722238,0.863931,3.484488,-3.715846,-0.033462,0.390535,-0.043161,15.530968,188.495946,1251.990294,-60.537807,0
0.097917,-43.167105,183.378934,-133.853599,0.371988,1.332370,-4.370905,2.584170,-0.977620,4.298646,-2.559546,-0.088257,0.392168,-0.058098,17.668558,188.344901,1249.368031,-59.531645,0
0.098958,-97.123380,196.136369,-57.786364,1.774428,2.947746,-4.331219,0.990875,-2.708898,4.437137,-1.033230,-0.124787,0.390600,-0.002084,16.922098,188.495635,1247.876588,-58.325006,0
0.100000,-156.705535,164.423996,6.167235,2.995908,4.019930,-3.763711,-0.594957,-3.752811,3.778256,0.528665,-0.157664,0.388771,-0.043161,9.581908,188.495761,1246.498161,-57.202770,0
0.101042,-181.942599,111.485474,66.144508,4.138218,4.492117,-2.442173,-2.229297,-4.348283,2.561215,2.101233,-0.168623,0.395369,-0.031958,3.994768,188.495720,1245.043876,-56.253439,0
0.102083,-186.853901,34.300579,126.195644,5.269218,4.460165,-0.894425,-3.580053,-4.256389,1.037816,3.382058,-0.212459,0.397524,-0.065566,0.285088,188.344939,1243.931092,-55.493039,0
0.103125,-157.091180,-32.833005,168.765720,6.083538,3.725257,0.629511,-4.102445,-3.550645,-0.502371,3.983334,-0.234377,0.407584,-0.028224,-4.713931,188.495702,1242.288804,-55.113294,0
0.104167,-87.992667,-86.049387,192.845266,6.547248,2.244791,2.685238,-4.550210,-2.072994,-2.428653,4.356908,-0.208806,0.401901,-0.058098,-8.299201,188.495662,1241.301508,-53.854351,0
0.105208,-21.071914,-142.273914,184.141667,6.411528,0.675568,3.601980,-3.800204,-0.536530,-3.519793,3.748516,-0.194194,0.403730,-0.065566,-10.674301,188.495723,1239.394571,-53.337554,0
0.106250,42.525486,-182.660376,134.751516,5.484108,-1.213180,4.379823,-2.710644,1.323400,-4.250017,2.624237,-0.168623,0.395695,-0.054364,-12.653551,188.495680,1236.990839,-53.248871,0
0.107297,97.706751,-195.164112,57.834849,4.013808,-2.785953,4.423477,-1.072573,3.076732,-4.422082,1.137057,-0.154011,0.389032,-0.035692,-10.753471,188.495664,1235.431145,-53.510641,0
0.108337,156.585671,-164.104108,-6.463447,2.792328,-3.851036,3.824221,0.434901,4.065509,-3.771594,-0.357239,-0.135746,0.390469,-0.069301,-4.974061,188.495702,1234.284480,-53.247485,0
0.109376,181.641255,-111.225991,-66.440720,1.616088,-4.330324,2.534431,2.031927,4.624223,-2.588127,-1.933365,-0.095563,0.390861,-0.020755,0.918448,188.495622,1232.510950,-53.005142,0
0.110417,186.348392,-32.808843,-125.519319,0.541638,-4.294821,1.062087,3.367757,4.565411,-1.047941,-3.178611,-0.044421,0.348465,-0.058098,4.831708,188.420236,1230.716666,-52.211043,0
0.111460,156.483589,34.566359,-168.446402,-0.238752,-3.567014,-0.473755,3.890149,3.811882,0.420902,-3.797677,-0.048074,0.422217,-0.046895,9.355708,188.495694,1228.218047,-50.951123,0
