1-Time,2-VGERA,3-VGERB,4-VGERC,5-VN,6-IGERAN,7-IGERBN,8-IGERCN,9-IGERAT,10-IGERBT,11-IGERCT,12-IN,13-IFD,14-IFAULT,15-VFAULT,16-Speed (rad/s),17-Active Power,18-Reactive Power,19-FAULT 
0.000000,-144.966047,166.598558,-2.745644,2.871498,3.750109,-3.922455,-0.199432,-3.506536,3.983894,0.073261,-0.110175,0.398374,-0.046895,-91.416390,188.511689,1230.161677,-18.667877,0
0.001035,-184.449291,120.654880,56.640720,4.025118,4.513419,-2.839031,-1.882280,-4.300498,2.909541,1.713428,-0.161317,0.394650,-0.035692,-110.134439,188.497665,1229.853753,-18.215720,0
0.002077,-185.368034,44.243163,114.857576,5.110878,4.399810,-1.207943,-3.251693,-4.271092,1.381944,2.997811,-0.190541,0.381650,-0.031958,-106.945019,188.268735,1229.439532,-17.485055,0
0.003118,-160.618698,-20.740020,166.106629,6.049608,3.948925,0.315993,-4.080057,-3.774866,-0.196012,3.922851,-0.197847,0.397002,-0.017021,-87.695400,188.495079,1228.641459,-17.567090,0
0.004160,-101.535613,-77.290732,184.264773,6.400218,2.486210,2.169322,-4.397223,-2.359702,-2.029967,4.203921,-0.227071,0.399680,-0.031958,-45.814471,188.494929,1228.268340,-17.350474,0
0.005202,-28.229032,-133.116589,188.314963,6.479388,0.973792,3.574200,-4.102445,-0.793833,-3.503006,3.997566,-0.194194,0.390730,-0.035692,-5.844931,188.495166,1227.024525,-17.816933,0
0.006257,36.593358,-170.857333,142.482576,5.619828,-0.840401,4.316325,-2.968109,0.919067,-4.191264,2.898191,-0.183235,0.394389,-0.031958,34.079368,188.267567,1226.095024,-17.466285,0
0.007294,88.791546,-197.411160,66.169129,4.172148,-2.651042,4.657624,-1.524069,2.841484,-4.598343,1.489284,-0.150358,0.395630,-0.039427,64.163967,188.495191,1224.466847,-17.977399,0
0.008327,143.848043,-167.305547,4.505303,2.973288,-3.570565,4.022650,-0.001670,3.764098,-4.010806,0.059029,-0.128440,0.399157,-0.046895,95.119436,188.476935,1223.244109,-17.450382,0
0.009369,184.147947,-121.011523,-56.173674,1.842288,-4.355176,2.915415,1.669984,4.565411,-2.944846,-1.595370,-0.084604,0.397132,-0.031958,114.255956,188.490830,1222.117657,-17.527491,0
0.010410,185.055347,-44.841424,-114.846023,0.722598,-4.287721,1.399416,2.994620,4.488220,-1.492790,-2.847732,-0.062686,0.401182,-0.039427,112.265396,188.349789,1220.515438,-17.067532,0
0.011452,160.158559,20.117597,-166.316667,-0.261372,-3.801333,-0.180080,3.901343,4.028752,0.110347,-3.747867,-0.015197,0.407584,-0.054364,90.143036,188.497810,1218.133825,-17.142562,0
0.012494,102.436574,77.441487,-183.514584,-0.589362,-2.427375,-2.017534,4.188659,2.650345,1.868761,-4.021821,-0.048074,0.399353,-0.061832,49.483587,188.420396,1216.021164,-17.041729,0
0.013535,28.767033,133.533124,-187.958713,-0.713772,-0.946909,-3.382727,3.920000,1.135936,3.362784,-3.854602,-0.051727,0.399484,-0.050629,9.638458,188.495758,1214.156318,-17.052740,0
0.014577,-36.134755,168.978496,-144.822349,0.077928,0.835331,-4.009763,2.785664,-0.514476,4.013271,-2.758785,-0.073645,0.396544,-0.054364,-28.758991,188.269499,1211.535480,-17.326080,0
0.015618,-88.559792,197.477349,-67.560985,1.616088,2.621121,-4.446308,1.375206,-2.374405,4.487497,-1.449498,-0.091910,0.392168,-0.065566,-58.628700,188.495642,1209.266244,-16.539711,0
0.016673,-145.068130,166.658963,-2.917992,2.837568,3.636500,-3.787523,-0.206895,-3.348479,3.912550,0.023451,-0.132093,0.395695,-0.024490,-91.416390,188.495676,1207.115027,-15.341253,0
0.017704,-184.744196,120.811932,56.529924,3.923328,4.346556,-2.719974,-1.811384,-4.179198,2.867574,1.695639,-0.161317,0.391514,-0.039427,-109.557629,188.495770,1205.472207,-15.262097,0
0.018744,-185.368034,45.572062,114.746781,5.088258,4.293302,-1.235723,-3.117364,-4.157144,1.352568,2.869728,-0.197847,0.400268,-0.039427,-105.542579,188.405430,1203.192870,-15.078814,0
0.019785,-160.176340,-19.423201,166.783713,6.060918,3.856618,0.288213,-3.997967,-3.701351,-0.124668,3.837462,-0.223418,0.407127,-0.065566,-86.225100,188.489511,1201.560627,-14.518858,0
0.020827,-103.305043,-77.266570,182.996781,6.354978,2.507512,2.070107,-4.233043,-2.381757,-1.862099,4.068722,-0.227071,0.400007,-0.046895,-44.932291,188.434961,1199.210814,-12.909022,0
0.021869,-29.057034,-133.334045,188.167235,6.468078,1.051898,3.443237,-4.042743,-0.815887,-3.402285,3.926409,-0.216112,0.389881,-0.035692,-5.516941,188.496373,1197.660678,-12.352144,0
0.022910,36.116973,-168.284101,145.314016,5.665068,-0.701940,4.070273,-2.930795,0.830849,-4.010806,2.876844,-0.175929,0.392494,-0.031958,33.977578,188.269801,1195.132604,-11.765948,0
0.023952,88.519326,-197.181623,67.560227,4.217388,-2.487730,4.542535,-1.527800,2.701806,-4.526999,1.531978,-0.172276,0.392429,-0.054364,64.853877,188.496000,1193.693647,-10.425695,0
0.024993,143.417028,-167.667975,4.406818,2.984598,-3.474707,3.927404,-0.046446,3.620743,-3.914282,0.083934,-0.150358,0.394846,-0.017021,94.689656,188.496112,1191.362414,-9.789476,0
0.026035,184.102577,-120.649096,-56.235227,1.797048,-4.277070,2.879698,1.628939,4.444111,-2.923862,-1.542002,-0.091910,0.392298,-0.046895,115.918526,188.496002,1189.569364,-9.004862,0
0.027077,185.123402,-45.119284,-114.575190,0.688668,-4.202514,1.419259,2.882679,4.444111,-1.476003,-2.765901,-0.088257,0.392168,-0.017021,112.140986,188.269800,1188.375050,-8.691430,0
0.028126,159.568749,21.639791,-166.562879,-0.272682,-3.698375,-0.160237,3.767014,3.958912,0.068380,-3.733635,-0.051727,0.406474,-0.061832,90.075176,188.495935,1187.454344,-8.043245,0
0.029160,103.071754,77.803914,-182.874432,-0.589362,-2.427375,-1.914351,4.072986,2.668724,1.789024,-3.918644,-0.037115,0.407127,-0.065566,51.869997,188.472761,1185.940838,-7.035847,0
0.030202,28.619581,133.303587,-187.995645,-0.679842,-0.914956,-3.287481,3.852836,1.165342,3.224293,-3.790561,-0.073645,0.396022,-0.035692,9.921208,188.494187,1184.048667,-5.923789,0
0.031243,-36.906045,168.519422,-145.105493,0.089238,0.735923,-3.934360,2.711036,-0.481394,3.950320,-2.773017,-0.048074,0.378645,-0.017021,-29.595931,188.422738,1183.383875,-5.101665,0
0.032285,-88.945437,197.102841,-67.080871,1.582158,2.557216,-4.378842,1.334161,-2.315593,4.432940,-1.428151,-0.080951,0.390012,-0.065566,-59.522190,188.495758,1182.193626,-4.599743,0
0.033327,-143.695687,167.818730,-3.619697,2.837568,3.544193,-3.775617,-0.102417,-3.289667,3.849600,-0.037033,-0.150358,0.391318,-0.013287,-89.934780,188.420332,1181.012964,-4.375533,0
0.034368,-183.927536,120.993146,56.628409,3.968568,4.264900,-2.723942,-1.807653,-4.098332,2.842394,1.610250,-0.157664,0.390143,-0.039427,-110.089199,188.474503,1179.418069,-3.525687,0
0.035410,-185.379376,44.593509,114.537500,5.054328,4.243598,-1.295252,-3.020348,-4.094656,1.402928,2.834150,-0.197847,0.396283,-0.061832,-106.899779,188.397153,1178.491579,-2.579549,0
0.036452,-159.847408,-20.244703,166.266667,6.026988,3.831766,0.228684,-3.889757,-3.631512,-0.099488,3.752074,-0.223418,0.399811,-0.031958,-87.028110,188.486884,1176.715115,-2.069604,0
0.037493,-102.817315,-77.713563,182.787501,6.400218,2.461358,1.986767,-4.195729,-2.311917,-1.828525,3.972661,-0.223418,0.402228,-0.058098,-46.108531,188.488283,1174.889719,-2.098437,0
0.038543,-27.196864,-133.829362,187.674811,6.456768,0.995093,3.419426,-3.897220,-0.830590,-3.301565,3.844578,-0.179582,0.398439,-0.035692,-4.295461,188.487488,1173.014660,-0.860376,0
0.039577,37.092428,-167.861269,145.510985,5.676378,-0.634484,4.050430,-2.908407,0.805119,-3.943659,2.816360,-0.183235,0.395173,-0.043161,34.396048,188.263763,1171.672927,-0.611082,0
0.040619,88.700806,-196.770872,67.129356,4.183458,-2.473529,4.483006,-1.535263,2.635642,-4.443065,1.507073,-0.161317,0.387399,-0.073035,63.768117,188.482077,1170.047058,-0.166369,0
0.041660,142.951986,-167.752541,3.545076,2.905428,-3.361098,3.899624,-0.080028,3.550904,-3.876512,0.140860,-0.164970,0.390404,-0.043161,94.090226,188.494918,1168.958521,0.882316,0
0.042702,183.308602,-120.649096,-56.752273,1.797048,-4.170562,2.887635,1.584163,4.355893,-2.890289,-1.467287,-0.099216,0.388967,-0.009553,114.335126,188.478630,1167.274951,1.690641,0
0.043743,185.089375,-44.104488,-114.279735,0.722598,-4.117307,1.427196,2.763276,4.396327,-1.513774,-2.676955,-0.059033,0.395956,-0.039427,112.050506,188.404812,1166.028050,2.983520,0
0.044785,159.217131,20.661238,-166.242804,-0.193512,-3.733877,-0.096740,3.696118,3.914803,-0.015554,-3.584206,-0.051727,0.398961,-0.031958,89.622776,188.487800,1163.798463,4.183844,0
0.045827,102.572684,78.311312,-182.320455,-0.566742,-2.356369,-1.838948,3.968508,2.628291,1.755450,-3.815466,-0.018850,0.412288,-0.024490,49.291317,188.480660,1162.004551,4.450037,0
0.046868,27.553385,133.206940,-187.958713,-0.702462,-0.936258,-3.255732,3.781939,1.191073,3.215899,-3.762098,-0.029809,0.387268,-0.024490,8.654488,188.488478,1161.588217,4.959787,0
0.047910,-37.813445,167.577112,-145.844129,0.100548,0.728822,-3.890706,2.699842,-0.426258,3.887370,-2.755228,-0.051727,0.382891,-0.046895,-29.686411,188.415738,1160.563353,5.690905,0
0.048960,-89.864180,196.945789,-65.628220,1.683948,2.525263,-4.319313,1.360280,-2.253105,4.399367,-1.428151,-0.117481,0.389032,-0.043161,-59.295990,188.494509,1159.739050,6.805141,0
0.049993,-143.015137,168.253642,-3.139583,2.860188,3.412833,-3.767680,-0.042715,-3.197773,3.782453,-0.090400,-0.117481,0.389816,-0.035692,-89.391900,188.496045,1158.177441,7.629351,0
0.051035,-183.496521,120.836094,56.899243,3.923328,4.225846,-2.779502,-1.677055,-3.991735,2.825607,1.535536,-0.168623,0.385570,-0.046895,-109.795139,188.496051,1156.457800,8.621856,0
0.052077,-185.674281,44.448538,114.131250,5.043018,4.176143,-1.342875,-2.919601,-3.988059,1.411321,2.727414,-0.179582,0.369761,-0.054364,-105.440789,188.270103,1154.458701,9.369163,0
0.053118,-159.234913,-20.437997,166.475947,6.094848,3.792713,0.185030,-3.841249,-3.561672,-0.061718,3.670244,-0.212459,0.365776,-0.028224,-85.603050,188.414855,1152.807255,9.939177,0
0.054160,-103.134905,-78.051829,182.196591,6.377598,2.464908,1.947081,-4.106177,-2.300890,-1.786559,3.915735,-0.219765,0.397067,-0.050629,-44.988841,188.495103,1151.798145,10.313775,0
0.055202,-27.446399,-133.213236,187.994887,6.524628,1.062549,3.347991,-3.960653,-0.848969,-3.276385,3.833905,-0.219765,0.379495,-0.035692,-4.702621,188.495604,1151.472155,10.459199,0
0.056243,37.704923,-167.233062,146.348107,5.687688,-0.567029,3.971059,-2.919601,0.738955,-3.910085,2.873286,-0.201500,0.389163,-0.043161,34.746658,188.344829,1151.476831,11.720634,0
0.057285,89.018396,-196.529254,67.498674,4.206078,-2.391872,4.471100,-1.602427,2.569479,-4.417885,1.563998,-0.179582,0.384786,-0.043161,65.170557,188.543405,1151.080402,12.918067,0
0.058327,142.600368,-168.235777,3.360417,2.995908,-3.318495,3.903593,-0.191969,3.514147,-3.901692,0.212017,-0.139399,0.389881,-0.065566,94.214636,188.478661,1151.079945,14.049351,0
0.059376,183.308602,-119.525572,-57.884849,1.819668,-4.152810,2.879698,1.505804,4.330163,-2.915469,-1.463729,-0.113828,0.392429,-0.054364,115.794116,188.496214,1150.862513,14.850533,0
0.060410,185.429650,-44.116569,-114.095076,0.733908,-4.092455,1.522442,2.759544,4.359569,-1.543150,-2.620029,-0.055380,0.409413,-0.024490,112.389806,188.297081,1150.171861,15.538839,0
0.061452,158.933569,20.721643,-166.439773,-0.238752,-3.716126,0.006443,3.669998,3.969940,-0.023948,-3.569975,-0.048074,0.384133,-0.046895,89.939456,188.436666,1150.525263,16.124928,0
0.062494,102.878931,78.456283,-182.185038,-0.521502,-2.438026,-1.783388,3.946120,2.716509,1.717680,-3.826139,-0.059033,0.393082,-0.035692,52.492047,188.495767,1151.054408,17.303508,0
0.063535,27.508015,133.243182,-187.958713,-0.668532,-0.982412,-3.184298,3.800596,1.227830,3.207506,-3.747867,-0.029809,0.377339,-0.058098,9.796798,188.495548,1150.917203,17.741399,0
0.064577,-38.097007,167.685840,-146.201137,0.134478,0.643616,-3.847051,2.759544,-0.367446,3.845403,-2.787248,-0.099216,0.357872,-0.050629,-29.923921,188.417364,1150.715452,18.822225,0
0.065619,-89.421822,196.462553,-67.573296,1.604778,2.454258,-4.374873,1.472222,-2.223699,4.411957,-1.520655,-0.088257,0.394650,-0.039427,-59.725770,188.495175,1151.147064,19.546880,0
0.066660,-143.185274,168.555665,-3.459659,2.860188,3.391531,-3.815303,0.043107,-3.175719,3.870583,-0.150884,-0.121134,0.393148,-0.043161,-89.652030,188.495311,1151.992992,20.769487,0
0.067702,-183.224301,121.379735,56.899243,4.013808,4.190344,-2.779502,-1.636010,-3.943950,2.863377,1.499957,-0.146705,0.392233,-0.043161,-110.043959,188.479759,1151.632584,21.481631,0
0.068743,-185.640254,44.786803,114.229735,5.133498,4.215196,-1.366687,-2.912138,-4.021141,1.457485,2.716741,-0.172276,0.396479,-0.017021,-107.058119,188.414788,1152.124578,22.082049,0
0.069796,-159.234913,-21.464874,166.869887,6.072228,3.824665,0.161218,-3.818861,-3.638863,-0.074308,3.634665,-0.227071,0.400791,-0.035692,-86.982870,188.495698,1152.603108,22.913040,0
0.070828,-103.157590,-78.220961,182.159660,6.366288,2.514612,1.923269,-4.139759,-2.337648,-1.748788,3.951314,-0.219765,0.378711,-0.046895,-47.092501,188.512655,1153.068506,23.657318,0
0.071868,-28.047552,-133.116589,187.908713,6.524628,1.076750,3.284494,-3.990504,-0.856320,-3.175664,3.848136,-0.219765,0.384198,-0.013287,-5.403841,188.497084,1152.359092,24.374923,0
0.072910,37.455388,-167.160577,146.828220,5.710308,-0.527976,3.982964,-2.953183,0.647062,-3.884905,2.901749,-0.205153,0.404971,-0.020755,34.339498,188.420235,1152.199018,25.562538,0
0.073952,89.188533,-196.058099,68.618940,4.228698,-2.331517,4.439352,-1.621084,2.481261,-4.417885,1.606693,-0.175929,0.387399,-0.046895,64.039557,188.495752,1151.877659,26.646736,0
0.074993,142.611711,-168.477395,4.517614,3.018528,-3.275891,3.883750,-0.195701,3.492092,-3.905888,0.261826,-0.139399,0.400333,-0.039427,93.920576,188.420332,1151.817455,27.079838,0
0.076035,182.730135,-121.482679,-56.530682,1.887528,-4.120858,2.931290,1.434908,4.271351,-2.995206,-1.332089,-0.102869,0.399941,-0.061832,114.504776,188.495687,1151.347303,28.635336,0
0.077077,185.395622,-45.445469,-114.427462,0.767838,-4.088905,1.562128,2.703574,4.352218,-1.593511,-2.555988,-0.051727,0.405429,-0.046895,112.197536,188.420218,1151.124437,29.457782,0
0.078118,159.046994,19.332339,-166.661364,-0.227442,-3.698375,0.050098,3.617759,3.966264,-0.124668,-3.520165,-0.044421,0.388509,-0.020755,90.029936,188.495635,1150.543389,30.478458,0
0.079160,104.171976,78.262988,-181.729546,-0.532812,-2.469978,-1.660362,3.938657,2.742239,1.595976,-3.829697,-0.055380,0.385962,-0.050629,51.044367,188.481004,1150.189593,31.636776,0
0.080202,28.937171,133.243182,-187.601705,-0.668532,-1.046317,-3.148581,3.834179,1.260912,3.110982,-3.737193,-0.069992,0.397328,-0.073035,9.695008,188.495164,1149.320278,32.346945,0
0.081252,-37.870157,167.806649,-145.930303,0.134478,0.586811,-3.775617,2.781932,-0.323337,3.811830,-2.740996,-0.088257,0.396675,-0.061832,-29.901301,188.495332,1148.433420,32.603918,0
0.082285,-89.512562,195.701456,-69.136743,1.604778,2.379702,-4.319313,1.483416,-2.179590,4.281859,-1.531328,-0.091910,0.396022,-0.046895,-59.228130,188.511401,1146.691758,32.694904,0
0.083327,-143.287357,168.918092,-4.838447,2.848878,3.331176,-3.791491,0.076689,-3.142637,3.857993,-0.257619,-0.124787,0.400268,-0.043161,-89.324040,188.495575,1146.451533,33.722059,0
0.084369,-183.110876,122.164993,56.406818,3.923328,4.179693,-2.787440,-1.598696,-3.936599,2.888557,1.418127,-0.205153,0.399027,-0.031958,-109.953479,188.495709,1146.323787,34.588722,0
0.085410,-185.991871,46.743910,114.377462,5.088258,4.172592,-1.402404,-2.807660,-4.017465,1.537222,2.666931,-0.179582,0.404383,-0.039427,-105.576509,188.495669,1146.493538,35.418284,0
0.086452,-159.405050,-18.203030,167.116099,6.049608,3.817564,0.093752,-3.766622,-3.649890,0.068380,3.609760,-0.212459,0.409152,-0.058098,-85.851870,188.495676,1146.298571,36.385585,0
0.087494,-105.437433,-77.616916,181.630304,6.400218,2.557216,1.816118,-4.065131,-2.418514,-1.643871,3.855252,-0.238030,0.392690,-0.050629,-46.651411,188.495698,1145.345145,37.655373,0
0.088535,-29.714900,-133.176994,187.576326,6.456768,1.137104,3.232902,-3.949459,-0.944538,-3.129500,3.865925,-0.234377,0.401836,-0.039427,-5.641351,188.495417,1145.403217,38.664367,0
0.089577,36.638728,-166.979363,147.616099,5.687688,-0.471172,3.915499,-2.934526,0.577222,-3.851331,2.908864,-0.161317,0.395891,-0.039427,34.373428,188.630604,1145.026259,39.262745,0
0.090619,89.404041,-195.429892,69.640720,4.228698,-2.292464,4.431414,-1.684517,2.433476,-4.380115,1.588903,-0.190541,0.396022,-0.020755,65.441997,188.495709,1144.174303,39.330204,0
0.091668,143.621193,-167.897512,4.332955,2.984598,-3.265241,3.863907,-0.233015,3.396523,-3.868118,0.272500,-0.121134,0.397459,-0.046895,94.610486,188.495848,1142.965231,40.153742,0
0.092702,182.752820,-121.857187,-56.395265,1.830978,-4.064053,2.887635,1.461027,4.238269,-2.949042,-1.310742,-0.110175,0.394781,-0.050629,115.895906,188.509937,1142.232922,39.967177,0
0.093743,185.792610,-46.424022,-114.427462,0.699978,-4.071154,1.558160,2.614021,4.344866,-1.635478,-2.541757,-0.059033,0.387399,-0.035692,112.593386,188.571348,1142.394167,40.281939,0
0.094785,159.035651,18.329624,-166.944508,-0.238752,-3.712576,0.073909,3.591640,3.885397,-0.128865,-3.470355,-0.059033,0.405755,-0.058098,89.984696,188.495749,1141.148517,39.850092,0
0.095827,105.226829,77.936804,-181.754167,-0.555432,-2.459327,-1.644487,3.912537,2.745915,1.545616,-3.783445,-0.037115,0.404971,-0.035692,53.385537,188.495832,1140.519714,40.134577,0
0.096868,29.776516,133.376072,-187.417046,-0.691152,-1.049867,-3.093021,3.793134,1.268263,3.106785,-3.754983,-0.040768,0.401444,0.001650,10.124788,188.495893,1140.737989,40.139960,0
0.097910,-36.906045,167.287170,-147.259849,0.043998,0.572610,-3.771648,2.781932,-0.315985,3.782453,-2.797922,-0.066339,0.400137,-0.013287,-30.003091,188.495997,1140.978985,40.240818,0
0.098952,-89.705385,195.339029,-69.161364,1.525608,2.354850,-4.299470,1.468490,-2.102400,4.307039,-1.545560,-0.091910,0.395173,-0.065566,-59.963280,188.495957,1140.796173,41.197176,0
0.099993,-143.457494,168.930173,-4.481439,2.803638,3.292123,-3.747837,0.091615,-3.135285,3.853797,-0.254061,-0.132093,0.395956,-0.020755,-89.538930,188.480843,1140.715851,41.296007,0
0.101035,-182.906711,122.068346,56.763826,3.934638,4.129989,-2.759659,-1.617353,-3.896166,2.842394,1.435916,-0.161317,0.393082,-0.035692,-110.032649,188.495807,1139.942311,40.884187,0
0.102084,-185.572199,45.282120,115.448485,5.054328,4.154841,-1.323032,-2.878556,-4.002762,1.482665,2.656257,-0.175929,0.395956,-0.017021,-106.843229,188.361480,1139.417218,40.916637,0
0.103118,-159.450420,-18.637943,166.771402,6.049608,3.753659,0.141375,-3.755428,-3.616809,0.022216,3.570624,-0.197847,0.390861,-0.058098,-86.756670,188.496006,1138.663387,40.457113,0
0.104160,-105.097158,-77.918939,181.876516,6.287118,2.511062,1.847866,-4.053937,-2.411163,-1.690035,3.887272,-0.219765,0.401574,-0.061832,-47.510971,188.495899,1139.261817,40.038646,0
0.105202,-29.590132,-132.995780,187.785607,6.422838,1.130004,3.240839,-3.986773,-0.959241,-3.175664,3.819673,-0.223418,0.401966,-0.058098,-5.143711,188.494455,1139.196526,39.664793,0
0.106244,37.183168,-166.967282,147.271402,5.687688,-0.464071,3.947247,-2.930795,0.613980,-3.859725,2.887517,-0.194194,0.401378,-0.046895,34.724038,188.495826,1139.128674,39.253693,0
0.107285,89.426726,-195.586944,69.025190,4.240008,-2.324417,4.395697,-1.621084,2.492288,-4.359131,1.613808,-0.186888,0.392037,-0.024490,64.096107,188.495870,1139.360018,39.067267,0
0.108341,143.689248,-167.281386,2.720265,2.939358,-3.293643,3.879781,-0.158387,3.451659,-3.876512,0.222690,-0.143052,0.395826,-0.039427,94.474766,188.496067,1139.775147,38.637210,0
0.109378,182.877587,-120.383316,-58.057197,1.774428,-4.113757,2.899541,1.505804,4.275027,-2.949042,-1.413919,-0.117481,0.393801,-0.028224,114.244646,188.495879,1140.474828,38.078532,0
0.110410,185.554417,-45.602520,-114.267425,0.722598,-4.071154,1.534348,2.684917,4.377948,-1.593511,-2.555988,-0.062686,0.403795,-0.043161,112.220156,188.702841,1140.638187,37.743961,0
0.111452,158.967596,19.392743,-166.735228,-0.272682,-3.709025,0.050098,3.632685,3.918479,-0.116275,-3.498818,-0.062686,0.407911,-0.065566,89.690636,188.493065,1141.207472,37.927768,0
