1-Time,2-VGERA,3-VGERB,4-VGERC,5-VN,6-IGERAN,7-IGERBN,8-IGERCN,9-IGERAT,10-IGERBT,11-IGERCT,12-IN,13-IFD,14-IFAULT,15-VFAULT,16-Speed (rad/s),17-Active Power,18-Reactive Power,19-FAULT 
0.000000,152.479686,-177.743449,3.348106,2.995908,-2.665244,6.451424,-3.057662,2.631967,-6.398724,3.044063,-0.205153,0.603625,-0.065566,55.557057,188.721554,1619.609008,865.353190,0
0.001042,186.904175,-129.274862,-68.151894,1.650018,-4.720855,5.919633,-0.591226,4.558060,-5.911908,0.681652,-0.146705,0.598268,-0.043161,66.324177,188.570743,1617.166275,866.741192,0
0.002083,192.961070,-46.544831,-121.001326,0.632118,-5.881796,4.490943,1.808045,5.910736,-4.510212,-1.645179,-0.095563,0.589253,-0.061832,62.965107,188.495332,1614.522904,867.563315,0
0.003125,160.907164,25.264062,-171.474811,-0.363162,-6.400136,2.558243,4.031941,6.333447,-2.642684,-3.783445,-0.069992,0.609569,-0.054364,45.988797,188.721563,1612.135674,868.120572,0
0.004167,111.601314,95.055445,-188.795834,-0.668532,-5.640377,0.038192,5.457325,5.679163,-0.229586,-5.235047,-0.018850,0.609961,-0.054364,22.497928,188.721549,1609.942235,870.129279,0
0.005208,25.591133,144.345533,-191.048675,-0.736392,-4.202514,-2.434236,6.289420,4.164754,2.288430,-6.042678,-0.011544,0.611529,-0.035692,-2.881711,188.570754,1607.417492,871.853818,0
0.006250,-52.082310,173.798777,-159.373485,-0.125652,-2.228559,-4.327250,5.998373,2.257040,4.302843,-5.882575,0.006721,0.615840,-0.046895,-25.196341,188.495347,1605.398681,873.713137,0
0.007292,-106.605710,198.443821,-85.497538,1.265478,0.490954,-5.902778,4.733439,-0.415230,5.784275,-4.672907,-0.088257,0.610745,-0.073035,-40.295191,188.721469,1602.595569,876.701204,0
0.008333,-153.075935,178.389521,-2.856439,2.826258,2.653073,-6.295668,3.005815,-2.672141,6.367616,-3.025624,-0.073645,0.608393,-0.080503,-50.044410,188.721485,1600.304357,879.721744,0
0.009375,-186.536311,129.981338,69.332955,4.172148,4.705134,-5.815469,0.558036,-4.620288,5.851422,-0.691677,-0.099216,0.603951,-0.065566,-61.931220,188.570752,1596.810030,882.423363,0
0.010417,-193.795512,47.674139,121.677652,5.178738,5.922879,-4.378842,-1.792727,-5.980316,4.579824,1.656502,-0.183235,0.593826,-0.054364,-56.592900,188.570745,1595.506528,885.929808,0
0.011458,-161.083740,-24.340129,171.117046,6.128778,6.469622,-2.557262,-4.121102,-6.454488,2.678723,3.816115,-0.212459,0.615057,-0.046895,-40.295191,188.721501,1593.078281,887.598842,0
0.012500,-112.401728,-94.590586,188.487311,6.456768,5.702762,-0.045148,-5.531560,-5.811231,0.236247,5.317527,-0.245336,0.615644,-0.069301,-20.717581,188.796907,1590.939082,889.470285,0
0.013542,-26.334834,-144.327668,190.752463,6.490698,4.268450,2.427280,-6.393506,-4.374013,-2.260785,6.146505,-0.274560,0.616886,-0.058098,7.908028,188.570798,1588.605032,892.126887,0
0.014583,51.610829,-173.817155,159.151137,5.913888,2.312247,4.375854,-6.109922,-2.495705,-4.262607,5.986402,-0.274560,0.621262,-0.084238,30.358378,188.495314,1586.355488,894.008362,0
0.015625,106.939546,-197.580293,84.696591,4.522758,-0.325610,5.935508,-4.904690,0.191269,-5.748237,4.787408,-0.274560,0.608067,-0.043161,46.837047,188.719436,1583.002295,896.141051,0
0.016667,152.819961,-178.287089,3.594318,2.950668,-2.516132,6.332366,-3.162140,2.437152,-6.390331,3.236186,-0.219765,0.609373,-0.073035,55.387407,188.721683,1581.411238,899.748426,0
0.017708,185.735897,-129.794341,-69.382955,1.548228,-4.575293,5.899790,-0.744212,4.429408,-5.945481,0.852429,-0.161317,0.598725,-0.061832,65.690817,188.570785,1579.273784,902.391570,0
0.018750,193.267318,-47.571708,-121.715341,0.609498,-5.757536,4.510786,1.647596,5.767381,-4.615130,-1.534886,-0.102869,0.600881,-0.058098,63.802047,188.570828,1577.549432,904.283077,0
0.019792,160.510176,24.732503,-171.671781,-0.306612,-6.318480,2.613803,3.927463,6.274635,-2.760191,-3.641131,-0.069992,0.614403,-0.050629,45.344127,188.721636,1575.244238,905.938834,0
0.020833,112.145754,95.079607,-188.500379,-0.645912,-5.633276,0.133438,5.360309,5.690191,-0.326109,-5.156774,-0.051727,0.613031,-0.039427,24.556348,188.721663,1573.906078,907.010859,0
0.021875,25.965435,144.647556,-190.433145,-0.702462,-4.191863,-2.335021,6.229718,4.197836,2.233873,-5.992868,0.006721,0.610418,-0.058098,-2.983501,188.570826,1572.798089,907.601121,0
0.022917,-52.104995,174.088719,-159.250379,-0.125652,-2.292464,-4.220098,5.934940,2.286446,4.210515,-5.893248,-0.029809,0.618388,-0.065566,-25.705291,188.703761,1571.778665,908.461530,0
0.023958,-107.297603,197.573996,-85.337500,1.265478,0.409297,-5.779752,4.707319,-0.360094,5.696145,-4.630213,-0.059033,0.606630,-0.058098,-40.080301,188.772014,1569.752051,908.597834,0
0.025000,-153.189360,178.365359,-4.198295,2.792328,2.546565,-6.228202,3.005815,-2.598626,6.275288,-3.046971,-0.099216,0.601012,-0.065566,-50.870040,188.650415,1568.301683,908.404626,0
0.026042,-186.150666,129.582669,69.246781,4.138218,4.623478,-5.799595,0.576693,-4.616613,5.813652,-0.716581,-0.113828,0.597288,-0.091706,-61.037730,188.516360,1567.617497,908.263541,0
0.027083,-193.500607,46.743910,121.788447,5.156118,5.819921,-4.438370,-1.830041,-5.906801,4.567234,1.617366,-0.194194,0.589710,-0.091706,-58.922760,188.650164,1566.027311,908.535318,0
0.028125,-160.550643,-25.463654,170.747728,6.094848,6.402167,-2.569167,-4.057669,-6.395676,2.708099,3.741401,-0.197847,0.599248,-0.043161,-41.392261,188.721838,1564.111469,909.184722,0
0.029167,-111.653123,-95.508735,188.068751,6.434148,5.724064,-0.076897,-5.460664,-5.770798,0.303394,5.228581,-0.263601,0.603559,-0.058098,-19.891951,188.646500,1561.957575,909.964569,0
0.030208,-25.189242,-144.520962,190.186175,6.490698,4.307503,2.431248,-6.333804,-4.348283,-2.202031,6.110927,-0.281866,0.618584,-0.043161,8.303878,188.571006,1560.442582,910.339241,0
0.031250,52.983272,-173.527213,158.720266,5.879958,2.383252,4.276640,-6.106191,-2.499381,-4.145100,5.972170,-0.252642,0.606564,-0.050629,30.030388,188.571122,1558.509343,911.137393,0
0.032292,107.506671,-197.338675,85.804546,4.488828,-0.272356,5.832324,-4.938272,0.147160,-5.718860,4.783850,-0.256295,0.604409,-0.073035,45.739977,188.721913,1558.085126,911.424228,0
0.033333,152.570426,-178.045471,2.683333,2.916738,-2.430925,6.308555,-3.203185,2.385691,-6.277020,3.175703,-0.201500,0.601404,-0.065566,55.319547,188.646543,1555.997364,910.573784,0
0.034375,185.021320,-129.166133,-69.887690,1.604778,-4.482986,5.891853,-0.826302,4.322812,-5.874137,0.902239,-0.183235,0.598791,-0.073035,65.962257,188.571165,1553.534618,910.782597,0
0.035417,193.029125,-45.493792,-121.518372,0.654738,-5.690081,4.542535,1.539386,5.712245,-4.627720,-1.410362,-0.088257,0.595067,-0.050629,63.044277,188.646487,1551.222057,912.372472,0
0.036458,159.954394,26.315101,-170.231440,-0.329232,-6.290078,2.756672,3.737163,6.274635,-2.844125,-3.513049,-0.055380,0.568741,-0.099175,45.626877,188.721824,1548.904625,914.207509,0
0.037500,110.671229,96.191050,-188.217235,-0.679842,-5.640377,0.292181,5.259562,5.653433,-0.418437,-5.053597,-0.044421,0.591278,-0.102909,22.113388,188.646493,1546.236651,915.514369,0
0.038542,24.196005,144.792527,-190.223864,-0.679842,-4.252218,-2.200089,6.162554,4.289730,2.053415,-5.918153,0.017680,0.587097,-0.028224,-3.469831,188.571189,1543.325534,918.227332,0
0.039583,-53.829056,173.750454,-158.450190,-0.103032,-2.377671,-4.136758,5.961060,2.422449,4.055238,-5.875459,-0.018850,0.612313,-0.069301,-25.761841,188.571113,1540.373549,920.818532,0
0.040625,-108.193660,196.583362,-84.906629,1.288098,0.274387,-5.708317,4.793141,-0.216740,5.587031,-4.697812,-0.044421,0.605650,-0.031958,-40.623181,188.721934,1537.959310,923.108659,0
0.041667,-152.758345,178.643220,-2.364015,2.860188,2.450707,-6.180579,3.155069,-2.440569,6.212338,-3.139475,-0.069992,0.601861,-0.080503,-49.806900,188.646397,1535.447398,925.332502,0
0.042708,-184.506004,129.328970,70.957955,4.217388,4.467265,-5.779752,0.748336,-4.396068,5.847226,-0.866011,-0.110175,0.596635,-0.061832,-61.467510,188.568544,1531.861300,928.046367,0
0.043750,-193.716114,46.188188,122.748675,5.201358,5.770218,-4.470119,-1.643472,-5.829610,4.638578,1.478610,-0.161317,0.613815,-0.080503,-56.626830,188.646533,1530.089021,930.469254,0
0.044792,-160.017545,-25.729433,171.055493,6.174018,6.348913,-2.660445,-3.833787,-6.344215,2.842394,3.609760,-0.201500,0.590364,-0.043161,-39.921961,188.721887,1527.787750,932.625272,0
0.045833,-111.210766,-95.810758,188.007198,6.445458,5.745366,-0.207860,-5.374842,-5.800204,0.408312,5.128961,-0.278213,0.601796,-0.065566,-20.457451,188.646438,1525.970624,934.288961,0
0.046875,-24.928364,-144.605529,189.410607,6.502008,4.332355,2.256630,-6.300222,-4.399743,-2.067737,6.007749,-0.263601,0.593238,-0.058098,8.224708,188.573665,1523.271262,935.571879,0
0.047917,53.323547,-173.780912,158.400190,5.925198,2.503962,4.205205,-6.124848,-2.620680,-4.052773,6.014865,-0.248989,0.607218,-0.076769,30.867328,188.646974,1522.167869,937.878215,0
0.048958,108.493469,-195.888966,84.844318,4.522758,-0.112594,5.745016,-4.923347,-0.021925,-5.609746,4.833660,-0.234377,0.612248,-0.065566,47.244207,188.722331,1519.154536,940.290551,0
0.050000,152.853988,-178.335413,2.227841,3.018528,-2.335068,6.292680,-3.330052,2.271743,-6.306397,3.296670,-0.216112,0.607022,-0.073035,55.466577,188.571536,1518.467416,942.918028,0
0.051042,184.340770,-129.456075,-70.934091,1.582158,-4.365827,5.879948,-0.900930,4.245621,-5.865744,0.976954,-0.172276,0.602057,-0.058098,65.215797,188.571413,1517.053484,944.022875,0
0.052083,193.165235,-46.689802,-122.934091,0.609498,-5.658128,4.570315,1.464759,5.701218,-4.703260,-1.403246,-0.139399,0.607544,-0.043161,63.790737,188.722326,1517.651075,945.167104,0
0.053125,159.659489,25.481519,-171.659470,-0.317922,-6.261675,2.808264,3.711043,6.182741,-2.881895,-3.459681,-0.077298,0.615775,-0.076769,45.332817,188.722317,1516.463896,945.413663,0
0.054167,111.476547,96.070241,-187.983334,-0.702462,-5.675880,0.335836,5.244637,5.649757,-0.460404,-5.028692,-0.048074,0.611072,-0.061832,24.748618,188.571527,1516.112368,945.628983,0
0.055208,25.398310,145.263682,-189.534470,-0.725082,-4.301922,-2.152466,6.166285,4.271351,2.028235,-5.889691,-0.015197,0.612182,-0.035692,-2.813851,188.571536,1515.643063,945.294053,0
0.056250,-53.012396,174.100800,-158.413258,-0.103032,-2.391872,-4.101041,5.968522,2.422449,4.034254,-5.886133,-0.018850,0.620283,-0.073035,-25.976731,188.722319,1515.695351,945.266034,0
0.057292,-108.613333,196.233016,-84.869697,1.299408,0.285038,-5.700380,4.778215,-0.209388,5.616408,-4.715601,-0.033462,0.612966,-0.054364,-40.510081,188.722248,1515.959260,945.680736,0
0.058333,-153.688430,178.087498,-2.450189,2.871498,2.440057,-6.196453,3.136412,-2.462623,6.287878,-3.135917,-0.091910,0.606695,-0.050629,-50.994450,188.571462,1516.921993,946.223215,0
0.059375,-185.424746,129.727639,70.871781,4.217388,4.509869,-5.771815,0.740873,-4.432825,5.834636,-0.873127,-0.128440,0.606107,-0.035692,-60.754980,188.496078,1517.637782,946.283382,0
0.060417,-193.160332,47.118418,123.167235,5.201358,5.780868,-4.482025,-1.688249,-5.814907,4.646971,1.478610,-0.154011,0.605323,-0.080503,-58.820970,188.722170,1517.605542,946.173559,0
0.061458,-160.289765,-24.956256,171.412501,6.128778,6.370215,-2.692194,-3.904683,-6.392000,2.850787,3.616876,-0.230724,0.614665,-0.087972,-41.494051,188.646811,1518.461495,946.406286,0
0.062500,-111.982056,-95.979890,187.625569,6.434148,5.688561,-0.199923,-5.382305,-5.829610,0.362148,5.171655,-0.278213,0.613946,-0.069301,-20.366971,188.571542,1519.586770,946.058676,0
0.063542,-26.005902,-145.161250,189.484470,6.445458,4.346556,2.304253,-6.277834,-4.414446,-2.080327,6.029096,-0.285519,0.617212,-0.087972,8.043748,188.496109,1520.375385,946.135687,0
0.064583,52.835819,-173.684265,158.338637,5.846028,2.443607,4.193299,-6.102459,-2.598626,-4.065363,5.975728,-0.274560,0.610288,-0.065566,30.177418,188.722282,1520.247437,945.318359,0
0.065625,108.538839,-196.420526,84.844318,4.545378,-0.172948,5.776764,-4.975586,0.029536,-5.647516,4.830102,-0.248989,0.611072,-0.061832,46.113207,188.646871,1521.225234,944.930714,0
0.066667,153.409771,-177.598478,3.040341,2.939358,-2.345719,6.288712,-3.277812,2.290122,-6.277020,3.253976,-0.205153,0.610876,-0.065566,55.432647,188.571413,1521.022725,944.042382,0
0.067708,185.078032,-129.395671,-70.786364,1.525608,-4.419081,5.875979,-0.848691,4.267675,-5.882531,0.973396,-0.205153,0.601730,-0.046895,65.792607,188.496025,1521.615493,944.269297,0
0.068750,192.564083,-46.665640,-122.983334,0.575568,-5.679430,4.586189,1.449833,5.697542,-4.640310,-1.364110,-0.095563,0.603494,-0.043161,62.874627,188.722244,1520.819486,943.821968,0
0.069792,159.829626,25.723137,-171.437879,-0.351852,-6.268776,2.788421,3.703581,6.182741,-2.886092,-3.438334,-0.088257,0.612901,-0.084238,45.559017,188.646926,1520.555337,944.003763,0
0.070833,111.555944,96.493072,-187.564773,-0.645912,-5.651028,0.288213,5.229711,5.657109,-0.456207,-5.003787,-0.044421,0.614142,-0.065566,22.181248,188.571567,1520.206659,944.122929,0
0.071875,25.092063,145.469057,-189.288258,-0.691152,-4.259318,-2.208026,6.125240,4.260324,2.040825,-5.879017,-0.037115,0.615187,-0.058098,-3.560311,188.496149,1520.029128,943.999729,0
0.072917,-53.670261,173.919586,-158.105493,-0.091722,-2.374121,-4.089135,5.942403,2.448179,4.034254,-5.854112,-0.048074,0.613554,-0.091706,-26.089831,188.722244,1519.411522,944.253131,0
0.073958,-108.976293,196.486715,-84.586553,1.288098,0.270837,-5.640851,4.800603,-0.176306,5.599621,-4.708485,-0.004238,0.606172,-0.076769,-40.883311,188.646893,1518.944724,944.726914,0
0.075000,-153.733800,177.978770,-2.117803,2.826258,2.440057,-6.236139,3.128950,-2.440569,6.224928,-3.135917,-0.117481,0.605323,-0.080503,-49.942620,188.571424,1517.949880,944.625453,0
0.076043,-185.390719,128.724924,71.401137,4.160838,4.474366,-5.744035,0.699828,-4.385040,5.817849,-0.844664,-0.128440,0.597288,-0.076769,-61.467510,188.496172,1516.958376,944.549349,0
0.077083,-193.262414,45.753276,123.548864,5.212668,5.745366,-4.489962,-1.613621,-5.833286,4.625988,1.453705,-0.175929,0.590168,-0.031958,-56.423250,188.722377,1516.570337,945.086875,0
0.078134,-159.677270,-28.435556,172.138826,6.174018,6.341812,-2.636633,-3.908414,-6.340539,2.825607,3.631107,-0.205153,0.605911,-0.061832,-39.673141,188.646862,1515.575180,945.786555,0
0.079179,-109.645500,-98.480637,187.379357,6.422838,5.670810,-0.144363,-5.386036,-5.759771,0.328575,5.185886,-0.248989,0.584942,-0.017021,-19.484791,188.571533,1514.513647,945.979761,0
0.080209,-23.918882,-145.547839,189.225948,6.490698,4.335905,2.280442,-6.318879,-4.377689,-2.092917,6.025538,-0.270907,0.593630,-0.084238,8.925928,188.496136,1513.896238,946.134840,0
0.081250,54.423769,-173.901721,158.018561,5.902578,2.457808,4.177425,-6.080071,-2.547165,-4.077953,6.000633,-0.263601,0.604866,-0.039427,31.285798,188.722284,1514.110906,946.352556,0
0.082291,109.117307,-196.758791,83.551705,4.488828,-0.172948,5.796607,-4.964392,0.025860,-5.651713,4.805197,-0.256295,0.609635,-0.076769,47.334687,188.646942,1513.728547,946.689321,0
0.083333,153.375744,-177.465588,1.353788,2.939358,-2.342168,6.300617,-3.285275,2.312176,-6.289610,3.250418,-0.223418,0.602318,-0.069301,55.364787,188.571455,1513.696915,947.103921,0
0.084375,184.907895,-127.958043,-71.709659,1.536918,-4.415531,5.879948,-0.852422,4.293406,-5.848957,0.934259,-0.179582,0.599117,-0.054364,65.340207,188.496139,1513.273865,946.761039,0
0.085416,192.518713,-44.418592,-123.611175,0.598188,-5.704282,4.613969,1.543118,5.726948,-4.673883,-1.396130,-0.132093,0.575796,-0.039427,63.553227,188.722257,1513.372881,947.739092,0
0.086458,159.273844,28.115156,-172.114963,-0.363162,-6.307829,2.768578,3.793134,6.179065,-2.865109,-3.552185,-0.069992,0.626880,-0.050629,45.016137,188.646907,1514.139746,947.899239,0
0.087500,109.763829,97.773648,-187.687879,-0.657222,-5.647477,0.240590,5.293144,5.657109,-0.426830,-5.067828,-0.044421,0.614403,-0.058098,24.036088,188.571391,1514.457440,948.332985,0
0.088541,22.823563,146.024779,-189.312879,-0.657222,-4.241567,-2.223901,6.211061,4.249297,2.120562,-5.950174,-0.000585,0.612248,-0.065566,-3.616861,188.496024,1515.468806,948.718286,0
0.089583,-55.167471,174.124962,-157.834660,-0.057792,-2.363470,-4.140727,5.998373,2.359961,4.113992,-5.861228,-0.011544,0.618519,-0.039427,-26.361271,188.722482,1516.435065,948.101189,0
0.090625,-109.135088,197.658563,-83.404735,1.378578,0.345392,-5.767846,4.770753,-0.271876,5.670965,-4.665791,-0.044421,0.606042,-0.046895,-40.566631,188.571482,1517.788749,947.324004,0
0.091666,-154.051390,177.084783,-1.243750,2.871498,2.525263,-6.232170,3.095367,-2.525111,6.308862,-3.089665,-0.066339,0.607609,-0.035692,-50.994450,188.571449,1519.037515,947.093149,0
0.092708,-186.320804,127.927585,71.585796,4.240008,4.570223,-5.839281,0.647589,-4.543098,5.876602,-0.780623,-0.139399,0.597811,-0.050629,-60.868080,188.571438,1521.564137,947.029514,0
0.093750,-192.536494,44.738480,123.598106,5.178738,5.837673,-4.438370,-1.747951,-5.884746,4.617595,1.610250,-0.183235,0.579585,-0.020755,-58.538220,188.716907,1522.857096,945.824876,0
0.094791,-159.938148,-27.626135,171.843372,6.151398,6.409268,-2.636633,-3.971847,-6.414054,2.796230,3.723611,-0.227071,0.606695,-0.058098,-41.392261,188.559565,1524.806570,945.122088,0
0.095833,-110.008461,-97.671217,187.600948,6.456768,5.699212,-0.084834,-5.497978,-5.800204,0.299198,5.235696,-0.252642,0.609700,-0.050629,-19.654441,188.571449,1526.063778,944.861213,0
0.096875,-23.329072,-146.031075,189.718372,6.502008,4.343006,2.355845,-6.382312,-4.407095,-2.160064,6.089579,-0.248989,0.617343,-0.073035,8.609248,188.571440,1527.580128,945.332812,0
0.097916,54.764044,-173.756750,157.784660,5.891268,2.411654,4.308388,-6.158430,-2.517759,-4.153493,5.993518,-0.230724,0.626619,-0.065566,30.505408,188.722367,1528.302138,944.782334,0
0.098958,108.822402,-198.184338,82.529924,4.488828,-0.290107,5.883916,-4.960660,0.128781,-5.744040,4.819428,-0.248989,0.614011,-0.054364,46.226307,188.571400,1530.402495,944.421892,0
0.100000,154.044951,-176.269578,1.353788,2.916738,-2.434475,6.391895,-3.229305,2.382016,-6.314790,3.239744,-0.216112,0.611464,-0.061832,55.715397,188.571507,1531.008650,944.211592,0
0.101041,186.450475,-127.909719,-71.229546,1.593468,-4.518489,5.919633,-0.800183,4.392651,-5.941284,0.877334,-0.179582,0.605127,-0.102909,65.984877,188.571456,1533.551264,944.486936,0
0.102083,191.815478,-45.034718,-124.029735,0.609498,-5.753986,4.538566,1.591625,5.749003,-4.623523,-1.453056,-0.102869,0.607087,-0.039427,62.591877,188.722360,1534.069895,943.333828,0
0.103125,159.897681,27.438625,-172.705872,-0.351852,-6.361083,2.744766,3.830447,6.241553,-2.860912,-3.601995,-0.059033,0.608851,-0.054364,45.615567,188.571531,1535.728203,943.394521,0
0.104166,110.319612,97.821972,-187.577084,-0.645912,-5.647477,0.216778,5.345383,5.690191,-0.368076,-5.114080,-0.026156,0.614730,-0.054364,22.056838,188.571476,1537.009959,942.991069,0
0.105208,23.696935,146.375125,-189.817614,-0.713772,-4.262869,-2.295335,6.252106,4.252972,2.154136,-6.010657,-0.026156,0.620348,-0.076769,-3.594241,188.496100,1538.506306,942.937877,0
0.106250,-54.452893,174.028314,-157.933144,-0.091722,-2.320867,-4.224067,6.017030,2.330555,4.168549,-5.896806,-0.015197,0.624921,-0.058098,-26.123761,188.722299,1539.660082,942.403544,0
0.107291,-108.874210,198.274689,-82.776894,1.310718,0.373795,-5.819438,4.804335,-0.323337,5.754898,-4.719159,-0.037115,0.612966,-0.095440,-40.962481,188.571413,1541.339520,942.749478,0
0.108333,-154.845365,176.468657,-1.440720,2.848878,2.557216,-6.303605,3.054322,-2.576571,6.342435,-3.075434,-0.073645,0.608328,-0.061832,-50.361090,188.571389,1542.130370,942.655020,0
0.109375,-187.194176,128.108798,71.413447,4.206078,4.637679,-5.839281,0.625201,-4.598234,5.905979,-0.730813,-0.128440,0.606042,-0.039427,-61.716330,188.571447,1543.531069,942.401732,0
0.110416,-192.434412,45.620386,123.893561,5.190048,5.862525,-4.493931,-1.800190,-5.910477,4.584021,1.603135,-0.175929,0.608459,-0.050629,-56.038710,188.722136,1543.912384,942.006976,0
