1-Time,2-VGERA,3-VGERB,4-VGERC,5-VN,6-IGERAN,7-IGERBN,8-IGERCN,9-IGERAT,10-IGERBT,11-IGERCT,12-IN,13-IFD,14-IFAULT,15-VFAULT,16-Speed (rad/s),17-Active Power,18-Reactive Power,19-FAULT 
0.000000,-90.345802,-114.444787,175.718187,3.658281,4.856710,-0.787197,-3.879589,-4.611260,0.890678,3.864716,-0.192949,0.568790,-0.097156,73.984920,188.495740,986.136516,1015.547603,0
0.001042,-5.121765,-153.837550,175.985524,3.703318,4.093459,1.055210,-4.795544,-3.856844,-0.969416,4.837460,-0.233057,0.569410,-0.078573,5.883314,188.570975,982.680762,1016.733963,0
0.002083,70.011439,-168.471833,136.018676,2.836352,2.482561,2.797049,-4.750125,-2.453195,-2.618135,4.863955,-0.229410,0.604825,-0.086006,-59.831527,188.495745,979.974910,1018.950604,0
0.003125,125.109875,-187.592709,51.601013,1.271309,0.523062,4.434297,-4.322427,-0.512750,-4.309130,4.470316,-0.258580,0.601862,-0.078573,-127.865583,188.571163,976.545152,1020.850943,0
0.004167,164.761313,-156.010377,-20.446249,-0.113585,-1.179573,5.037706,-3.217225,1.064995,-4.951708,3.380237,-0.214826,0.599037,-0.071140,-165.806136,188.495665,974.556391,1023.086038,0
0.005208,182.852493,-107.198115,-91.424163,-1.475960,-3.238147,4.981387,-1.203638,3.034456,-4.955935,1.340125,-0.152841,0.582156,-0.104590,-181.714149,188.571180,972.003013,1024.800836,0
0.006250,179.530315,-25.758215,-142.303212,-2.433000,-4.324311,4.213047,0.518509,4.224112,-4.292220,-0.351768,-0.112733,0.568308,-0.089723,-168.744559,188.495736,970.420146,1027.295178,0
0.007292,150.636406,46.638027,-174.723873,-3.063521,-5.065545,2.893594,2.418547,4.884226,-2.956334,-2.323750,-0.105440,0.579332,-0.074856,-135.870251,188.571216,967.886794,1029.022062,0
0.008333,90.916301,114.242305,-175.562338,-3.063521,-4.830699,0.821892,3.985512,4.695622,-0.935596,-3.996718,-0.047102,0.563209,-0.063706,-73.228933,188.495828,965.810072,1029.844440,0
0.009375,4.946469,153.588089,-175.781068,-3.063521,-4.104143,-1.020514,4.935531,3.923071,0.975228,-4.916472,0.000299,0.574164,-0.123173,-5.026003,188.571082,963.345175,1030.744929,0
0.010417,-70.616132,168.375056,-135.729158,-2.297889,-2.540948,-2.738217,4.946886,2.523049,2.611265,-4.999742,0.000299,0.598692,-0.063706,60.587513,188.495750,961.524621,1032.572878,0
0.011458,-125.364270,187.343248,-51.360101,-0.710327,-0.563102,-4.395578,4.504048,0.593485,4.281123,-4.609887,-0.014286,0.600277,-0.082290,128.295078,188.571143,959.685159,1033.875532,0
0.012500,-164.710610,156.066286,20.444127,0.629529,1.128525,-4.970828,3.349642,-1.060427,4.936383,-3.497099,-0.025225,0.600622,-0.104590,166.111790,188.495723,958.922150,1034.486000,0
0.013542,-182.666191,107.571139,91.409889,2.003164,3.168752,-4.938646,1.426894,-2.931959,4.949065,-1.528901,-0.072625,0.580434,-0.097156,182.211194,188.570941,956.860835,1035.774308,0
0.014583,-179.253614,26.671510,142.811461,2.993982,4.328306,-4.250760,-0.329318,-4.092599,4.310715,0.212196,-0.145548,0.588426,-0.071140,169.466771,188.495805,956.717375,1036.898203,0
0.015625,-150.789102,-45.478087,175.134907,3.635763,5.021836,-2.899126,-2.165012,-4.799864,3.008649,2.123619,-0.192949,0.596350,-0.071140,136.851404,188.571149,955.172931,1037.622493,0
0.016667,-91.261095,-114.209886,175.377941,3.647022,4.834693,-0.827424,-3.800106,-4.585871,0.983683,3.789017,-0.203887,0.565138,-0.097156,73.714720,188.495696,953.729327,1037.948685,0
0.017708,-5.313863,-153.661375,175.839704,3.635763,4.104468,0.950620,-4.723630,-3.882233,-0.846818,4.773115,-0.273164,0.580296,-0.074856,5.387948,188.495613,951.860971,1038.557793,0
0.018750,71.130131,-167.978543,136.152344,2.903908,2.555950,2.688436,-4.708491,-2.474957,-2.537813,4.826105,-0.222118,0.555837,-0.082290,-60.045435,188.495805,950.354145,1038.776603,0
0.019792,125.437573,-187.146399,51.418738,1.327606,0.647824,4.357865,-4.379201,-0.625187,-4.216125,4.496811,-0.225764,0.593112,-0.078573,-127.786774,188.571143,948.331452,1039.877779,0
0.020833,164.072017,-156.315748,-20.616372,-0.057288,-0.999769,4.989433,-3.323203,0.916288,-4.896750,3.467292,-0.189302,0.599657,-0.100873,-165.535937,188.495765,946.149612,1041.164943,0
0.021875,182.423096,-107.820601,-90.889490,-1.397145,-3.128063,4.997478,-1.336111,2.932900,-4.909433,1.438535,-0.152841,0.591389,-0.063706,-181.984349,188.571190,944.300227,1041.514309,0
0.022917,179.598115,-27.566947,-142.363971,-2.410482,-4.287617,4.337752,0.412530,4.111675,-4.359860,-0.245788,-0.112733,0.590700,-0.112023,-169.577675,188.571035,942.721771,1042.386354,0
0.023958,150.523407,44.148085,-175.562338,-3.097299,-5.014172,2.982094,2.267150,4.793551,-3.078931,-2.191275,-0.068979,0.594558,-0.082290,-136.669592,188.571132,940.654029,1043.130125,0
0.025000,93.029387,113.619819,-174.979058,-3.142336,-4.838038,0.950620,3.917383,4.757281,-1.104695,-3.864243,-0.021578,0.585326,-0.108307,-74.152116,188.495617,938.814721,1044.799538,0
0.026042,6.709257,153.705539,-175.416518,-3.097299,-4.137168,-0.907878,4.878757,3.944833,0.810356,-4.844557,0.011237,0.603102,-0.089723,-5.093553,188.571096,936.786852,1045.381134,0
0.027083,-70.650032,167.576396,-136.640533,-2.342926,-2.610668,-2.617535,4.890112,2.620978,2.488668,-4.958107,-0.039809,0.561555,-0.097156,60.486188,188.495651,934.840508,1046.129251,0
0.028125,-125.703268,186.838212,-51.153523,-0.676550,-0.731898,-4.290988,4.530543,0.713176,4.171208,-4.598532,-0.032517,0.588495,-0.089723,128.486469,188.571138,932.413116,1046.827195,0
0.029167,-163.456318,156.782731,21.440564,0.719604,0.952391,-4.910487,3.512394,-0.860942,4.864516,-3.625789,-0.076271,0.596281,-0.097156,165.661457,188.495667,929.406752,1048.821813,0
0.030208,-181.988196,107.277514,91.324828,2.003164,3.036651,-4.986919,1.601001,-2.844911,4.936383,-1.684086,-0.090856,0.584499,-0.100873,182.312519,188.571134,927.260061,1050.213181,0
0.031250,-179.660411,27.047350,142.398304,2.960204,4.247577,-4.335238,-0.124931,-4.041821,4.416402,0.064582,-0.123671,0.583190,-0.071140,169.939620,188.495667,925.773704,1052.224712,0
0.032292,-150.088507,-43.446201,176.070586,3.635763,5.018166,-2.995671,-2.024970,-4.803491,3.148156,2.028994,-0.185656,0.597246,-0.071140,137.785845,188.571257,924.689030,1053.887194,0
0.033333,-93.735779,-113.340756,174.721750,3.624503,4.867718,-1.028560,-3.713052,-4.683800,1.161238,3.701962,-0.189302,0.594765,-0.097156,75.380952,188.495785,923.638265,1055.957403,0
0.034375,-7.528649,-153.978491,175.195666,3.669540,4.177857,0.821892,-4.681996,-3.991043,-0.707311,4.701200,-0.247641,0.596832,-0.089723,5.939606,188.646585,921.976029,1057.370246,0
0.035417,70.067938,-167.626192,137.501180,2.903908,2.695390,2.575799,-4.704706,-2.623664,-2.398306,4.818535,-0.214826,0.584844,-0.082290,-59.448744,188.495805,920.298893,1058.868542,0
0.036458,126.070368,-186.265523,52.196445,1.237532,0.699197,4.237184,-4.432190,-0.755759,-4.101983,4.515736,-0.222118,0.589735,-0.067423,-127.876841,188.571180,918.022084,1059.880987,0
0.037500,163.439221,-157.114408,-21.321169,-0.113585,-0.937388,4.961274,-3.391332,0.854629,-4.884068,3.580842,-0.182010,0.594421,-0.100873,-165.119379,188.495788,917.190079,1061.493750,0
0.038542,181.609501,-106.939725,-91.229736,-1.475960,-3.017979,5.021615,-1.506433,2.824090,-4.934798,1.548300,-0.185656,0.584223,-0.086006,-181.443949,188.646402,915.017249,1062.918450,0
0.039583,179.925812,-26.298486,-141.780691,-2.433000,-4.210558,4.406138,0.227068,4.075405,-4.414817,-0.120883,-0.109087,0.566516,-0.119457,-169.273700,188.495685,913.329810,1064.435075,0
0.040625,149.596813,43.960164,-175.781068,-3.029743,-5.043528,3.066572,2.161172,4.800805,-3.214211,-2.100436,-0.094502,0.588082,-0.071140,-137.119925,188.571075,911.823806,1066.315912,0
0.041667,93.729982,113.220489,-174.687418,-3.074780,-4.911427,1.079347,3.841684,4.706503,-1.172335,-3.833963,-0.068979,0.586359,-0.063706,-75.424306,188.495613,910.921967,1066.159936,0
0.042708,8.449446,153.787754,-174.723873,-3.097299,-4.177533,-0.767083,4.840908,4.017373,0.696214,-4.852127,-0.010640,0.598624,-0.063706,-6.073027,188.646489,910.175363,1067.418270,0
0.043750,-69.214941,167.658611,-137.406089,-2.410482,-2.698735,-2.553172,4.916606,2.668129,2.404119,-4.939182,-0.025225,0.598141,-0.108307,59.754397,188.495770,909.377252,1067.596858,0
0.044792,-126.076165,185.851631,-53.024881,-0.800402,-0.750245,-4.222601,4.549467,0.789343,4.124706,-4.640167,-0.050748,0.594558,-0.082290,128.148719,188.571145,908.677523,1068.305855,0
0.045833,-163.603217,157.064612,21.100317,0.640789,0.904687,-4.866237,3.535104,-0.824672,4.843378,-3.701488,-0.068979,0.593249,-0.078573,165.627682,188.495745,908.189126,1069.234289,0
0.046875,-181.603998,107.336239,91.543558,2.014423,2.999956,-4.958760,1.627495,-2.761490,4.911018,-1.684086,-0.083563,0.582225,-0.089723,181.873445,188.646513,906.973425,1069.022019,0
0.047917,-179.739511,25.790634,142.082360,3.005242,4.199874,-4.383510,-0.041662,-4.012805,4.399492,0.015377,-0.120025,0.595592,-0.063706,169.309154,188.495741,905.845664,1069.208101,0
0.048958,-149.523510,-44.679427,175.608822,3.624503,5.029175,-3.072103,-2.006045,-4.698308,3.135474,1.964649,-0.171072,0.566241,-0.086006,137.234187,188.571165,903.751980,1068.625543,0
0.050000,-92.515387,-113.763576,174.636689,3.624503,4.886065,-1.072810,-3.660063,-4.647530,1.190830,3.701962,-0.218472,0.578711,-0.063706,75.347177,188.495834,902.949395,1068.708125,0
0.051042,-7.460849,-153.931511,174.831115,3.624503,4.199874,0.801779,-4.625222,-3.980162,-0.673491,4.674705,-0.207533,0.591182,-0.108307,6.660138,188.646485,902.205414,1068.603539,0
0.052083,69.525542,-167.473507,137.865730,2.915167,2.713737,2.523504,-4.734985,-2.685323,-2.385623,4.841245,-0.233057,0.594627,-0.074856,-58.795761,188.495598,902.181929,1069.342646,0
0.053125,126.059068,-185.502098,54.092105,1.338865,0.779925,4.253275,-4.454900,-0.813791,-4.135803,4.542231,-0.207533,0.601517,-0.089723,-127.336441,188.571046,902.563906,1069.848647,0
0.054167,163.857319,-156.996958,-19.984485,-0.147362,-0.860329,4.929092,-3.398902,0.774835,-4.824883,3.512712,-0.196595,0.599519,-0.093440,-165.108120,188.495741,901.498779,1068.882348,0
0.055208,181.654701,-107.844091,-90.853035,-1.453441,-2.926242,4.993456,-1.453444,2.744296,-4.934798,1.605074,-0.156487,0.584223,-0.086006,-181.488983,188.571047,900.584935,1069.406969,0
0.056250,179.745014,-26.639091,-141.707781,-2.421741,-4.177533,4.386024,0.223283,3.999238,-4.414817,-0.132238,-0.101794,0.578643,-0.086006,-168.980984,188.495743,899.878160,1068.926919,0
0.057292,149.393414,44.512180,-175.440821,-3.097299,-4.973808,3.098753,2.146032,4.750027,-3.150799,-2.043661,-0.094502,0.584912,-0.086006,-136.208001,188.571096,898.739534,1068.050728,0
0.058333,92.464390,113.772504,-174.480839,-3.029743,-4.845377,1.071301,3.830329,4.713757,-1.210382,-3.765833,-0.036163,0.555354,-0.089723,-74.534899,188.495698,897.260033,1068.624816,0
0.059375,6.799657,153.729029,-174.808934,-3.063521,-4.162855,-0.746969,4.806843,3.999238,0.675077,-4.768857,0.003945,0.587944,-0.097156,-5.825344,188.646458,895.776571,1068.365256,0
0.060417,-70.017236,167.188810,-137.746336,-2.387963,-2.731760,-2.484785,4.874972,2.671756,2.357616,-4.999742,0.007591,0.586911,-0.093440,59.191481,188.495799,895.595372,1069.109948,0
0.061458,-126.211764,185.252636,-54.069924,-0.755365,-0.819965,-4.186397,4.583532,0.807478,4.099341,-4.651522,-0.032517,0.598968,-0.082290,127.754678,188.571122,895.351598,1069.125646,0
0.062500,-163.829216,156.994142,19.569206,0.629529,0.838637,-4.850146,3.618373,-0.737624,4.864516,-3.735553,-0.065333,0.596074,-0.089723,165.357482,188.495731,894.920932,1069.835027,0
0.063542,-181.716998,108.205370,90.765851,1.980645,2.988948,-4.978873,1.619925,-2.717966,4.906791,-1.729506,-0.098148,0.584981,-0.100873,182.132386,188.646413,894.516851,1070.069623,0
0.064583,-179.942909,27.270505,142.045905,2.948945,4.174188,-4.339260,-0.037877,-3.940265,4.429085,-0.014903,-0.098148,0.571339,-0.071140,169.568096,188.495740,893.945762,1070.154801,0
0.065625,-149.399211,-43.869021,175.973373,3.635763,4.941107,-3.027853,-1.934131,-4.672919,3.148156,1.896519,-0.141902,0.585050,-0.115740,136.862663,188.571129,893.090788,1070.245942,0
0.066667,-92.650986,-113.751831,174.636689,3.624503,4.838362,-1.076833,-3.625998,-4.600379,1.186603,3.595982,-0.196595,0.574577,-0.071140,74.705452,188.495749,891.667280,1069.599724,0
0.067708,-6.127458,-153.884530,174.989087,3.669540,4.221891,0.781665,-4.579803,-3.907622,-0.652354,4.644425,-0.218472,0.558386,-0.059989,5.793247,188.646634,890.798628,1068.937682,0
0.068750,70.655535,-167.285587,137.877882,2.937686,2.702729,2.475231,-4.697136,-2.688950,-2.339121,4.841245,-0.214826,0.600484,-0.074856,-58.908344,188.495712,890.041408,1069.300717,0
0.069792,126.352866,-185.302432,53.642494,1.361384,0.783595,4.196957,-4.443545,-0.802910,-4.030116,4.523306,-0.247641,0.594558,-0.086006,-127.268891,188.571031,888.665704,1068.830936,0
0.070833,163.620020,-157.255348,-19.547025,-0.046029,-0.849321,4.884842,-3.482171,0.796597,-4.850248,3.595982,-0.207533,0.602206,-0.078573,-165.074345,188.495763,889.222947,1069.716410,0
0.071875,181.620801,-108.454831,-90.208996,-1.453441,-2.970276,4.977365,-1.461014,2.802328,-4.964390,1.639139,-0.138256,0.573682,-0.112023,-181.804216,188.646498,890.170679,1070.097778,0
0.072917,180.016212,-28.447823,-141.914359,-2.399222,-4.195880,4.361888,0.219498,4.010119,-4.393679,-0.083033,-0.116379,0.586911,-0.078573,-169.656484,188.495685,890.372999,1070.103174,0
0.073958,149.709812,42.997074,-176.011950,-3.086040,-4.984817,3.066572,2.180096,4.731892,-3.159253,-2.051231,-0.050748,0.588702,-0.063706,-136.804692,188.495584,890.730968,1069.835442,0
0.075000,93.515283,113.255724,-174.723873,-3.119818,-4.845377,1.051188,3.769770,4.666606,-1.168107,-3.773403,-0.039809,0.588702,-0.100873,-74.613707,188.495700,891.257419,1068.773457,0
0.076042,7.183854,153.752519,-174.979058,-3.074780,-4.173863,-0.791219,4.780349,3.991984,0.708897,-4.806707,0.007591,0.564863,-0.097156,-5.375011,188.571071,892.125437,1068.640440,0
0.077083,-70.435333,167.458946,-137.308875,-2.365445,-2.673049,-2.512944,4.833338,2.653621,2.387209,-4.935397,-0.010640,0.589460,-0.108307,59.979564,188.495850,891.873705,1067.981442,0
0.078125,-126.132665,185.875121,-52.587420,-0.732846,-0.783270,-4.210533,4.587317,0.749446,4.133161,-4.643952,-0.014286,0.587668,-0.086006,128.069911,188.571031,892.415026,1067.745365,0
0.079167,-163.388519,157.146827,20.589947,0.663307,0.890009,-4.894396,3.538889,-0.813791,4.839151,-3.648498,-0.054394,0.593801,-0.097156,165.503841,188.495758,892.859497,1066.269699,0
0.080208,-181.615298,107.899999,90.850912,2.025683,2.988948,-4.946691,1.608571,-2.757863,4.902563,-1.684086,-0.083563,0.584844,-0.141757,182.154903,188.571203,893.424994,1065.732227,0
0.081250,-179.773411,28.057421,142.301090,2.982723,4.159510,-4.319147,-0.102221,-4.027313,4.403720,0.030517,-0.094502,0.588702,-0.086006,170.209820,188.495761,894.930139,1065.354158,0
0.082292,-150.020707,-42.647540,176.155648,3.579466,4.963124,-2.999694,-2.006045,-4.716443,3.143929,1.979789,-0.163779,0.592836,-0.074856,137.875912,188.571118,896.700858,1065.124180,0
0.083333,-93.893978,-113.082365,174.636689,3.692059,4.809006,-0.956151,-3.671418,-4.643903,1.110508,3.660327,-0.192949,0.582570,-0.074856,75.425985,188.495756,898.607090,1064.641477,0
0.084375,-7.856347,-153.814060,175.244272,3.635763,4.133823,0.850052,-4.606297,-3.951146,-0.749586,4.621715,-0.236703,0.593801,-0.078573,6.277355,188.571138,899.851233,1064.140974,0
0.085417,70.135738,-167.426527,137.683455,2.926427,2.629340,2.571777,-4.678211,-2.565632,-2.377168,4.810965,-0.236703,0.586704,-0.089723,-59.246094,188.495807,900.565193,1062.315281,0
0.086458,125.776570,-186.089348,52.791877,1.293828,0.739561,4.261320,-4.367846,-0.719489,-4.097755,4.462746,-0.229410,0.585670,-0.126890,-127.437766,188.571055,901.744830,1061.146195,0
0.087500,163.235823,-157.161388,-20.895861,-0.057288,-0.922710,4.876797,-3.330773,0.854629,-4.812201,3.463507,-0.203887,0.587737,-0.074856,-165.006795,188.495709,901.777307,1059.218709,0
0.088542,181.553002,-107.656171,-90.622153,-1.385885,-3.006971,4.969319,-1.415595,2.878495,-4.913660,1.529375,-0.182010,0.564931,-0.100873,-181.522758,188.571053,902.640967,1057.647372,0
0.089583,179.858013,-27.155872,-141.865752,-2.410482,-4.221566,4.365911,0.253563,4.017373,-4.372542,-0.170088,-0.105440,0.580434,-0.119457,-169.712775,188.495685,903.068739,1056.931554,0
0.090625,149.981010,42.973584,-175.999798,-3.029743,-4.984817,3.038412,2.206591,4.753654,-3.121206,-2.108006,-0.079917,0.584637,-0.089723,-137.581517,188.571174,904.076474,1056.468793,0
0.091667,94.362778,112.774179,-174.602356,-3.097299,-4.856385,1.010960,3.860609,4.641217,-1.108923,-3.796113,-0.021578,0.590218,-0.089723,-75.671990,188.495617,904.859230,1055.431777,0
0.092708,8.856243,153.611579,-174.893996,-3.176114,-4.111482,-0.855583,4.799273,3.962968,0.742716,-4.818062,-0.014286,0.589046,-0.093440,-6.298193,188.495651,905.664665,1054.599604,0
0.093750,-69.192341,167.259280,-137.564060,-2.466778,-2.647362,-2.565240,4.821983,2.573827,2.421029,-4.927827,-0.003348,0.585946,-0.074856,59.371614,188.495667,906.540136,1053.195677,0
0.094792,-125.771067,186.074787,-52.951970,-0.811661,-0.687864,-4.214556,4.522973,0.731311,4.158525,-4.587177,-0.032517,0.588082,-0.086006,128.092428,188.571176,906.934103,1052.343706,0
0.095833,-163.298119,157.311257,20.990952,0.674567,0.945052,-4.870260,3.444266,-0.871823,4.834923,-3.584154,-0.039809,0.583948,-0.086006,165.379999,188.495799,907.527183,1051.329942,0
0.096875,-181.649198,107.242279,91.130401,2.014423,3.036651,-4.890373,1.529087,-2.794133,4.915245,-1.604601,-0.083563,0.566378,-0.126890,181.805895,188.571084,908.231749,1050.707248,0
0.097917,-179.976809,26.248689,141.815023,3.005242,4.240238,-4.311101,-0.121146,-4.009178,4.357217,0.057012,-0.109087,0.580985,-0.078573,169.703196,188.495807,907.726985,1050.076558,0
0.098958,-149.704309,-44.009961,175.912614,3.590725,4.966794,-2.995671,-2.059034,-4.709189,3.063606,2.036564,-0.149195,0.572097,-0.093440,137.729554,188.495747,908.116904,1049.161518,0
0.100000,-93.182083,-113.117600,174.721750,3.635763,4.856710,-0.984310,-3.728192,-4.611260,1.089370,3.675467,-0.196595,0.584844,-0.071140,76.000160,188.495700,908.070804,1048.703697,0
0.101042,-8.093645,-153.849295,175.195666,3.647022,4.104468,0.902347,-4.700921,-3.936638,-0.745359,4.697415,-0.214826,0.581261,-0.093440,6.907822,188.570989,908.857109,1048.928797,0
0.102083,68.847547,-167.626192,138.048005,2.881389,2.636679,2.612004,-4.655502,-2.623664,-2.419443,4.822320,-0.251287,0.597383,-0.052556,-58.480528,188.495712,909.562379,1049.321852,0
0.103125,125.482772,-186.101093,53.678949,1.316347,0.636816,4.309593,-4.352707,-0.683219,-4.161168,4.462746,-0.200241,0.591182,-0.093440,-127.313925,188.495765,910.830581,1048.954638,0
0.104167,163.676520,-157.267093,-20.142457,-0.113585,-0.988761,4.884842,-3.296709,0.909034,-4.850248,3.444582,-0.229410,0.590080,-0.100873,-164.984279,188.495723,912.005248,1048.659561,0
0.105208,181.948499,-107.656171,-90.610001,-1.509738,-3.091369,4.957251,-1.302047,2.900257,-4.930570,1.412040,-0.152841,0.581054,-0.108307,-181.365141,188.420405,913.063555,1047.666861,0
0.106250,180.140511,-26.298486,-141.501202,-2.523075,-4.254591,4.293502,0.382251,4.104421,-4.326040,-0.283638,-0.112733,0.581674,-0.082290,-169.003501,188.495557,914.799717,1046.660771,0
0.107292,149.845411,44.876275,-175.343608,-3.074780,-5.017842,2.974049,2.301214,4.808059,-3.023974,-2.202630,-0.090856,0.537923,-0.112023,-136.635817,188.495718,916.107401,1045.923681,0
0.108333,92.622589,113.314449,-175.003361,-3.041003,-4.852716,0.902347,3.962802,4.662979,-1.024373,-3.905878,-0.047102,0.585464,-0.093440,-74.973973,188.495712,917.617046,1045.814532,0
0.109375,7.206454,153.576344,-175.380063,-3.063521,-4.089465,-0.952128,4.863617,3.908563,0.831494,-4.874837,-0.010640,0.574302,-0.108307,-6.399518,188.420296,918.773601,1045.248062,0
0.110417,-69.068042,167.917001,-137.491150,-2.309148,-2.595990,-2.677876,4.909036,2.548438,2.573218,-4.969462,-0.032517,0.590356,-0.063706,59.045123,188.495792,921.030363,1045.177134,0
