1-Time,2-VGERA,3-VGERB,4-VGERC,5-VN,6-IGERAN,7-IGERBN,8-IGERCN,9-IGERAT,10-IGERBT,11-IGERCT,12-IN,13-IFD,14-IFAULT,15-VFAULT,16-Speed (rad/s),17-Active Power,18-Reactive Power,19-FAULT 
0.000000,130.259727,-190.247184,25.617993,3.425688,-3.261690,4.284577,-0.404658,3.561931,-4.132510,0.557128,-0.110175,0.399680,-0.017021,57.016047,188.345429,1230.418032,-9.531701,0
0.001042,165.784439,-146.212289,-43.727652,2.102418,-3.982397,3.371803,1.203563,4.311784,-3.267991,-0.922937,-0.077298,0.399811,-0.017021,74.207247,188.496145,1229.750452,-8.984616,0
0.002083,195.445078,-70.368374,-94.632008,1.141068,-4.468785,1.887552,2.919993,4.774929,-1.786559,-2.698302,-0.048074,0.391906,-0.031958,87.055407,188.496440,1230.188123,-9.247410,0
0.003125,170.196672,-4.503285,-151.864016,0.100548,-3.975296,0.435050,3.755820,4.370596,-0.405847,-3.477471,-0.066339,0.403600,-0.069301,77.034747,188.438743,1231.186118,-8.862154,0
0.004167,124.838012,57.954989,-192.193561,-0.713772,-3.077076,-1.299221,4.360302,3.492092,1.335781,-4.132114,-0.007891,0.408826,-0.024490,58.735167,188.287407,1231.502861,-8.130509,0
0.005208,53.618452,113.164720,-192.501326,-0.713772,-1.376493,-2.894591,4.173733,1.830653,2.968294,-3.982685,-0.037115,0.413398,0.001650,27.926728,188.435821,1232.241493,-8.763726,0
0.006250,-14.266414,168.881849,-163.916099,-0.159582,0.249535,-3.993889,3.569251,0.191269,4.126582,-3.377851,-0.022503,0.399549,0.005384,-4.035331,188.514409,1232.403686,-9.059347,0
0.007292,-73.576349,187.148176,-103.791099,0.971418,1.953668,-4.124852,1.946105,-1.558389,4.302843,-1.915576,-0.055380,0.402358,-0.028224,-28.182181,188.361868,1233.311560,-9.260102,0
0.008333,-130.005289,190.675800,-24.596970,2.475648,3.508690,-4.041512,0.378930,-3.157340,4.248286,-0.318103,-0.099216,0.393997,-0.013287,-53.165970,188.287474,1233.812966,-9.585132,0
0.009375,-166.437400,146.169750,43.332955,3.798918,4.250698,-3.100958,-1.251679,-3.973356,3.383767,1.172635,-0.110175,0.402358,-0.024490,-69.723810,188.433516,1235.051510,-10.450015,0
0.010417,-196.098039,72.234617,94.803599,4.715028,4.729986,-1.616707,-2.960646,-4.377689,1.906531,2.898191,-0.150358,0.401444,-0.031958,-82.063020,188.505146,1235.690128,-10.394184,0
0.011458,-170.441303,5.789645,152.281819,5.812098,4.243598,-0.120551,-3.807667,-3.929247,0.458672,3.720053,-0.216112,0.411308,-0.013287,-74.609730,188.512257,1236.227398,-11.062588,0
0.012500,-124.787739,-58.070013,192.217425,6.592488,3.299224,1.597846,-4.412149,-3.013986,-1.324922,4.356908,-0.164970,0.397002,-0.028224,-54.500550,188.285764,1237.295378,-11.494464,0
0.013542,-52.127680,-112.989803,192.611364,6.649038,1.648344,3.161468,-4.188267,-1.389304,-2.902879,4.179016,-0.183235,0.417775,-0.024490,-23.386741,188.430641,1238.322091,-11.781490,0
0.014583,14.804415,-168.574042,164.001516,6.094848,0.029418,4.229017,-3.602442,0.305217,-4.056969,3.623992,-0.212459,0.388771,-0.031958,8.269948,188.507906,1239.123478,-12.656807,0
0.015625,73.229635,-186.610832,104.775190,4.941228,-1.699568,4.407603,-1.964370,1.922547,-4.233230,2.104791,-0.157664,0.403469,-0.020755,32.767408,188.510838,1239.453627,-13.894534,0
0.016667,130.134960,-190.307589,25.802652,3.459618,-3.275891,4.312357,-0.352418,3.606040,-4.103133,0.532223,-0.139399,0.398765,-0.013287,57.491067,188.291353,1239.441282,-14.717460,0
0.017708,165.829809,-145.825700,-43.358333,2.125038,-4.039201,3.344022,1.233414,4.370596,-3.255401,-0.983420,-0.080951,0.398569,-0.013287,74.840607,188.437397,1240.015441,-15.771407,0
0.018750,195.411050,-70.489183,-94.336553,1.163688,-4.465235,1.887552,2.919993,4.808011,-1.752985,-2.705418,-0.040768,0.386158,0.009119,87.010167,188.440432,1240.224370,-16.269190,0
0.019792,170.071904,-4.454961,-151.716288,0.089238,-3.971746,0.474736,3.752089,4.363245,-0.384863,-3.530838,-0.033462,0.421433,-0.031958,79.602117,188.513196,1240.594848,-16.895313,0
0.020841,124.214175,58.607357,-192.353599,-0.702462,-3.038023,-1.291283,4.341645,3.462686,1.436502,-4.160577,-0.048074,0.411308,-0.017021,59.753067,188.285424,1241.058875,-18.030428,0
0.021875,53.913357,112.923102,-192.452084,-0.747702,-1.426196,-2.862843,4.132688,1.834329,2.943114,-3.972011,-0.000585,0.412810,0.005384,27.779698,188.446276,1240.727224,-17.917798,0
0.022917,-13.948824,168.797283,-163.854546,-0.227442,0.224683,-3.962140,3.587908,0.172890,4.076221,-3.392082,-0.044421,0.409544,-0.017021,-3.763891,188.516429,1240.311562,-17.862655,0
0.023958,-73.474266,186.749506,-104.098864,0.971418,1.950118,-4.120884,1.957300,-1.521631,4.332220,-1.904902,-0.044421,0.406735,-0.039427,-27.650611,188.513547,1240.324912,-17.715073,0
0.025000,-129.721726,190.627476,-24.732386,2.475648,3.501590,-4.037543,0.349079,-3.102204,4.214712,-0.375028,-0.113828,0.395042,-0.024490,-51.865320,188.290896,1239.545464,-16.837119,0
0.026042,-165.813563,146.773795,43.246780,3.776298,4.247148,-3.085083,-1.225559,-3.925572,3.325013,1.151288,-0.124787,0.403273,-0.054364,-69.746430,188.440783,1238.411757,-17.054841,0
0.027083,-195.723737,72.548721,94.532765,4.737648,4.712235,-1.624645,-2.919601,-4.362986,1.864564,2.876844,-0.175929,0.400137,-0.002084,-81.293940,188.517614,1237.769001,-17.427142,0
0.028125,-170.906346,6.127910,151.789394,5.800788,4.197444,-0.172143,-3.781547,-3.947626,0.454475,3.691591,-0.186888,0.409021,-0.050629,-73.501350,188.368809,1237.686001,-17.407592,0
0.029167,-124.742369,-57.792153,192.402084,6.581178,3.327626,1.538317,-4.389761,-3.025013,-1.266169,4.285751,-0.208806,0.398765,-0.035692,-53.708850,188.281561,1236.731087,-16.553189,0
0.030208,-52.615408,-112.506567,192.771402,6.603798,1.651895,3.101939,-4.117371,-1.363574,-2.877699,4.104301,-0.186888,0.391384,-0.020755,-21.633691,188.442379,1235.566929,-17.025382,0
0.031250,14.328030,-168.646528,163.816857,6.094848,0.079122,4.197268,-3.587516,0.235378,-3.989822,3.602645,-0.168623,0.403534,-0.043161,7.941958,188.505512,1234.586621,-16.112396,0
0.032292,73.127552,-186.381295,105.366099,4.952538,-1.667615,4.391729,-1.979296,1.882114,-4.157690,2.097675,-0.143052,0.409152,-0.024490,32.676928,188.513363,1233.457788,-15.872265,0
0.033333,129.874082,-190.355912,25.938068,3.436998,-3.211986,4.300451,-0.374807,3.532525,-4.082150,0.567801,-0.102869,0.395761,-0.024490,56.891637,188.276026,1232.644558,-15.058014,0
0.034375,165.580274,-146.526393,-43.247538,2.125038,-3.953995,3.336085,1.147592,4.366921,-3.259598,-0.940726,-0.088257,0.398765,-0.035692,74.071527,188.437871,1232.611025,-14.692162,0
0.035417,195.218228,-70.875772,-94.213447,1.129758,-4.454584,1.899458,2.867754,4.745523,-1.782362,-2.662724,-0.033462,0.399745,-0.017021,87.010167,188.513714,1231.734687,-14.112693,0
0.036458,170.378152,-4.648256,-151.494697,0.145788,-3.936243,0.442988,3.744626,4.396327,-0.372273,-3.473913,-0.007891,0.382238,-0.031958,77.079987,188.512132,1231.534737,-13.838272,0
0.037500,124.974122,57.665047,-192.095076,-0.702462,-3.038023,-1.271441,4.330451,3.425929,1.356764,-4.149904,-0.026156,0.410459,-0.031958,58.769097,188.297220,1230.825877,-13.642346,0
0.038542,54.196919,112.669403,-192.587501,-0.725082,-1.390694,-2.858874,4.132688,1.826977,2.938918,-3.950664,-0.018850,0.397132,-0.013287,28.288648,188.441183,1230.534195,-13.871305,0
0.039588,-14.243729,168.857687,-163.842235,-0.227442,0.217582,-3.962140,3.539400,0.139808,4.118188,-3.409871,-0.015197,0.408630,-0.069301,-4.103191,188.509327,1231.183556,-14.259049,0
0.040638,-74.211529,187.268985,-102.042993,0.971418,1.974970,-4.120884,1.927449,-1.591470,4.277663,-1.865766,-0.095563,0.394846,-0.039427,-28.521481,188.439365,1230.582352,-14.654617,0
0.041669,-129.835151,190.675800,-24.547727,2.498268,3.576146,-4.021669,0.345348,-3.172043,4.235696,-0.289640,-0.106522,0.393213,-0.002084,-53.165970,188.286266,1231.245183,-16.048731,0
0.042708,-165.961015,146.592581,43.012879,3.776298,4.275550,-3.085083,-1.270335,-3.940275,3.358587,1.197540,-0.124787,0.398308,-0.013287,-69.588090,188.513426,1231.796299,-16.398341,0
0.043750,-195.701052,72.790339,94.458902,4.726338,4.701584,-1.588927,-2.990497,-4.348283,1.885548,2.869728,-0.172276,0.400529,-0.039427,-82.006470,188.442607,1231.700476,-16.188854,0
0.044791,-170.724866,6.345367,151.863258,5.812098,4.232947,-0.096740,-3.830055,-3.943950,0.441885,3.720053,-0.175929,0.409479,-0.020755,-74.790690,188.518624,1231.909123,-16.571402,0
0.045833,-125.150699,-57.659263,192.069698,6.547248,3.320526,1.589908,-4.427074,-3.065446,-1.278759,4.353350,-0.190541,0.419735,0.001650,-54.511860,188.283482,1233.042135,-16.649917,0
0.046875,-52.706148,-112.409920,192.869887,6.592488,1.637694,3.157499,-4.139759,-1.359898,-2.831535,4.136322,-0.205153,0.383937,-0.061832,-23.635561,188.499165,1233.062113,-16.255469,0
0.047916,14.225947,-168.453233,164.063069,6.038298,0.047169,4.232985,-3.583785,0.242729,-4.023396,3.581297,-0.190541,0.414705,-0.043161,8.055058,188.441708,1233.212712,-16.750858,0
0.048958,72.923387,-186.490023,105.390720,4.918608,-1.678266,4.375854,-1.968102,1.940926,-4.187067,2.108349,-0.161317,0.404710,-0.013287,32.699548,188.519479,1233.925474,-17.337045,0
0.050000,129.545150,-190.500883,26.356629,3.436998,-3.229738,4.229017,-0.408389,3.569283,-4.115723,0.528665,-0.106522,0.395695,-0.046895,57.151767,188.293414,1234.506076,-18.141756,0
0.051041,165.466849,-146.562635,-42.976705,2.158968,-3.968196,3.344022,1.184906,4.333839,-3.255401,-0.969189,-0.091910,0.398504,-0.024490,74.750127,188.518235,1234.136129,-18.465532,0
0.052085,195.184200,-70.827448,-94.299622,1.163688,-4.422631,1.907395,2.908799,4.774929,-1.773968,-2.644934,-0.037115,0.383087,0.005384,86.987547,188.441820,1234.310133,-18.332381,0
0.053126,170.434864,-4.684499,-151.334660,0.100548,-3.982397,0.450925,3.707312,4.359569,-0.389060,-3.470355,-0.033462,0.406866,-0.013287,79.817007,188.519270,1233.884039,-18.328413,0
0.054167,125.098890,57.520076,-191.996591,-0.668532,-3.030922,-1.287315,4.319257,3.440632,1.310601,-4.092978,0.014027,0.407192,-0.024490,60.069747,188.285607,1233.144418,-17.624257,0
0.055208,54.344372,112.451947,-192.538258,-0.691152,-1.404895,-2.803314,4.087912,1.812274,2.880164,-3.939991,0.014027,0.410916,-0.039427,27.994588,188.520409,1232.471726,-17.367698,0
0.056250,-13.268274,168.676474,-163.719129,-0.125652,0.164328,-3.942297,3.505818,0.176566,4.025861,-3.399198,-0.026156,0.407323,-0.039427,-3.492451,188.429080,1231.299457,-16.812606,0
0.057292,-73.122649,186.616616,-104.935985,0.937488,1.896864,-4.136758,1.946105,-1.499577,4.235696,-1.904902,-0.051727,0.401313,-0.017021,-27.582751,188.515833,1230.690911,-16.401923,0
0.058333,-129.358766,190.712043,-25.077083,2.498268,3.462537,-3.950235,0.382661,-3.080149,4.172745,-0.346565,-0.106522,0.392429,-0.020755,-51.593880,188.276838,1229.270143,-15.496170,0
0.059375,-165.473288,147.522811,43.099053,3.753678,4.222296,-3.053335,-1.132275,-3.848381,3.366980,1.090805,-0.132093,0.398831,-0.020755,-69.542850,188.494960,1228.171085,-14.016419,0
0.060417,-195.122584,73.297737,94.360417,4.703718,4.641229,-1.616707,-2.927064,-4.263741,1.906531,2.819918,-0.172276,0.400464,-0.035692,-81.203460,188.486817,1226.862633,-13.486633,0
0.061458,-171.496156,6.756117,151.260038,5.789478,4.190344,-0.172143,-3.710651,-3.885138,0.492246,3.638223,-0.194194,0.405821,-0.039427,-73.682310,188.491874,1225.548228,-12.914793,0
0.062504,-124.889821,-57.961285,192.180493,6.581178,3.267271,1.502600,-4.333790,-2.977228,-1.211612,4.250173,-0.205153,0.396936,-0.009553,-53.720160,188.409809,1223.408415,-12.540421,0
0.063541,-53.137163,-112.023331,192.869887,6.581178,1.658995,3.050347,-4.113639,-1.407683,-2.772781,4.090070,-0.201500,0.410328,-0.028224,-21.882511,188.479670,1222.577329,-11.803467,0
0.064583,13.704192,-168.392829,163.632197,6.094848,0.086222,4.149645,-3.568859,0.261108,-3.897495,3.538603,-0.201500,0.375902,-0.017021,7.681828,188.477371,1220.731400,-11.722059,0
0.065625,72.832647,-186.188000,106.018561,4.986468,-1.625012,4.348074,-1.979296,1.874762,-4.098936,2.147485,-0.128440,0.402816,-0.005818,32.642998,188.485887,1219.624492,-10.747075,0
0.066666,129.375012,-190.259265,26.627462,3.436998,-3.151632,4.225048,-0.445703,3.484741,-4.082150,0.578475,-0.091910,0.397851,-0.031958,56.665437,188.412090,1218.562103,-9.718053,0
0.067708,165.205972,-147.408299,-42.853599,2.125038,-3.904291,3.328148,1.121473,4.293406,-3.234418,-0.876685,-0.095563,0.398569,-0.009553,73.879257,188.490472,1217.820179,-8.845086,0
0.068750,194.605733,-71.757678,-94.213447,1.152378,-4.401330,1.915332,2.849097,4.745523,-1.752985,-2.595125,-0.033462,0.395173,-0.024490,86.840517,188.508087,1216.980035,-8.826333,0
0.069791,171.047359,-5.046926,-150.977652,0.111858,-3.929143,0.494579,3.655073,4.319136,-0.389060,-3.413429,-0.029809,0.403077,-0.039427,77.340117,188.501031,1216.078641,-8.856282,0
0.070833,125.291712,57.568400,-191.725758,-0.634602,-3.069975,-1.211912,4.289406,3.407550,1.289617,-4.075189,0.006721,0.398961,-0.058098,58.825647,188.408055,1215.506864,-8.895990,0
0.071875,54.741359,112.186167,-192.796781,-0.725082,-1.447498,-2.775534,4.099106,1.841680,2.875967,-3.918644,-0.004238,0.414639,0.005384,28.560088,188.480271,1215.400981,-8.766223,0
0.072916,-12.689806,168.507341,-163.768372,-0.182202,0.171429,-3.906580,3.513281,0.209647,4.051041,-3.377851,-0.011544,0.407062,-0.017021,-3.390661,188.479981,1215.406500,-8.851006,0
0.073958,-72.952511,186.737425,-105.169887,0.926178,1.879113,-4.061355,1.934911,-1.451792,4.235696,-1.926249,-0.080951,0.402424,-0.050629,-28.046461,188.484165,1215.360766,-8.236040,0
0.075000,-129.143259,190.651638,-25.360227,2.441718,3.476738,-3.989920,0.408781,-3.080149,4.155958,-0.360797,-0.139399,0.390992,-0.009553,-52.657020,188.347897,1215.157638,-8.243007,0
0.076041,-165.507315,147.522811,42.865152,3.764988,4.179693,-3.009680,-1.177051,-3.837354,3.337603,1.129941,-0.113828,0.400856,-0.005818,-69.486300,188.512507,1214.861509,-8.939897,0
0.077094,-195.383462,72.041323,95.246781,4.715028,4.658980,-1.612739,-2.900944,-4.263741,1.856171,2.855497,-0.186888,0.399941,-0.017021,-81.870750,188.514981,1214.894836,-9.338999,0
0.078134,-170.668153,5.765483,152.084849,5.800788,4.172592,-0.136426,-3.729308,-3.892490,0.450279,3.620434,-0.201500,0.409348,-0.054364,-74.643660,188.502077,1214.714531,-9.215540,0
0.079174,-125.082644,-58.142499,191.872728,6.581178,3.256621,1.530380,-4.289014,-2.947822,-1.232595,4.246615,-0.179582,0.407780,-0.013287,-54.421380,188.288304,1214.496121,-9.692408,0
0.080212,-52.876286,-112.470324,192.660607,6.626418,1.623493,3.070190,-4.106177,-1.356222,-2.797962,4.068722,-0.190541,0.391645,-0.039427,-23.658181,188.425399,1214.236333,-10.347726,0
0.081255,13.885672,-168.356586,163.619887,6.072228,0.125275,4.153614,-3.542740,0.239053,-3.922675,3.535045,-0.208806,0.420257,-0.020755,7.941958,188.423599,1214.444628,-10.202055,0
0.082297,73.206950,-186.115515,105.513826,4.975158,-1.603710,4.296483,-1.964370,1.900492,-4.098936,2.115465,-0.164970,0.396610,-0.028224,32.914438,188.496856,1214.313014,-10.578199,0
0.083338,129.533807,-190.029728,26.147349,3.436998,-3.162283,4.201237,-0.412120,3.436956,-4.019199,0.574917,-0.139399,0.393866,-0.017021,57.163077,188.420247,1213.155397,-10.309859,0
0.084387,165.534904,-146.031075,-43.764583,2.102418,-3.882989,3.248776,1.166249,4.223566,-3.209237,-0.944284,-0.099216,0.396740,-0.017021,74.784057,188.420247,1212.205380,-10.515244,0
0.085429,194.605733,-70.501264,-94.964394,1.163688,-4.348075,1.824055,2.796858,4.694062,-1.715215,-2.588009,-0.044421,0.410067,-0.028224,86.750037,188.420354,1211.339734,-10.411944,0
0.086467,170.412179,-4.358314,-151.420834,0.089238,-3.858137,0.490611,3.614028,4.297081,-0.401650,-3.363619,-0.040768,0.364339,-0.061832,79.760457,188.495544,1210.549465,-9.731908,0
0.087512,124.906067,58.208688,-191.651895,-0.657222,-3.016721,-1.203975,4.199853,3.385495,1.272830,-3.996916,-0.007891,0.420845,-0.031958,59.877477,188.495571,1209.357523,-9.314710,0
0.088547,54.537194,112.512351,-192.427463,-0.702462,-1.380043,-2.716005,4.028210,1.863735,2.846590,-3.872392,-0.026156,0.410524,-0.061832,28.164238,188.420211,1208.617984,-8.781806,0
0.089585,-12.474299,168.495260,-163.448296,-0.159582,0.146577,-3.815303,3.449848,0.275811,3.962911,-3.324483,-0.051727,0.398504,-0.031958,-3.198391,188.420186,1207.057889,-7.929651,0
0.090629,-73.236074,186.266270,-105.292993,0.926178,1.832959,-3.974046,1.923717,-1.367250,4.139172,-1.869324,-0.044421,0.389881,-0.002084,-27.752401,188.495515,1205.060173,-7.505939,0
0.091666,-128.678216,190.373777,-25.594129,2.453028,3.384431,-3.890706,0.419975,-2.991931,4.088811,-0.360797,-0.117481,0.389424,-0.009553,-51.311130,188.495705,1203.411840,-7.203639,0
0.092708,-165.189725,148.380555,43.185227,3.753678,4.087386,-3.033492,-1.102424,-3.756487,3.354390,1.044553,-0.164970,0.398635,-0.046895,-69.305340,188.420150,1202.600906,-5.859447,0
0.093750,-193.965649,74.240047,94.483523,4.726338,4.552472,-1.640519,-2.792734,-4.168171,1.868761,2.723856,-0.172276,0.397786,-0.005818,-80.999880,188.420097,1200.446905,-5.149438,0
0.094791,-172.165363,7.227273,150.644508,5.766858,4.105137,-0.176111,-3.587516,-3.844705,0.513229,3.559950,-0.208806,0.408368,-0.028224,-73.851960,188.495658,1199.487607,-4.974398,0
0.095833,-125.967359,-57.345159,191.121781,6.592488,3.281472,1.427196,-4.247969,-2.933119,-1.123481,4.154111,-0.186888,0.410067,-0.043161,-54.048150,188.495550,1197.797676,-4.067749,0
0.096875,-53.692946,-111.612580,193.128410,6.637728,1.680297,2.943195,-4.042743,-1.370925,-2.697241,4.018913,-0.154011,0.383741,-0.028224,-22.120021,188.424339,1196.551142,-3.545366,0
0.097916,12.898875,-168.030402,163.410607,6.060918,0.160778,4.078210,-3.535277,0.172890,-3.784184,3.481678,-0.194194,0.410132,-0.054364,7.342528,188.421577,1194.414298,-2.692895,0
0.098958,72.741907,-186.055110,107.028031,4.975158,-1.514953,4.229017,-1.975564,1.771841,-3.989822,2.133254,-0.157664,0.402032,-0.028224,32.597758,188.495360,1192.760638,-1.545259,0
0.100000,128.921312,-189.884757,26.996780,3.448308,-3.073526,4.161551,-0.453165,3.385495,-3.981429,0.638958,-0.143052,0.396610,-0.017021,56.461857,188.495573,1191.927188,-0.861980,0
0.101041,165.047177,-148.519742,-42.767424,2.125038,-3.769380,3.328148,1.058039,4.212539,-3.192451,-0.844664,-0.073645,0.397263,-0.005818,73.686987,188.420137,1191.738818,-0.505080,0
0.102083,193.584908,-72.869121,-94.299622,1.174998,-4.262869,1.887552,2.752081,4.624223,-1.807542,-2.509736,-0.062686,0.389359,-0.013287,86.546457,188.420097,1190.810639,0.518836,0
0.103125,171.818649,-5.409353,-150.300569,0.134478,-3.847486,0.566014,3.531938,4.300757,-0.468797,-3.331599,-0.011544,0.390992,-0.054364,77.577627,188.495421,1190.721991,0.971166,0
0.104166,125.768097,57.640885,-190.839395,-0.645912,-3.045123,-1.144446,4.211047,3.378144,1.247650,-3.979127,-0.004238,0.405625,-0.039427,58.848267,188.420010,1190.280531,0.895104,0
0.105208,55.070292,111.896225,-192.919887,-0.702462,-1.436847,-2.668382,4.020747,1.841680,2.745870,-3.858160,-0.033462,0.409087,-0.039427,28.876768,188.419904,1189.327169,1.231118,0
0.106250,-11.657639,168.326128,-163.460607,-0.182202,0.128825,-3.775617,3.502087,0.272135,3.908354,-3.324483,-0.029809,0.408695,-0.028224,-2.813851,188.419920,1188.719574,1.231294,0
0.107293,-72.884456,186.459565,-106.056250,0.937488,1.793906,-3.978015,1.964762,-1.411359,4.118188,-1.904902,-0.099216,0.404122,-0.028224,-28.193491,188.495256,1189.034194,0.888187,0
0.108334,-128.712244,190.192564,-25.631061,2.464338,3.359579,-3.898643,0.408781,-2.966201,4.088811,-0.389260,-0.102869,0.391122,-0.024490,-52.442130,188.495410,1188.846539,1.432556,0
0.109375,-165.257780,148.573850,43.099053,3.764988,4.044782,-3.096989,-1.106155,-3.771190,3.304030,1.026763,-0.128440,0.401640,-0.031958,-69.407130,188.344627,1188.565553,1.148358,0
0.110416,-193.795512,74.493746,94.594318,4.760268,4.566673,-1.592896,-2.815123,-4.197577,1.923318,2.691836,-0.183235,0.398700,-0.028224,-81.158220,188.420028,1188.981780,2.016557,0
0.111458,-172.267446,7.239354,150.755303,5.846028,4.140640,-0.247546,-3.576322,-3.822651,0.584573,3.517256,-0.197847,0.403730,-0.035692,-75.390120,188.495332,1188.442038,3.032414,0
