1-Time,2-VGERA,3-VGERB,4-VGERC,5-VN,6-IGERAN,7-IGERBN,8-IGERCN,9-IGERAT,10-IGERBT,11-IGERCT,12-IN,13-IFD,14-IFAULT,15-VFAULT,16-Speed (rad/s),17-Active Power,18-Reactive Power,19-FAULT 
0.000000,163.733019,-157.384543,-22.633550,-0.113585,-4.049101,3.617685,0.787239,4.137064,-3.662324,-0.659976,-0.109087,0.409562,-0.123173,58.887506,188.495781,1219.148102,-4.512745,0
0.001042,179.304317,-94.290349,-80.086653,-1.273292,-4.438065,2.221800,2.482891,4.499764,-2.216524,-2.242104,-0.090856,0.396195,-0.093440,59.439164,188.495770,1218.895932,-4.637224,0
0.002083,184.976879,-21.142426,-136.166618,-2.309148,-4.449074,0.785688,3.618373,4.481629,-0.842591,-3.521432,-0.090856,0.391303,-0.100873,53.776227,188.495725,1218.862956,-4.948223,0
0.003125,144.952544,44.089360,-170.434332,-2.928410,-3.487672,-0.871674,4.205038,3.622030,0.734261,-4.111891,-0.054394,0.409149,-0.089723,31.574811,188.495618,1218.419276,-5.741946,0
0.004167,70.870233,93.993907,-196.171573,-3.468856,-2.140975,-2.718103,4.560822,2.316310,2.674678,-4.532026,-0.025225,0.415143,-0.112023,7.020405,188.495731,1217.705064,-6.788938,0
0.005208,9.861936,147.786054,-169.207014,-2.962187,-0.486043,-3.623216,3.777340,0.796597,3.532857,-3.710682,-0.039809,0.397987,-0.112023,-12.028680,188.495609,1216.579725,-6.824706,0
0.006250,-53.688844,185.698946,-120.697540,-2.095221,1.363371,-4.347306,2.596439,-1.042292,4.352990,-2.643313,-0.094502,0.404326,-0.093440,-30.548624,188.495754,1216.080308,-7.911334,0
0.007292,-109.849473,184.524445,-44.834654,-0.642772,2.930236,-4.182374,0.968916,-2.449568,4.175435,-0.955205,-0.123671,0.409838,-0.086006,-48.077836,188.571038,1214.831542,-8.077773,0
0.008333,-164.360312,157.264277,21.902327,0.685826,4.049426,-3.582989,-0.635898,-3.642851,3.655455,0.668558,-0.152841,0.409700,-0.089723,-59.110994,188.495615,1213.890736,-8.368654,0
0.009375,-179.197114,95.133173,80.266806,1.766719,4.420042,-2.114695,-2.358044,-3.969281,2.306886,2.356665,-0.192949,0.406737,-0.152907,-58.424236,188.495645,1212.799111,-8.325823,0
0.010417,-185.039176,21.691625,136.237406,2.892649,4.412703,-0.734901,-3.451891,-3.962027,0.852631,3.643564,-0.240349,0.404739,-0.082290,-52.423549,188.495763,1212.229817,-7.919632,0
0.011458,-144.890541,-44.550232,170.274239,3.556947,3.484327,0.914415,-4.065051,-3.116936,-0.770724,4.184818,-0.236703,0.419070,-0.115740,-32.462540,188.495564,1210.959209,-8.249965,0
0.012500,-69.395740,-94.255114,196.777035,4.052357,2.144969,2.772913,-4.352707,-1.796708,-2.660410,4.642802,-0.211179,0.413420,-0.093440,-5.926669,188.495700,1210.268971,-8.531648,0
0.013542,-7.935446,-147.659675,169.447925,3.590725,0.501045,3.617685,-3.599504,-0.273368,-3.514362,3.783608,-0.236703,0.406324,-0.115740,14.585999,188.495732,1208.809801,-8.989668,0
0.014583,54.643540,-186.171563,120.282261,2.633685,-1.385064,4.390047,-2.475377,1.467592,-4.342950,2.701100,-0.207533,0.429405,-0.082290,31.135736,188.495685,1208.525428,-8.596490,0
0.015625,109.595077,-185.032297,44.625953,1.215013,-2.852853,4.221093,-0.866779,2.969170,-4.135803,1.077337,-0.141902,0.413145,-0.078573,48.541106,188.495714,1208.058096,-8.201441,0
0.016667,164.207616,-157.302328,-21.503444,-0.046029,-4.060109,3.641821,0.768314,4.100794,-3.607367,-0.595631,-0.127317,0.412869,-0.112023,60.306055,188.495740,1207.153407,-7.868540,0
0.017708,179.100918,-95.911161,-79.965137,-1.239515,-4.441735,2.209732,2.460182,4.452613,-2.254571,-2.230749,-0.061686,0.421206,-0.126890,59.292806,188.495763,1206.956862,-7.744469,0
0.018750,185.078578,-22.962903,-136.312438,-2.297889,-4.419718,0.805802,3.629727,4.481629,-0.821454,-3.498722,-0.068979,0.415970,-0.093440,54.125235,188.495618,1206.861823,-8.283518,0
0.019792,145.641839,43.196739,-170.434332,-2.973447,-3.450977,-0.879719,4.231533,3.629284,0.721579,-4.074041,-0.028871,0.422377,-0.123173,33.702634,188.420354,1206.570006,-8.309688,0
0.020833,71.412630,93.794242,-196.232331,-3.457597,-2.129967,-2.762353,4.579747,2.269159,2.708498,-4.562305,-0.043455,0.422929,-0.100873,7.065438,188.495656,1206.954527,-9.254113,0
0.021875,9.466439,147.844779,-169.255620,-2.984706,-0.482373,-3.659420,3.765985,0.778462,3.507493,-3.756102,-0.054394,0.418657,-0.097156,-12.670405,188.495588,1207.173350,-8.951417,0
0.022917,-54.163441,185.651966,-120.478810,-2.061443,1.411075,-4.379488,2.656998,-1.056800,4.361445,-2.586538,-0.094502,0.406530,-0.112023,-31.134057,188.495759,1206.885489,-9.461773,0
0.023958,-109.657374,184.841561,-43.898975,-0.654031,2.926567,-4.134102,0.953776,-2.536616,4.162753,-0.947635,-0.116379,0.405635,-0.089723,-47.875186,188.420368,1207.352744,-10.139908,0
0.025000,-163.795316,157.405217,22.680034,0.674567,4.075112,-3.591034,-0.613188,-3.635597,3.630090,0.679912,-0.141902,0.404188,-0.089723,-59.460002,188.495673,1206.979854,-10.281727,0
0.026042,-179.400513,94.498943,80.278958,1.811756,4.464076,-2.154922,-2.320195,-4.001924,2.235019,2.360450,-0.182010,0.409149,-0.119457,-59.595102,188.495759,1206.890707,-10.892880,0
0.027083,-185.253874,21.163100,135.921463,2.937686,4.412703,-0.738924,-3.444321,-3.994670,0.835721,3.590574,-0.218472,0.405910,-0.100873,-53.549382,188.495559,1206.699512,-10.502876,0
0.028125,-144.596743,-44.315331,170.505120,3.579466,3.535699,0.922461,-4.102901,-3.127817,-0.762269,4.256733,-0.225764,0.371460,-0.108307,-33.228106,188.420318,1207.556099,-10.571993,0
0.029167,-70.028536,-93.973234,196.509698,4.063616,2.159647,2.801072,-4.424620,-1.829351,-2.630818,4.673082,-0.192949,0.400605,-0.134323,-6.377002,188.495732,1207.845939,-10.131875,0
0.030208,-9.076739,-147.777125,169.532987,3.579466,0.497376,3.674003,-3.663848,-0.327773,-3.548182,3.817673,-0.200241,0.419139,-0.145474,14.079374,188.495807,1208.652030,-9.841026,0
0.031250,53.909045,-185.760488,121.290850,2.644944,-1.319013,4.394070,-2.490517,1.485727,-4.338722,2.769230,-0.178364,0.424100,-0.126890,30.336395,188.495727,1209.176450,-9.860184,0
0.032292,109.900175,-184.844377,45.889727,1.192494,-2.852853,4.225116,-0.855424,2.972797,-4.199215,1.088692,-0.138256,0.413076,-0.093440,48.912631,188.344916,1210.042799,-9.875120,0
0.033333,164.331916,-157.607699,-21.090287,-0.091066,-4.082126,3.633775,0.741820,4.104421,-3.666552,-0.569136,-0.083563,0.414178,-0.108307,59.033865,188.495609,1210.691436,-9.343037,0
0.034375,179.293017,-95.899416,-79.940833,-1.307070,-4.430726,2.205709,2.482891,4.474375,-2.263026,-2.242104,-0.072625,0.414454,-0.093440,59.292806,188.420273,1211.099765,-9.395227,0
0.035417,185.168978,-22.340417,-136.105860,-2.365445,-4.412379,0.813847,3.622158,4.492510,-0.876411,-3.510077,-0.061686,0.420104,-0.108307,53.888810,188.495774,1211.376274,-8.694895,0
0.036458,145.551440,44.077615,-170.081934,-2.928410,-3.506019,-0.843515,4.216393,3.654673,0.713124,-4.100536,-0.054394,0.430576,-0.086006,31.428453,188.344804,1211.804629,-8.278185,0
0.037500,70.621635,94.017397,-196.280938,-3.547671,-2.115289,-2.722126,4.579747,2.319937,2.666223,-4.554735,-0.050748,0.423549,-0.100873,6.446230,188.495615,1211.646570,-7.133006,0
0.038542,8.652844,147.292763,-169.644474,-2.962187,-0.515399,-3.615170,3.784910,0.832867,3.490583,-3.680402,-0.039809,0.376008,-0.104590,-12.512788,188.420173,1210.695923,-6.731205,0
0.039583,-54.242540,185.757671,-120.211473,-2.016406,1.348694,-4.339260,2.668353,-1.027784,4.336080,-2.628173,-0.061686,0.410664,-0.093440,-30.571141,188.495559,1210.606216,-5.908722,0
0.040625,-109.453975,185.088206,-43.996188,-0.575216,2.838500,-4.166283,1.014335,-2.482211,4.162753,-1.011980,-0.116379,0.408597,-0.123173,-47.886444,188.344833,1210.463071,-4.806701,0
0.041667,-163.976115,157.088102,22.060299,0.730863,4.038417,-3.631261,-0.533704,-3.577565,3.651227,0.623138,-0.152841,0.411216,-0.145474,-59.268611,188.495644,1209.960110,-3.808734,0
0.042708,-179.163215,95.732169,80.278958,1.879312,4.434720,-2.191127,-2.218002,-3.994670,2.311114,2.284750,-0.167425,0.410940,-0.097156,-58.244103,188.495629,1210.061024,-2.573350,0
0.043750,-185.027876,22.642971,136.431833,2.903908,4.401695,-0.771106,-3.417827,-4.012805,0.873769,3.613284,-0.196595,0.414109,-0.059989,-52.637457,188.495555,1210.666691,-2.540174,0
0.044792,-146.009234,-43.446201,170.079812,3.534429,3.502674,0.846029,-4.008277,-3.174968,-0.639672,4.105333,-0.214826,0.402121,-0.115740,-33.138039,188.344813,1209.238387,-0.786273,0
0.045833,-71.768724,-93.984979,196.242361,4.018579,2.174325,2.772913,-4.379201,-1.883756,-2.546268,4.601167,-0.214826,0.418312,-0.082290,-6.658460,188.495709,1208.293813,0.090937,0
0.046875,-10.297130,-147.436520,169.630200,3.568207,0.563426,3.617685,-3.576794,-0.378551,-3.442495,3.817673,-0.229410,0.423962,-0.104590,14.203216,188.420314,1207.302587,0.930481,0
0.047917,53.592647,-185.960153,121.096423,2.554870,-1.278649,4.333729,-2.490517,1.413187,-4.304902,2.754090,-0.185656,0.418932,-0.086006,31.000636,188.495738,1206.549162,1.625294,0
0.048958,109.493378,-185.067532,45.245688,1.147457,-2.841844,4.156729,-0.817575,2.911138,-4.148485,1.115187,-0.163779,0.410113,-0.104590,48.338456,188.269416,1205.560337,2.405229,0
0.050000,164.196316,-157.243603,-21.503444,-0.102325,-4.001398,3.621707,0.764530,4.086286,-3.636959,-0.569136,-0.090856,0.408253,-0.112023,60.261022,188.495790,1204.998492,2.455139,0
0.051042,178.987919,-95.641025,-79.977288,-1.250774,-4.386692,2.205709,2.426117,4.445359,-2.313756,-2.173974,-0.112733,0.405841,-0.082290,59.168964,188.495671,1204.499993,3.729985,0
0.052083,185.010779,-21.365582,-135.741310,-2.275370,-4.390362,0.850052,3.576738,4.438105,-0.884866,-3.491152,-0.054394,0.414729,-0.089723,54.136493,188.495693,1203.582880,3.984074,0
0.053125,145.438440,44.676610,-169.741687,-2.950928,-3.498680,-0.803287,4.182328,3.625657,0.704669,-4.081611,-0.043455,0.401156,-0.123173,33.736409,188.269507,1203.015942,4.083324,0
0.054167,70.260037,94.076123,-196.256635,-3.491375,-2.151984,-2.714081,4.568392,2.348953,2.632403,-4.460111,-0.058040,0.425133,-0.097156,7.076696,188.495736,1201.805885,4.700160,0
0.055208,8.912743,147.292763,-169.595867,-3.007225,-0.544754,-3.582989,3.826544,0.800224,3.549767,-3.801521,-0.068979,0.419484,-0.108307,-12.411464,188.420271,1203.590701,4.548402,0
0.056250,-53.903542,185.452301,-121.049939,-2.038925,1.323007,-4.331215,2.668353,-0.944363,4.331852,-2.647098,-0.076271,0.403637,-0.093440,-31.066507,188.495711,1203.425453,5.344445,0
0.057292,-109.544375,184.876796,-45.636664,-0.654031,2.878864,-4.122033,0.995411,-2.453195,4.158525,-0.985485,-0.101794,0.412111,-0.093440,-47.931478,188.269505,1203.144977,4.886000,0
0.058333,-164.190814,157.369982,20.723615,0.629529,4.031078,-3.611148,-0.571554,-3.628343,3.697729,0.626923,-0.149195,0.410389,-0.093440,-59.673910,188.495664,1204.167934,4.503847,0
0.059375,-179.298814,96.742240,79.805043,1.766719,4.453068,-2.150899,-2.282345,-3.991043,2.319569,2.284750,-0.149195,0.412525,-0.104590,-59.482519,188.420363,1204.301565,4.253926,0
0.060417,-185.163475,23.054047,136.128041,2.858871,4.420042,-0.779151,-3.470816,-4.020059,0.869541,3.594359,-0.207533,0.418519,-0.097156,-53.628190,188.495741,1204.194655,4.203448,0
0.061458,-145.749335,-43.434456,170.213480,3.523169,3.491666,0.878211,-4.015847,-3.185849,-0.686174,4.211313,-0.214826,0.422033,-0.104590,-33.509564,188.269487,1205.555341,3.440283,0
0.062500,-71.361927,-93.785314,196.303119,4.029838,2.137630,2.736708,-4.356491,-1.883756,-2.613908,4.589812,-0.200241,0.405359,-0.112023,-6.219385,188.495718,1205.800729,2.840060,0
0.063542,-9.167138,-147.295580,169.885385,3.534429,0.545079,3.613662,-3.607074,-0.324146,-3.476315,3.783608,-0.200241,0.418588,-0.138040,14.428382,188.420200,1205.719531,2.075800,0
0.064583,54.225443,-185.678273,120.901996,2.644944,-1.296996,4.341775,-2.505657,1.449457,-4.262627,2.704885,-0.185656,0.424169,-0.097156,30.257587,188.495566,1204.940669,1.523418,0
0.065625,109.357779,-185.302432,44.674560,1.169976,-2.856522,4.176843,-0.866779,2.929273,-4.110438,1.100047,-0.145548,0.404119,-0.097156,48.529848,188.269485,1204.594976,1.215872,0
0.066667,163.608720,-157.396288,-21.624961,-0.057288,-4.005067,3.601594,0.753175,4.060897,-3.586230,-0.553996,-0.149195,0.407219,-0.141757,59.000090,188.495493,1203.742404,1.121980,0
0.067708,179.033118,-95.441360,-79.831468,-1.205737,-4.390362,2.221800,2.418547,4.438105,-2.263026,-2.196684,-0.101794,0.417141,-0.126890,59.056381,188.420139,1203.428494,0.415490,0
0.068750,184.965579,-21.835382,-135.692703,-2.354185,-4.423387,0.850052,3.595663,4.463494,-0.901776,-3.460872,-0.054394,0.412731,-0.119457,53.956360,188.495600,1203.472038,0.793218,0
0.069792,145.992137,43.760499,-169.680929,-2.950928,-3.502350,-0.791219,4.227748,3.658300,0.700442,-4.100536,-0.043455,0.404808,-0.126890,31.968852,188.269496,1204.008405,0.677295,0
0.070833,72.022826,93.794242,-195.721961,-3.513893,-2.210695,-2.661785,4.557037,2.330818,2.615493,-4.471466,-0.047102,0.423962,-0.119457,7.223055,188.495660,1203.980387,0.203034,0
0.071875,10.551232,147.116588,-169.741687,-2.984706,-0.585119,-3.574943,3.773555,0.814732,3.494810,-3.744747,-0.076271,0.427131,-0.104590,-11.949872,188.495664,1202.926679,-0.082387,0
0.072917,-53.236847,185.558006,-121.317275,-2.050184,1.293651,-4.347306,2.660783,-0.944363,4.314942,-2.677378,-0.076271,0.413765,-0.104590,-30.447300,188.495655,1202.985047,-0.007133,0
0.073958,-109.340976,184.923776,-45.685271,-0.687809,2.860516,-4.134102,1.063540,-2.453195,4.196573,-1.011980,-0.105440,0.413351,-0.100873,-47.807636,188.269474,1203.486622,0.319842,0
0.075000,-164.168214,157.205552,21.100317,0.607011,4.056765,-3.599079,-0.533704,-3.552176,3.680819,0.623138,-0.156487,0.410871,-0.097156,-59.347419,188.495711,1202.520244,0.776282,0
0.076042,-179.095415,96.084519,80.072380,1.845534,4.420042,-2.191127,-2.214217,-3.965654,2.289976,2.273395,-0.178364,0.409769,-0.097156,-58.131520,188.495776,1201.870774,0.835474,0
0.077083,-184.982676,22.032231,135.860704,2.881389,4.445729,-0.775128,-3.436752,-4.020059,0.886451,3.575434,-0.207533,0.420999,-0.093440,-52.592424,188.495830,1201.577881,1.406329,0
0.078125,-145.851035,-44.327076,169.630200,3.523169,3.543038,0.833961,-4.030987,-3.182222,-0.643899,4.165893,-0.240349,0.406186,-0.078573,-32.879098,188.344871,1200.853329,2.190555,0
0.079167,-70.311034,-93.984979,196.558304,4.041097,2.155978,2.748776,-4.398126,-1.847486,-2.622363,4.631447,-0.211179,0.393370,-0.108307,-6.196868,188.495703,1201.159807,2.066554,0
0.080208,-8.376143,-147.072425,169.776020,3.613244,0.570765,3.617685,-3.697912,-0.389432,-3.480542,3.836598,-0.185656,0.390959,-0.104590,14.507191,188.495752,1201.704998,3.262452,0
0.081250,54.304543,-186.112838,120.987058,2.644944,-1.293327,4.373956,-2.551076,1.413187,-4.313357,2.799510,-0.160133,0.428234,-0.104590,31.034411,188.495763,1202.992561,4.419322,0
0.082292,109.278679,-185.278942,45.440115,1.215013,-2.823497,4.225116,-0.900843,2.932900,-4.161168,1.092477,-0.138256,0.414178,-0.093440,48.428523,188.344925,1203.597024,4.208584,0
0.083333,164.230216,-157.501994,-20.604220,-0.034769,-4.052770,3.641821,0.745605,4.089913,-3.670779,-0.557781,-0.156487,0.412180,-0.093440,60.396122,188.495863,1204.825591,4.356111,0
0.084375,179.146118,-96.956467,-79.709952,-1.216996,-4.430726,2.262027,2.410977,4.459867,-2.309529,-2.211824,-0.090856,0.415625,-0.097156,59.191481,188.495700,1205.684426,4.264111,0
0.085417,185.191578,-23.444448,-136.190922,-2.342926,-4.496777,0.874188,3.641082,4.536034,-0.863728,-3.532787,-0.065333,0.394335,-0.089723,54.260335,188.495738,1207.289322,3.190667,0
0.086458,146.285935,43.008819,-169.936114,-2.984706,-3.531705,-0.811333,4.299661,3.687316,0.679304,-4.149741,-0.058040,0.426305,-0.134323,34.006609,188.344965,1208.126781,3.239663,0
0.087500,72.034125,93.676792,-196.037905,-3.570190,-2.151984,-2.714081,4.613811,2.319937,2.628175,-4.562305,-0.003348,0.427545,-0.119457,7.211796,188.495694,1209.273946,3.057575,0
0.088542,10.155734,147.421958,-169.717384,-3.007225,-0.515399,-3.635284,3.837899,0.803851,3.537085,-3.775027,-0.039809,0.429336,-0.112023,-12.591597,188.495723,1210.034267,2.988145,0
0.089583,-53.756643,185.687201,-120.977029,-2.038925,1.367041,-4.407647,2.683493,-0.991514,4.378355,-2.669808,-0.105440,0.411767,-0.115740,-31.032732,188.495745,1210.875581,2.496010,0
0.090625,-109.205377,185.264381,-44.652379,-0.597734,2.919228,-4.246738,1.006766,-2.547497,4.213483,-0.977915,-0.123671,0.407839,-0.093440,-47.740086,188.344983,1211.640291,1.569252,0
0.091667,-163.693617,157.499177,22.108906,0.640789,4.141162,-3.651375,-0.605618,-3.675494,3.689274,0.695052,-0.152841,0.408253,-0.104590,-59.516294,188.495767,1213.039965,0.320508,0
0.092708,-179.513512,95.133173,79.926560,1.800497,4.511779,-2.199172,-2.335335,-4.045448,2.294204,2.394515,-0.152841,0.407082,-0.108307,-59.617619,188.495729,1214.573777,-0.765752,0
0.093750,-185.287774,21.703370,135.739188,2.903908,4.504440,-0.763060,-3.516235,-4.045448,0.844176,3.685198,-0.192949,0.415350,-0.112023,-53.695740,188.495636,1215.774633,-1.929556,0
0.094792,-145.105240,-43.904256,170.444362,3.545688,3.546708,0.882233,-4.133180,-3.225746,-0.741131,4.287013,-0.225764,0.430439,-0.074856,-33.464531,188.420358,1217.769336,-3.052499,0
0.095833,-70.706531,-93.609139,196.570456,4.108653,2.214689,2.809117,-4.462470,-1.851113,-2.673093,4.718502,-0.233057,0.400467,-0.100873,-6.590910,188.495703,1219.126533,-3.587220,0
0.096875,-9.788634,-147.553970,169.848930,3.511910,0.541410,3.734343,-3.728192,-0.364043,-3.586230,3.916083,-0.225764,0.429612,-0.138040,13.910499,188.495569,1221.116232,-4.432037,0
0.097917,53.298849,-185.807468,121.752613,2.611166,-1.403411,4.502683,-2.479162,1.500235,-4.406362,2.784370,-0.152841,0.422308,-0.123173,30.223812,188.495694,1222.332216,-6.159348,0
0.098958,109.414278,-185.173237,46.363642,1.181235,-2.907895,4.261320,-0.825144,3.045337,-4.241490,1.092477,-0.152841,0.413076,-0.112023,48.788789,188.344938,1224.125805,-7.162142,0
0.100000,164.117217,-157.819109,-20.701434,-0.124844,-4.093135,3.682048,0.798594,4.158826,-3.662324,-0.569136,-0.116379,0.414729,-0.119457,59.067640,188.495805,1224.807156,-7.746447,0
0.101042,179.519015,-96.322236,-79.284643,-1.216996,-4.485768,2.201686,2.490461,4.536034,-2.275709,-2.257244,-0.094502,0.413214,-0.082290,59.349098,188.495667,1225.654043,-8.559998,0
0.102083,185.361077,-22.516593,-135.789916,-2.331667,-4.452743,0.797756,3.656222,4.546915,-0.846818,-3.563067,-0.039809,0.392475,-0.115740,53.978877,188.495823,1225.913775,-8.770872,0
0.103125,145.607939,43.854459,-170.009024,-3.052262,-3.520697,-0.851560,4.231533,3.658300,0.746944,-4.172451,-0.065333,0.422584,-0.078573,31.484744,188.345035,1225.998438,-9.476443,0
0.104167,70.700734,93.582832,-196.536123,-3.513893,-2.185009,-2.758330,4.621381,2.338072,2.678905,-4.645575,-0.039809,0.414523,-0.100873,6.502522,188.495649,1227.336526,-9.407261,0
0.105208,9.037042,147.163568,-169.948266,-3.063521,-0.475034,-3.687579,3.815189,0.753073,3.566677,-3.801521,-0.076271,0.425685,-0.123173,-12.321397,188.495682,1227.811686,-9.793379,0
0.106250,-53.722744,185.910356,-120.624630,-2.050184,1.381719,-4.399601,2.683493,-1.031411,4.348762,-2.628173,-0.098148,0.414661,-0.123173,-30.391008,188.487204,1227.303373,-10.455245,0
0.107292,-108.877679,185.299616,-44.494407,-0.541438,2.922897,-4.206511,0.995411,-2.554751,4.217710,-0.985485,-0.149195,0.407702,-0.115740,-47.807636,188.495727,1227.372999,-10.453574,0
0.108333,-163.727517,157.393472,21.440564,0.730863,4.133823,-3.659420,-0.613188,-3.653732,3.668137,0.691267,-0.178364,0.408115,-0.112023,-59.268611,188.495032,1226.905334,-10.601350,0
0.109375,-179.411813,96.096264,79.537706,1.823015,4.486093,-2.187104,-2.305055,-4.041821,2.306886,2.345310,-0.178364,0.410389,-0.130607,-58.379203,188.495441,1226.740035,-10.286582,0
0.110417,-185.423373,23.300692,136.042979,2.858871,4.500771,-0.779151,-3.493526,-4.049075,0.827266,3.643564,-0.222118,0.419415,-0.089723,-52.727524,188.495132,1226.560573,-10.542851,0
0.111458,-146.133533,-42.800225,170.274239,3.511910,3.550377,0.882233,-4.072621,-3.193103,-0.669264,4.241593,-0.207533,0.417072,-0.089723,-33.115522,188.413047,1225.711017,-10.302623,0
