1-Time,2-VGERA,3-VGERB,4-VGERC,5-VN,6-IGERAN,7-IGERBN,8-IGERCN,9-IGERAT,10-IGERBT,11-IGERCT,12-IN,13-IFD,14-IFAULT,15-VFAULT,16-Speed (rad/s),17-FAULT 
0.000000,-112.163536,-87.027940,182.861364,6.411528,4.992707,-1.406372,-3.740502,-4.962133,1.491059,3.463889,-0.227071,0.553782,-0.076769,-47.228221,188.495448,0
0.001042,-34.013707,-138.214731,182.356629,6.434148,4.300402,0.419176,-4.594986,-4.381365,-0.250569,4.420949,-0.259948,0.581806,-0.054364,-16.306681,188.571065,0
0.002083,40.052821,-176.112526,152.244887,5.891268,3.061355,2.324096,-5.158423,-3.153664,-2.202031,4.926164,-0.256295,0.560053,-0.035692,15.621448,188.495524,0
0.003125,108.629579,-176.003798,91.787500,4.715028,1.254264,3.959153,-4.770360,-1.326816,-3.847135,4.605957,-0.252642,0.563646,-0.065566,44.778627,188.570843,0
0.004167,150.222528,-178.238766,3.988258,3.029838,-0.655786,4.955267,-3.859906,0.562519,-4.862734,3.759190,-0.252642,0.566912,-0.073035,61.800177,188.495474,0
0.005208,165.841152,-139.543630,-71.955871,1.593468,-2.427375,5.050513,-2.113625,2.352610,-5.068372,2.154601,-0.241683,0.565540,-0.065566,69.581457,188.646355,0
0.006250,186.575242,-57.780072,-125.876326,0.564258,-4.152810,4.610001,-0.083760,4.069185,-4.648703,0.130186,-0.172276,0.559530,-0.065566,79.183647,188.495504,0
0.007292,161.701139,16.493326,-165.738069,-0.204822,-4.749257,3.494829,1.524461,4.763902,-3.641497,-1.378341,-0.132093,0.568872,-0.084238,70.203507,188.570839,0
0.008333,111.896219,87.529042,-182.332766,-0.510192,-4.951623,1.443071,3.572983,4.929310,-1.576724,-3.342272,-0.080951,0.554174,-0.087972,51.564627,188.495542,0
0.009375,34.166063,138.727913,-182.258902,-0.510192,-4.252218,-0.418195,4.472243,4.319136,0.257231,-4.302891,-0.055380,0.555937,-0.046895,22.644958,188.646357,0
0.010417,-40.218055,176.130392,-152.270266,0.021378,-3.084176,-2.327084,4.983441,3.087760,2.149939,-4.811663,-0.055380,0.557375,-0.069301,-11.941021,188.495414,0
0.011458,-108.908238,176.589466,-90.901894,1.197618,-1.184778,-3.954203,4.558064,1.180045,3.807633,-4.487899,-0.033462,0.563776,-0.043161,-40.227331,188.570893,0
0.012500,-150.217625,178.703624,-3.262689,2.860188,0.700420,-4.950318,3.632685,-0.701939,4.852609,-3.569975,-0.069992,0.561555,-0.035692,-58.119750,188.495517,0
0.013542,-166.051755,139.416524,72.287500,4.296558,2.511062,-4.942381,1.893866,-2.447920,4.965920,-1.961828,-0.132093,0.560837,-0.050629,-64.837890,188.646268,0
0.014583,-187.114779,57.737532,126.023296,5.291838,4.204545,-4.565365,-0.135999,-4.160820,4.579824,0.023451,-0.128440,0.555807,-0.080503,-73.512660,188.495466,0
0.015625,-161.469385,-16.064710,166.352841,6.060918,4.843595,-3.442256,-1.770339,-4.855536,3.522258,1.528420,-0.183235,0.564364,-0.061832,-67.801110,188.570879,0
0.016667,-112.696633,-86.629270,182.713637,6.377598,4.996257,-1.354781,-3.740502,-4.984188,1.457485,3.495909,-0.241683,0.561163,-0.054364,-47.635381,188.495519,0
0.017708,-34.399352,-138.420106,182.208902,6.377598,4.250698,0.442988,-4.669613,-4.344607,-0.376470,4.445854,-0.263601,0.555154,-0.039427,-18.432961,188.646228,0
0.018750,40.018794,-175.858827,152.601894,5.834718,3.043604,2.363782,-5.128572,-3.124258,-2.269178,4.940395,-0.285519,0.545943,-0.061832,16.119088,188.495492,0
0.019792,108.913142,-176.088365,90.851894,4.624548,1.119353,4.006776,-4.733047,-1.253301,-3.905888,4.620189,-0.267254,0.562927,-0.065566,44.970897,188.570901,0
0.020833,150.029706,-178.492465,3.138826,3.052458,-0.712591,4.983048,-3.822592,0.665440,-4.887915,3.702264,-0.267254,0.562862,-0.087972,62.263887,188.495486,0
0.021875,165.659672,-138.516753,-72.472917,1.570848,-2.473529,5.042576,-2.072580,2.411422,-5.051586,2.111907,-0.205153,0.558224,-0.095440,70.033857,188.646351,0
0.022917,186.983572,-57.067298,-125.667046,0.564258,-4.145710,4.594126,-0.038983,4.105942,-4.644506,0.115955,-0.146705,0.558681,-0.073035,79.025307,188.495412,0
0.023958,161.202069,16.505407,-166.058144,-0.227442,-4.781209,3.506734,1.558043,4.800659,-3.662480,-1.438824,-0.102869,0.562339,-0.102909,72.770877,188.570839,0
0.025000,112.338577,86.997482,-182.517425,-0.544122,-4.955173,1.411322,3.558057,4.929310,-1.547347,-3.399198,-0.110175,0.562274,-0.076769,53.102787,188.495649,0
0.026042,34.755873,138.812479,-181.889584,-0.532812,-4.259318,-0.434069,4.468512,4.297081,0.315985,-4.324238,-0.048074,0.536863,-0.061832,22.339588,188.721744,0
0.027083,-40.002547,176.227039,-152.344129,-0.001242,-3.023822,-2.346927,4.975978,3.047326,2.170923,-4.843684,-0.033462,0.573183,-0.076769,-12.020191,188.495347,0
0.028125,-109.078375,176.396172,-90.606440,1.208928,-1.117322,-3.906580,4.550602,1.176370,3.786649,-4.466552,-0.051727,0.557636,-0.080503,-39.164191,188.570989,0
0.029167,-150.160912,178.776110,-2.511742,2.814948,0.746574,-4.926506,3.625222,-0.746048,4.814839,-3.559301,-0.033462,0.560967,-0.076769,-56.321460,188.495553,0
0.030208,-165.756850,139.078259,72.927652,4.285248,2.489760,-4.962224,1.878941,-2.473650,4.919757,-1.947596,-0.124787,0.554827,-0.073035,-64.781340,188.721697,0
0.031250,-187.126121,56.928112,126.060228,5.303148,4.250698,-4.482025,-0.154656,-4.186550,4.529464,0.069703,-0.175929,0.557244,-0.076769,-73.173360,188.495521,0
0.032292,-161.526098,-16.245924,166.205114,6.094848,4.811642,-3.474005,-1.736757,-4.870239,3.547438,1.521304,-0.212459,0.565606,-0.050629,-66.715350,188.571049,0
0.033333,-112.503811,-86.568866,182.984470,6.411528,4.989156,-1.386529,-3.736771,-5.013594,1.495255,3.503025,-0.248989,0.572595,-0.058098,-47.454421,188.495575,0
0.034375,-35.329437,-138.420106,181.925758,6.388908,4.254249,0.486642,-4.643494,-4.381365,-0.326109,4.428065,-0.278213,0.552802,-0.054364,-16.589431,188.721712,0
0.035417,39.655834,-176.015879,152.454167,5.834718,3.047154,2.363782,-5.113646,-3.153664,-2.285965,4.943953,-0.230724,0.561425,-0.061832,15.825028,188.495454,0
0.036458,108.788374,-176.052122,90.888826,4.658478,1.161956,4.014713,-4.725584,-1.268004,-3.893298,4.581052,-0.278213,0.563972,-0.073035,44.959587,188.570937,0
0.037500,150.392666,-178.407898,2.400189,3.018528,-0.701940,4.975110,-3.803936,0.643386,-4.950865,3.659570,-0.252642,0.556133,-0.106643,61.811487,188.495642,0
0.038542,165.693699,-138.371782,-72.965341,1.582158,-2.505481,5.018765,-2.046460,2.411422,-5.026405,2.076328,-0.208806,0.555872,-0.050629,69.547527,188.721741,0
0.039583,187.153710,-56.040422,-125.777841,0.575568,-4.209615,4.590158,-0.072566,4.124321,-4.678080,0.108839,-0.175929,0.551691,-0.031958,79.375917,188.495589,0
0.040625,161.111329,17.097371,-166.095076,-0.261372,-4.795411,3.459111,1.561774,4.785956,-3.633103,-1.438824,-0.121134,0.560641,-0.020755,70.113027,188.570892,0
0.041667,112.020987,87.227019,-182.542046,-0.544122,-5.004877,1.411322,3.576714,4.958716,-1.589314,-3.384967,-0.113828,0.563711,-0.076769,51.869997,188.495584,0
0.042708,35.152861,138.884965,-181.717235,-0.555432,-4.280620,-0.453912,4.502094,4.245621,0.307591,-4.345585,-0.088257,0.565475,-0.065566,22.995568,188.721744,0
0.043750,-39.753012,176.130392,-152.467235,-0.046482,-2.984769,-2.346927,4.975978,3.054678,2.204496,-4.857915,-0.037115,0.568741,-0.084238,-12.042811,188.570989,0
0.044792,-108.874210,176.637790,-90.224811,1.186308,-1.067618,-3.985952,4.520751,1.157991,3.849600,-4.423858,-0.088257,0.562143,-0.065566,-40.317811,188.570962,0
0.045833,-150.297022,178.776110,-1.908523,2.882808,0.860183,-4.918569,3.580446,-0.753399,4.856806,-3.505933,-0.069992,0.557636,-0.080503,-58.119750,188.495508,0
0.046875,-165.892960,138.268839,73.296970,4.307868,2.582068,-4.922538,1.785657,-2.503056,4.936543,-1.904902,-0.095563,0.551561,-0.073035,-64.736100,188.721610,0
0.047917,-187.715931,55.768345,125.826326,5.325768,4.257799,-4.489962,-0.229283,-4.226983,4.495891,0.105281,-0.157664,0.553651,-0.043161,-73.682310,188.495617,0
0.048958,-160.958973,-17.272801,166.611364,6.060918,4.850695,-3.374790,-1.800190,-4.892294,3.509668,1.631597,-0.212459,0.568610,-0.039427,-67.620150,188.571053,0
0.050000,-112.345016,-86.895050,182.824432,6.388908,5.024659,-1.334938,-3.800204,-5.006242,1.407125,3.591971,-0.234377,0.556329,-0.091706,-47.838961,188.495579,0
0.051042,-35.125272,-138.855019,181.814963,6.400218,4.264900,0.566014,-4.673345,-4.344607,-0.418437,4.481433,-0.234377,0.566781,-0.084238,-18.760951,188.721737,0
0.052083,39.440326,-175.834666,152.983523,5.902578,3.004551,2.431248,-5.132303,-3.120582,-2.348915,4.958184,-0.281866,0.567827,-0.061832,15.994678,188.495604,0
0.053125,108.765689,-176.112526,90.642614,4.658478,1.076750,4.030587,-4.677076,-1.165083,-3.977232,4.570379,-0.245336,0.560184,-0.102909,44.891727,188.570919,0
0.054167,150.404008,-178.613274,2.252462,2.995908,-0.794247,4.975110,-3.755428,0.713225,-4.955062,3.623992,-0.252642,0.556329,-0.061832,62.331747,188.495521,0
0.055208,165.773097,-137.598604,-73.334659,1.604778,-2.544534,5.030671,-1.990490,2.466558,-5.038995,1.994498,-0.194194,0.550842,-0.069301,70.011237,188.721737,0
0.056250,187.720835,-54.928978,-125.556250,0.586878,-4.241567,4.522692,0.039375,4.161079,-4.602539,0.019893,-0.190541,0.545485,-0.073035,79.341987,188.570801,0
0.057292,160.623601,18.172572,-166.168940,-0.204822,-4.838014,3.443237,1.632670,4.804335,-3.586940,-1.502866,-0.139399,0.554958,-0.073035,72.703017,188.570935,0
0.058333,111.623999,87.649851,-182.825190,-0.544122,-4.955173,1.359731,3.666267,4.936662,-1.505380,-3.470355,-0.077298,0.550515,-0.076769,53.261127,188.495613,0
0.059375,34.960038,139.042016,-181.643372,-0.510192,-4.227366,-0.513441,4.498363,4.297081,0.357951,-4.331354,-0.062686,0.569394,-0.076769,22.712818,188.721514,0
0.060417,-39.480792,176.251201,-152.590341,-0.001242,-2.974118,-2.386613,4.953590,3.010569,2.284233,-4.833010,-0.069992,0.569264,-0.061832,-11.748751,188.570825,0
0.061458,-108.862868,176.359929,-90.581818,1.186308,-1.110222,-3.981983,4.517019,1.124909,3.845403,-4.470110,-0.080951,0.563907,-0.087972,-39.118951,188.570834,0
0.062500,-150.512530,178.921080,-2.277841,2.860188,0.796278,-4.978098,3.554326,-0.764427,4.848413,-3.484586,-0.069992,0.559922,-0.080503,-56.411940,188.495499,0
0.063542,-165.892960,138.329243,73.383144,4.319178,2.578517,-4.946349,1.800582,-2.517759,4.940740,-1.894229,-0.139399,0.549405,-0.069301,-64.781340,188.721708,0
0.064583,-187.761301,55.007248,125.826326,5.303148,4.250698,-4.489962,-0.191969,-4.182874,4.483300,0.101723,-0.157664,0.551234,-0.084238,-73.263840,188.570852,0
0.065625,-160.981658,-18.106383,166.168182,6.083538,4.868447,-3.382727,-1.796459,-4.859212,3.463504,1.592461,-0.212459,0.549797,-0.076769,-66.534390,188.570960,0
0.066667,-111.482986,-87.366206,183.144508,6.411528,5.006908,-1.315095,-3.774085,-4.987863,1.419715,3.588413,-0.292825,0.546531,-0.043161,-47.386561,188.571000,0
0.067708,-34.626202,-138.770452,181.851894,6.400218,4.282651,0.490611,-4.654688,-4.333580,-0.410043,4.502780,-0.259948,0.565410,-0.065566,-16.849561,188.721793,0
0.068750,39.497039,-176.003798,152.835796,5.868648,3.040054,2.427280,-5.143497,-3.109555,-2.344719,4.958184,-0.289172,0.568414,-0.065566,15.463108,188.570984,0
0.069792,108.697634,-176.003798,91.208902,4.692408,1.140655,4.022650,-4.688270,-1.242274,-3.935265,4.545474,-0.234377,0.569721,-0.043161,44.767317,188.495459,0
0.070833,150.517433,-178.577031,2.917235,2.984598,-0.765845,4.983048,-3.744234,0.705874,-4.950865,3.652454,-0.259948,0.560314,-0.039427,61.856727,188.570884,0
0.071875,165.875179,-137.719414,-73.211553,1.570848,-2.548084,4.979079,-1.968102,2.455531,-5.009619,2.019403,-0.194194,0.550842,-0.058098,69.570147,188.721686,0
0.072917,187.720835,-54.626956,-125.753220,0.564258,-4.202514,4.546503,0.031913,4.197836,-4.606736,0.037682,-0.172276,0.523602,-0.087972,79.477707,188.570776,0
0.073958,160.544204,18.873264,-165.996591,-0.193512,-4.809612,3.431331,1.625208,4.815362,-3.528186,-1.477961,-0.113828,0.522230,-0.076769,69.954687,188.495685,0
0.075000,110.988819,88.253896,-182.689773,-0.521502,-4.969374,1.367668,3.640147,4.929310,-1.509577,-3.427661,-0.117481,0.550385,-0.099175,51.790827,188.570910,0
0.076042,33.916528,139.162825,-181.729546,-0.555432,-4.238017,-0.497567,4.539408,4.256648,0.383132,-4.402511,-0.051727,0.568545,-0.058098,23.018188,188.721666,0
0.077083,-40.195370,176.106230,-152.639584,0.010068,-2.991869,-2.370738,5.002097,3.051002,2.271643,-4.872146,-0.051727,0.568872,-0.087972,-11.726131,188.570875,0
0.078125,-108.828840,176.613628,-90.680303,1.186308,-1.067618,-4.005795,4.524482,1.121233,3.912550,-4.441647,-0.069992,0.567108,-0.084238,-40.182091,188.495423,0
0.079167,-150.773407,178.751948,-2.819508,2.860188,0.782077,-4.946349,3.561789,-0.793833,4.902970,-3.516607,-0.073645,0.560575,-0.058098,-58.289400,188.646306,0
0.080208,-166.471428,138.087625,72.952273,4.251318,2.571417,-4.926506,1.718492,-2.536138,4.957527,-1.830187,-0.124787,0.554435,-0.050629,-64.770030,188.646464,0
0.081250,-188.112919,55.067653,125.715531,5.291838,4.296852,-4.478056,-0.236746,-4.219632,4.512677,0.162207,-0.132093,0.537124,-0.046895,-73.795410,188.571018,0
0.082292,-160.607355,-18.637943,166.475947,6.094848,4.843595,-3.386696,-1.844966,-4.848185,3.446717,1.628040,-0.197847,0.546008,-0.061832,-67.507050,188.495419,0
0.083333,-111.108683,-87.873604,182.824432,6.422838,4.999807,-1.259535,-3.841249,-4.995215,1.377748,3.591971,-0.219765,0.563711,-0.043161,-47.578831,188.570915,0
0.084375,-33.457925,-139.036232,181.839584,6.388908,4.250698,0.562045,-4.729315,-4.307850,-0.489780,4.520569,-0.278213,0.555219,-0.043161,-18.512131,188.721665,0
0.085417,40.415781,-175.750099,152.971213,5.857338,3.025852,2.478871,-5.177080,-3.065446,-2.369899,5.004436,-0.281866,0.567565,-0.058098,15.926818,188.570941,0
0.086458,108.867772,-176.088365,90.975000,4.635858,1.087401,4.074242,-4.684539,-1.190814,-3.968839,4.573937,-0.274560,0.572073,-0.054364,44.744697,188.495589,0
0.087500,150.676228,-178.468303,3.409659,3.029838,-0.815549,5.034639,-3.736771,0.720577,-4.997029,3.638223,-0.281866,0.561882,-0.058098,62.456157,188.570817,0
0.088542,166.102029,-137.634847,-72.719129,1.570848,-2.572936,5.022733,-1.938251,2.466558,-5.038995,2.001613,-0.190541,0.555872,-0.080503,70.067787,188.646373,0
0.089583,188.027083,-55.025626,-125.691667,0.564258,-4.238017,4.510786,0.046838,4.201512,-4.619326,0.002104,-0.168623,0.517984,-0.065566,79.409847,188.571666,0
0.090625,160.396751,19.018235,-166.193561,-0.204822,-4.791860,3.391645,1.643865,4.852120,-3.553366,-1.506423,-0.110175,0.560445,-0.076769,72.567297,188.495197,0
0.091666,110.841367,88.410948,-182.899054,-0.566742,-5.004877,1.347825,3.658804,4.944013,-1.450823,-3.459681,-0.102869,0.554566,-0.065566,53.012307,188.570734,0
0.092708,33.167923,139.356120,-181.778788,-0.544122,-4.227366,-0.501535,4.524482,4.245621,0.332771,-4.374048,-0.073645,0.549209,-0.076769,22.226488,188.721454,0
0.093750,-40.807865,176.082068,-152.565720,-0.035172,-3.009621,-2.374707,5.050605,3.043651,2.250660,-4.847242,-0.059033,0.565018,-0.084238,-11.793991,188.570676,0
0.094791,-109.089718,176.311605,-90.692614,1.208928,-1.092470,-4.005795,4.584184,1.154315,3.874780,-4.473668,-0.029809,0.570897,-0.065566,-39.017161,188.495215,0
0.095833,-150.920860,178.667382,-3.078030,2.837568,0.782077,-4.993972,3.610296,-0.768102,4.936543,-3.552185,-0.099216,0.565475,-0.046895,-56.615520,188.648217,0
0.096875,-166.233235,138.619185,72.681440,4.273938,2.553665,-4.990004,1.785657,-2.532462,4.965920,-1.901344,-0.135746,0.558485,-0.054364,-64.962300,188.721891,0
0.097916,-187.874726,55.756264,125.949432,5.269218,4.261349,-4.482025,-0.233015,-4.219632,4.491694,0.126628,-0.154011,0.548882,-0.084238,-73.343010,188.571223,0
0.098958,-160.788835,-18.263435,166.254357,6.072228,4.832944,-3.410507,-1.785264,-4.888618,3.467701,1.613808,-0.194194,0.545420,-0.046895,-66.477840,188.495834,0
0.100000,-110.972573,-87.982332,183.169129,6.388908,4.985606,-1.350812,-3.811398,-4.969485,1.428108,3.545719,-0.230724,0.545681,-0.054364,-47.035951,188.646437,0
0.101041,-33.038252,-138.818776,182.110417,6.422838,4.293302,0.522359,-4.695733,-4.296822,-0.414240,4.445854,-0.263601,0.521707,-0.024490,-16.227511,188.646525,0
0.102083,41.016934,-175.870908,152.737311,5.868648,3.043604,2.439185,-5.173348,-3.113231,-2.315342,5.000878,-0.278213,0.567239,-0.050629,15.791098,188.571132,0
0.103125,109.128649,-175.991717,91.036553,4.692408,1.154856,4.058368,-4.747972,-1.212868,-3.981429,4.602399,-0.245336,0.566193,-0.054364,44.869107,188.495700,0
0.104166,150.642201,-178.419979,3.508144,3.052458,-0.762294,4.975110,-3.762890,0.672792,-4.946668,3.666686,-0.238030,0.562405,-0.054364,61.992447,188.646565,0
0.105208,166.192769,-138.214731,-72.411364,1.582158,-2.505481,5.030671,-2.012878,2.437152,-5.064176,2.058539,-0.190541,0.557701,-0.084238,69.739797,188.646433,0
0.106250,187.720835,-55.714237,-125.937879,0.564258,-4.202514,4.538566,0.031913,4.172106,-4.690670,0.069703,-0.157664,0.554762,-0.039427,79.477707,188.571103,0
0.107291,160.725684,18.051763,-166.242804,-0.216132,-4.777659,3.455143,1.602819,4.826389,-3.628907,-1.453056,-0.135746,0.532028,-0.054364,69.999927,188.495734,0
0.108333,111.045532,88.471352,-182.775948,-0.532812,-4.965824,1.363699,3.610296,4.969744,-1.538954,-3.427661,-0.091910,0.517069,-0.061832,51.530697,188.721817,0
0.109375,32.646168,139.416524,-181.951137,-0.544122,-4.301922,-0.493598,4.543139,4.271351,0.332771,-4.363374,-0.080951,0.566193,-0.058098,22.384828,188.571102,0
0.110416,-41.635868,176.009583,-152.578031,-0.012552,-3.023822,-2.374707,4.990903,3.003217,2.242267,-4.857915,-0.037115,0.567369,-0.061832,-12.223771,188.571080,0
0.111458,-109.316568,176.674032,-90.052462,1.231548,-1.117322,-3.989920,4.569259,1.143288,3.866387,-4.473668,-0.051727,0.563907,-0.065566,-40.317811,188.495707,0
0.112500,-150.875490,178.558653,-2.757955,2.860188,0.753674,-4.966192,3.617759,-0.775454,4.890380,-3.584206,-0.066339,0.567957,-0.073035,-58.481670,188.721924,0
0.113541,-166.403373,138.280919,72.484470,4.273938,2.543015,-4.974129,1.815508,-2.481002,4.970117,-1.922691,-0.110175,0.559008,-0.080503,-64.894440,188.570979,0
0.114583,-187.886069,56.324067,125.986364,5.291838,4.257799,-4.509805,-0.218089,-4.226983,4.546251,0.094608,-0.179582,0.557048,-0.073035,-73.761480,188.571183,0
0.115625,-160.652725,-17.454014,166.672917,6.060918,4.840045,-3.378759,-1.811384,-4.855536,3.480291,1.596019,-0.234377,0.549993,-0.035692,-67.473120,188.495776,0
0.116666,-111.494328,-87.764875,182.787501,6.411528,4.992707,-1.327001,-3.811398,-4.951106,1.423911,3.581297,-0.252642,0.528370,-0.065566,-47.443111,188.721909,0
0.117708,-32.924827,-139.072475,181.851894,6.377598,4.236497,0.534265,-4.669613,-4.285795,-0.447814,4.460086,-0.238030,0.552279,-0.054364,-17.969251,188.571103,0
0.118750,41.686141,-175.641371,152.811175,5.857338,3.040054,2.411405,-5.139766,-3.087501,-2.319539,4.958184,-0.259948,0.541762,-0.061832,16.435768,188.571207,0
0.119791,109.389527,-176.100446,90.199432,4.692408,1.133554,4.026619,-4.710658,-1.242274,-3.914282,4.588168,-0.252642,0.564756,-0.073035,45.004827,188.495743,0
0.120833,150.596831,-178.371656,2.978788,3.018528,-0.758744,4.990985,-3.818861,0.665440,-4.946668,3.620434,-0.245336,0.563646,-0.054364,62.603187,188.721915,0
0.121875,165.999947,-137.755656,-72.583712,1.593468,-2.512582,5.030671,-2.020341,2.415097,-5.030602,2.051423,-0.201500,0.564952,-0.073035,70.158267,188.571165,0
0.122916,187.573382,-56.342444,-125.974811,0.575568,-4.202514,4.582221,-0.016595,4.146376,-4.648703,0.087492,-0.154011,0.561098,-0.061832,79.251507,188.571156,0
0.123958,160.521519,17.616850,-166.402841,-0.204822,-4.838014,3.486891,1.591625,4.760226,-3.591136,-1.456614,-0.110175,0.564038,-0.080503,72.589917,188.495732,0
0.125000,111.329094,88.108925,-182.788258,-0.544122,-4.944522,1.367668,3.561789,4.932986,-1.496987,-3.406314,-0.095563,0.547706,-0.080503,52.865277,188.722014,0
0.126041,33.190608,139.404443,-181.692614,-0.532812,-4.202514,-0.513441,4.498363,4.260324,0.311788,-4.288660,-0.044421,0.555023,-0.073035,21.785398,188.571011,0
0.127083,-41.635868,176.082068,-152.184091,0.032688,-3.038023,-2.354864,4.972246,3.014245,2.204496,-4.800990,-0.044421,0.575012,-0.087972,-12.382111,188.571138,0
