1-Time,2-VGERA,3-VGERB,4-VGERC,5-VN,6-IGERAN,7-IGERBN,8-IGERCN,9-IGERAT,10-IGERBT,11-IGERCT,12-IN,13-IFD,14-IFAULT,15-VFAULT,16-Speed (rad/s),17-Active Power,18-Reactive Power,19-FAULT 
0.000000,-84.295012,-80.105582,200.896402,6.762138,3.011651,3.185279,-5.729322,-2.889010,-3.028780,5.509650,-0.274560,0.452397,-0.046895,-4.940131,188.344943,1614.250480,10.493480,0
0.001042,-22.818659,-136.511323,177.321591,6.253188,1.005744,4.915582,-5.303946,-0.951890,-4.782997,5.178771,-0.259948,0.452920,-0.069301,12.793948,188.495598,1615.165468,9.994179,0
0.002083,38.147281,-186.755803,130.011932,5.427558,-1.280635,6.185528,-4.158416,1.323400,-6.096562,4.100743,-0.230724,0.454684,-0.039427,26.626078,188.495602,1615.405262,9.915100,0
0.003125,92.772763,-195.852724,58.499621,4.059048,-3.357548,5.995036,-1.941982,3.499444,-6.000038,2.001613,-0.201500,0.447302,-0.028224,43.772037,188.495582,1615.648215,9.440310,0
0.004167,158.650006,-170.519068,-6.241856,2.781018,-4.845114,5.189414,0.196093,4.936662,-5.232043,-0.044148,-0.132093,0.444362,-0.009553,58.169667,188.344981,1615.602884,9.205945,0
0.005208,180.994732,-111.528014,-63.978599,1.706568,-5.477064,3.514672,2.345362,5.682839,-3.607923,-2.182414,-0.062686,0.438548,-0.028224,57.604167,188.495703,1615.429616,8.435884,0
0.006250,191.894875,-34.282713,-124.325190,0.598188,-5.633276,1.585940,4.203584,5.811490,-1.639674,-3.975569,-0.000585,0.435543,-0.013287,54.120687,188.478762,1615.331967,7.817939,0
0.007292,158.752089,32.101854,-168.889584,-0.283992,-4.486536,-0.501535,4.882694,4.705090,0.353755,-4.729833,-0.000585,0.434368,-0.046895,32.914438,188.495736,1614.986829,7.648009,0
0.008343,81.668455,81.512751,-201.401895,-0.883422,-2.874710,-3.089052,5.580460,3.117166,2.959901,-5.373803,0.003068,0.415685,-0.061832,9.061648,188.359968,1614.534925,8.438234,0
0.009375,21.451120,136.420460,-177.531629,-0.419712,-0.900755,-4.759826,5.166278,1.198424,4.714119,-5.042923,-0.004238,0.406735,-0.043161,-6.319951,188.495200,1613.582420,8.542392,0
0.010417,-38.607420,186.677021,-129.360228,0.439848,1.360772,-6.009930,4.076718,-1.128326,5.952143,-4.043168,-0.044421,0.421956,-0.031958,-22.120021,188.495233,1612.269081,9.254715,0
0.011458,-92.869942,196.329663,-57.638637,1.797048,3.455436,-5.847218,1.837896,-3.315397,5.943750,-1.872882,-0.102869,0.443970,-0.043161,-38.123671,188.495278,1612.063915,8.700853,0
0.012500,-158.769870,170.210749,6.918182,2.984598,4.911050,-5.085250,-0.236746,-4.741588,5.154771,0.147975,-0.132093,0.443121,-0.020755,-54.002910,188.419882,1611.421835,8.674209,0
0.013542,-181.693064,111.702931,64.211743,4.138218,5.571402,-3.434319,-2.427060,-5.384844,3.522258,2.200853,-0.164970,0.442990,-0.031958,-52.317720,188.495278,1609.138618,9.261056,0
0.014583,-192.082794,34.336821,124.287500,5.257908,5.716963,-1.453995,-4.270357,-5.506144,1.583386,4.072280,-0.230724,0.431101,-0.039427,-48.166950,188.495217,1607.277235,9.172619,0
0.015625,-158.905980,-31.649076,168.851894,6.151398,4.552472,0.625543,-4.983048,-4.506340,-0.468797,4.830102,-0.223418,0.447563,-0.031958,-30.738241,188.495197,1606.880469,9.226489,0
0.016667,-83.319557,-80.129744,200.699432,6.773448,2.976149,3.153530,-5.740517,-2.859604,-3.016190,5.484745,-0.241683,0.426333,-0.043161,-5.471701,188.480007,1606.086563,9.367318,0
0.017708,-21.570984,-136.330110,177.617046,6.298428,1.083850,4.836210,-5.281558,-0.926160,-4.728440,5.143192,-0.230724,0.418820,-0.054364,12.386788,188.495133,1605.110019,9.659470,0
0.018761,38.771118,-187.565223,129.088637,5.438868,-1.273534,6.137905,-4.162147,1.356481,-6.058792,4.090070,-0.230724,0.451809,-0.028224,27.474328,188.511806,1604.801664,9.837702,0
0.019793,92.750078,-195.985614,58.832008,4.104288,-3.325595,5.991068,-1.997953,3.477389,-6.012628,2.008729,-0.154011,0.451548,-0.024490,43.805967,188.495743,1604.919015,10.023831,0
0.020833,158.547924,-170.301612,-5.343182,2.837568,-4.806061,5.205288,0.151317,4.903580,-5.278207,-0.005012,-0.117481,0.447629,-0.031958,59.017917,188.420417,1604.956569,10.668456,0
0.021875,181.448432,-112.579052,-63.658523,1.774428,-5.452212,3.534514,2.285660,5.613000,-3.633103,-2.136162,-0.062686,0.447890,-0.043161,58.305387,188.495828,1604.493300,11.149283,0
0.022916,191.713395,-35.502885,-124.731440,0.586878,-5.633276,1.625626,4.102837,5.774733,-1.673248,-3.954222,-0.073645,0.441880,-0.050629,54.064137,188.495664,1604.165781,11.278860,0
0.023958,159.296529,30.579660,-169.172728,-0.329232,-4.525589,-0.453912,4.871500,4.774929,0.370542,-4.694254,-0.044421,0.441553,-0.020755,35.753248,188.495622,1604.644931,11.063272,0
0.025000,84.798986,80.183852,-200.318561,-0.894732,-2.910213,-3.021586,5.580460,3.131869,2.909541,-5.437844,0.006721,0.438418,-0.069301,10.758148,188.420224,1605.169824,10.346895,0
0.026041,23.413373,136.577512,-177.740910,-0.476262,-0.943359,-4.747920,5.173740,1.154315,4.709922,-5.092733,-0.029809,0.446975,-0.035692,-6.319951,188.495700,1605.812038,9.419547,0
0.027083,-37.461827,186.435403,-130.332766,0.451158,1.360772,-6.037710,4.058061,-1.150380,5.994110,-4.014705,-0.048074,0.452920,-0.035692,-22.561111,188.476119,1606.167295,8.146213,0
0.028125,-92.858600,196.088045,-59.632955,1.751808,3.430584,-5.851186,1.834164,-3.274964,5.964733,-1.933365,-0.069992,0.448086,-0.058098,-39.028471,188.492942,1606.572906,8.590046,0
0.029175,-159.881435,170.524852,7.164394,2.984598,4.953654,-5.069375,-0.296448,-4.734237,5.167361,0.183554,-0.146705,0.445865,-0.024490,-54.104700,188.438449,1607.069899,8.531100,0
0.030208,-181.897229,112.862697,63.854735,4.047738,5.564301,-3.430350,-2.430791,-5.443656,3.539045,2.200853,-0.168623,0.444428,-0.039427,-53.991600,188.496491,1608.158716,8.129861,0
0.031250,-192.207562,36.269766,124.435228,5.257908,5.713413,-1.450027,-4.307671,-5.594362,1.574992,4.072280,-0.238030,0.447694,-0.002084,-49.275330,188.495834,1609.409001,7.585622,0
0.032292,-159.484448,-30.489310,169.245834,6.117468,4.570223,0.601731,-4.997974,-4.521043,-0.435223,4.794523,-0.219765,0.452071,-0.043161,-31.043611,188.495716,1609.356851,7.729818,0
0.033333,-84.680657,-79.900207,200.662501,6.739518,2.951297,3.153530,-5.721860,-2.929443,-3.016190,5.506093,-0.241683,0.464156,-0.024490,-4.974061,188.495752,1610.242908,7.929308,0
0.034375,-22.943427,-135.991844,177.666288,6.298428,1.019945,4.907644,-5.225588,-0.951890,-4.745227,5.153866,-0.256295,0.452528,-0.039427,12.714778,188.495664,1610.563918,7.581216,0
0.035417,37.807006,-186.320890,130.048864,5.393628,-1.252233,6.145843,-4.143490,1.297669,-6.096562,4.125648,-0.216112,0.449980,-0.028224,26.490358,188.495754,1610.838665,7.725856,0
0.036458,92.443831,-195.973533,58.770455,4.070358,-3.322045,5.995036,-1.923325,3.495768,-5.974858,2.040750,-0.157664,0.444689,-0.043161,43.625007,188.487655,1610.587516,7.773032,0
0.037500,158.343759,-170.422421,-5.958712,2.814948,-4.830913,5.189414,0.173705,4.918283,-5.211060,-0.033475,-0.157664,0.442925,-0.043161,58.158357,188.419690,1610.026668,7.107660,0
0.038542,181.108157,-111.914603,-63.769318,1.729188,-5.438011,3.506734,2.319242,5.624027,-3.591136,-2.121931,-0.077298,0.440116,-0.035692,57.536307,188.551310,1609.525130,7.060110,0
0.039591,191.928903,-33.304160,-125.186932,0.519018,-5.597773,1.585940,4.121494,5.715921,-1.601904,-3.968453,-0.018850,0.463176,-0.002084,53.951037,188.495247,1608.717708,6.875288,0
0.040625,158.922226,31.981045,-168.618751,-0.295302,-4.479436,-0.497567,4.834186,4.738171,0.362148,-4.655118,-0.044421,0.399941,-0.039427,33.061468,188.509993,1607.710433,7.430167,0
0.041667,83.573995,80.510036,-200.453978,-0.917352,-2.888911,-2.989837,5.546877,3.117166,2.867574,-5.331109,-0.007891,0.415489,-0.043161,9.593218,188.571102,1605.998417,8.184115,0
0.042708,21.655285,135.949305,-177.864016,-0.487572,-0.946909,-4.708234,5.125233,1.157991,4.655365,-5.042923,-0.037115,0.442795,-0.050629,-6.206851,188.495640,1604.707158,8.847404,0
0.043750,-38.448625,185.988409,-129.421781,0.405918,1.332370,-5.986118,4.058061,-1.084217,5.952143,-3.975569,-0.018850,0.414117,-0.058098,-22.006921,188.495716,1603.436458,9.916550,0
0.044792,-92.563695,196.365906,-57.897159,1.819668,3.377330,-5.827375,1.841627,-3.252909,5.889193,-1.947596,-0.102869,0.439724,-0.091706,-37.999261,188.495564,1602.291576,10.614659,0
0.045833,-158.214088,170.198668,6.314962,3.052458,4.868447,-5.041595,-0.236746,-4.668073,5.112804,0.115955,-0.117481,0.440965,-0.058098,-54.002910,188.571131,1600.473482,10.944768,0
0.046875,-181.727091,112.162005,63.965530,4.115598,5.560751,-3.386696,-2.374821,-5.355438,3.484488,2.147485,-0.172276,0.439006,-0.039427,-52.227240,188.440422,1598.626235,11.414919,0
0.047917,-191.855944,34.578439,123.905872,5.212668,5.681461,-1.461933,-4.188267,-5.495117,1.612763,4.011797,-0.223418,0.441357,-0.031958,-48.166950,188.495732,1596.697444,12.595134,0
0.048973,-157.919183,-32.603468,169.528978,6.128778,4.516969,0.609668,-4.934541,-4.403419,-0.468797,4.769618,-0.223418,0.412222,-0.043161,-30.206671,188.553440,1595.096214,12.670923,0
0.050010,-82.661692,-80.963327,200.933334,6.762138,2.951297,3.157499,-5.684546,-2.866956,-2.982616,5.470514,-0.263601,0.451417,-0.046895,-5.166331,188.569434,1594.002917,13.349933,0
0.051042,-22.104082,-135.762307,178.023296,6.332358,1.073199,4.792556,-5.262901,-0.955566,-4.707457,5.136076,-0.256295,0.442599,-0.035692,12.239758,188.494587,1593.460180,13.773687,0
0.052083,38.067883,-185.861816,130.208902,5.472798,-1.209629,6.118063,-4.203192,1.290318,-6.058792,4.125648,-0.194194,0.447041,-0.054364,27.044548,188.495365,1592.906224,13.975590,0
0.053130,92.738736,-195.852724,58.967424,4.104288,-3.282992,5.971225,-1.997953,3.414901,-5.970661,2.062097,-0.168623,0.448608,-0.058098,43.794657,188.494885,1592.450681,14.989809,0
0.054172,158.876856,-170.096236,-5.835606,2.882808,-4.788310,5.209257,0.143854,4.892553,-5.206863,-0.047706,-0.124787,0.451352,-0.043161,59.063157,188.570607,1592.209353,15.075327,0
0.055209,181.516487,-112.977722,-63.621591,1.729188,-5.409609,3.558326,2.229690,5.583594,-3.662480,-2.061448,-0.095563,0.451940,-0.035692,58.282767,188.495472,1592.354195,16.135334,0
0.056250,191.588628,-35.829069,-124.460606,0.552948,-5.601324,1.570065,4.058061,5.704894,-1.702625,-3.900854,-0.059033,0.452136,-0.050629,54.075447,188.495056,1591.945082,16.746370,0
0.057292,159.840969,30.325961,-168.988069,-0.283992,-4.511388,-0.477724,4.871500,4.727144,0.311788,-4.690696,-0.026156,0.446583,-0.046895,35.968138,188.510357,1592.462005,16.347136,0
0.058333,85.309398,80.123448,-199.936932,-0.883422,-2.952816,-2.989837,5.595385,3.095111,2.854984,-5.377361,-0.007891,0.440443,-0.028224,10.803388,188.571706,1592.876533,15.618152,0
0.059385,22.619398,137.374852,-176.829925,-0.487572,-0.858152,-4.759826,5.158815,1.128585,4.693135,-5.032250,-0.029809,0.444624,-0.039427,-6.670561,188.549775,1593.207436,15.095940,0
0.060420,-37.756732,186.471645,-130.111175,0.383298,1.293317,-5.986118,4.035673,-1.091568,5.973126,-4.000474,-0.055380,0.453769,-0.058098,-22.719451,188.487072,1593.955496,14.802103,0
0.061458,-92.824572,196.293420,-59.805303,1.672638,3.384431,-5.871029,1.871478,-3.227179,5.935356,-1.961828,-0.062686,0.453769,-0.024490,-38.971921,188.495170,1594.659229,14.748427,0
0.062500,-158.849268,170.561095,5.059280,2.984598,4.886198,-5.061438,-0.240477,-4.697479,5.158968,0.133744,-0.113828,0.449131,-0.024490,-54.025530,188.570776,1595.727447,14.257448,0
0.063541,-181.851859,113.092235,63.768561,4.070358,5.560751,-3.382727,-2.389746,-5.410575,3.610388,2.218642,-0.172276,0.446518,-0.028224,-53.980290,188.495389,1597.817217,14.227534,0
0.064583,-192.150849,36.378494,124.250569,5.212668,5.713413,-1.457964,-4.214386,-5.546577,1.595976,4.033144,-0.219765,0.434956,-0.031958,-49.297950,188.495309,1598.897006,13.403197,0
0.065625,-159.836065,-30.247691,168.999622,6.083538,4.591525,0.593794,-4.990511,-4.554125,-0.456207,4.758945,-0.241683,0.454422,-0.039427,-31.224571,188.495392,1600.479900,13.266622,0
0.066666,-85.247782,-79.839802,200.354735,6.750828,3.018752,3.109876,-5.680815,-2.896362,-2.953239,5.474072,-0.248989,0.450634,-0.031958,-5.155021,188.646044,1600.625689,12.711148,0
0.067708,-22.898057,-135.871035,177.814016,6.321048,1.027046,4.871927,-5.259170,-0.933511,-4.766210,5.157424,-0.245336,0.439986,-0.028224,12.748708,188.495401,1601.372609,11.906825,0
0.068750,37.897746,-185.970544,130.221213,5.416248,-1.238032,6.114094,-4.154684,1.327075,-6.079775,4.129206,-0.223418,0.440769,-0.058098,26.456428,188.511166,1601.762540,11.404565,0
0.069791,92.432488,-196.082261,58.832008,4.070358,-3.343347,5.983131,-2.005415,3.488416,-5.966465,2.019403,-0.172276,0.444166,-0.020755,43.591077,188.495816,1602.021244,10.184513,0
0.070842,159.001624,-170.362016,-7.485227,2.803638,-4.820262,5.145759,0.151317,4.936662,-5.177486,-0.047706,-0.121134,0.441815,-0.035692,58.113117,188.626800,1602.278950,10.276436,0
0.071875,181.210240,-112.047493,-63.818561,1.729188,-5.452212,3.530546,2.296854,5.598297,-3.595333,-2.107700,-0.099216,0.440835,-0.076769,57.536307,188.495617,1601.871056,9.442510,0
0.072917,191.622655,-34.536412,-123.795834,0.530328,-5.608424,1.613720,4.091643,5.760030,-1.698428,-3.911528,-0.040768,0.437634,-0.050629,54.188547,188.495687,1602.286792,9.752306,0
0.073958,159.239816,31.775670,-168.458713,-0.295302,-4.461684,-0.457881,4.834186,4.752874,0.345361,-4.690696,-0.004238,0.429076,-0.005818,33.163258,188.797516,1602.299489,10.129281,0
0.075000,83.800845,80.461713,-200.084660,-0.883422,-2.906662,-2.981900,5.550609,3.150247,2.867574,-5.359571,0.021333,0.412745,-0.035692,9.672388,189.023337,1602.330421,11.105126,0
0.076042,21.768710,135.768091,-177.999432,-0.419712,-0.954009,-4.680454,5.143890,1.132261,4.638578,-5.053597,-0.022503,0.465789,-0.043161,-6.184231,188.872765,1601.903101,11.404239,0
0.077083,-38.369227,185.746791,-129.717235,0.428538,1.296867,-5.986118,4.080449,-1.032756,5.935356,-3.979127,-0.066339,0.412810,-0.024490,-21.995611,188.797306,1600.840006,12.240937,0
0.078125,-92.495640,196.704171,-58.217235,1.763118,3.370229,-5.835312,1.882672,-3.241882,5.893389,-1.958270,-0.121134,0.446518,-0.017021,-37.942711,188.797324,1600.314421,12.387629,0
0.079167,-158.100663,170.089940,6.142614,3.041148,4.840045,-5.069375,-0.203164,-4.612937,5.108608,0.108839,-0.106522,0.442337,-0.054364,-54.036840,188.812212,1598.592620,13.217635,0
0.080208,-181.863201,112.500270,63.953220,4.149528,5.511047,-3.406539,-2.322582,-5.355438,3.560028,2.119022,-0.164970,0.444493,-0.058098,-52.261170,188.872615,1597.040511,14.162143,0
0.081259,-192.026082,33.926071,125.235417,5.325768,5.685011,-1.517493,-4.221849,-5.495117,1.612763,4.026028,-0.212459,0.449784,-0.043161,-48.076470,188.781580,1596.390844,15.408413,0
0.082292,-159.563845,-31.238326,168.544129,6.117468,4.566673,0.569982,-4.923347,-4.506340,-0.401650,4.726924,-0.208806,0.442207,-0.061832,-31.066231,188.872809,1595.330142,16.229684,0
0.083333,-84.351724,-80.069340,199.948485,6.762138,3.032953,3.074159,-5.673352,-2.844901,-2.949042,5.434936,-0.241683,0.422282,-0.035692,-5.811001,188.945837,1594.264187,16.108873,0
0.084375,-22.319589,-135.593174,178.134091,6.354978,1.080300,4.792556,-5.277827,-0.955566,-4.686473,5.143192,-0.252642,0.442207,-0.031958,12.194518,188.872037,1593.396492,16.962305,0
0.085417,37.841033,-185.487308,130.418182,5.472798,-1.191878,6.086314,-4.195729,1.279291,-6.016825,4.161226,-0.205153,0.449915,-0.061832,26.965378,188.797478,1592.693222,17.842522,0
0.086458,92.262351,-196.299717,59.656818,4.081668,-3.265241,5.931539,-2.012878,3.403874,-6.012628,2.069213,-0.139399,0.446649,-0.065566,43.647627,188.872867,1593.038178,18.932145,0
0.087500,158.162279,-170.168722,-4.641477,2.905428,-4.759908,5.173540,0.072958,4.852120,-5.211060,-0.005012,-0.121134,0.449523,-0.050629,58.995297,188.950620,1592.239281,19.057273,0
0.088542,181.595885,-113.521363,-63.350758,1.774428,-5.406058,3.558326,2.225958,5.601973,-3.616317,-2.025869,-0.077298,0.444232,-0.050629,58.305387,188.873027,1592.482653,19.573534,0
0.089583,191.475203,-36.167334,-124.189773,0.586878,-5.587123,1.641500,4.069255,5.734300,-1.706821,-3.883065,-0.037115,0.449719,-0.028224,54.131997,188.812167,1592.196634,19.356749,0
0.090634,159.092364,31.087058,-169.406629,-0.317922,-4.451034,-0.505504,4.864037,4.701414,0.341165,-4.683581,0.017680,0.440508,-0.054364,35.481808,188.997199,1591.853160,18.991192,0
0.091667,85.524906,80.183852,-199.838448,-0.883422,-2.935065,-2.969994,5.535683,3.095111,2.821410,-5.377361,-0.018850,0.447302,-0.039427,10.871248,188.995933,1591.646560,18.318652,0
0.092708,23.617538,136.130518,-177.925569,-0.453642,-0.982412,-4.724108,5.136427,1.183721,4.667955,-5.071386,-0.033462,0.447890,-0.024490,-6.353881,188.810122,1592.409583,18.227289,0
0.093750,-37.246320,185.831358,-130.763637,0.371988,1.296867,-6.001992,4.076718,-1.095244,5.973126,-4.043168,-0.044421,0.447237,-0.024490,-22.436701,188.812327,1593.721507,17.307982,0
0.094792,-92.665777,196.377987,-59.792993,1.695258,3.387981,-5.902778,1.852821,-3.274964,5.968930,-1.940481,-0.069992,0.448804,-0.031958,-38.915371,188.872729,1594.863077,16.484047,0
0.095833,-158.905980,170.561095,4.985417,2.950668,4.886198,-5.045564,-0.229283,-4.664397,5.150575,0.119513,-0.168623,0.445603,-0.024490,-54.070770,188.947979,1596.191662,15.960096,0
0.096875,-181.942599,113.406338,63.571591,4.092978,5.546550,-3.378759,-2.427060,-5.406899,3.551635,2.218642,-0.168623,0.445473,-0.031958,-53.968980,188.872622,1597.357226,14.324500,0
0.097917,-192.116822,36.281847,124.225947,5.257908,5.752466,-1.461933,-4.247969,-5.539226,1.600173,4.047375,-0.186888,0.448870,-0.043161,-49.331880,188.797117,1598.031307,13.017888,0
0.098958,-159.779353,-30.416824,168.999622,6.117468,4.595075,0.605700,-4.975586,-4.506340,-0.464600,4.780292,-0.230724,0.441161,-0.017021,-31.224571,188.948093,1598.871233,11.754965,0
0.100000,-85.123014,-79.791479,200.367046,6.728208,3.022302,3.185279,-5.680815,-2.874307,-2.982616,5.509650,-0.263601,0.451091,-0.039427,-5.132401,188.815539,1600.361021,11.378948,0
0.101052,-21.877232,-136.849588,176.742993,6.298428,0.966691,4.955267,-5.247976,-0.904105,-4.745227,5.128961,-0.219765,0.449588,-0.039427,12.997528,188.872635,1600.552903,10.933255,0
0.102085,37.977143,-186.175920,130.036553,5.382318,-1.241582,6.169654,-4.199461,1.367509,-6.075579,4.114974,-0.212459,0.443644,-0.039427,26.512978,188.797373,1601.228272,9.581237,0
0.103125,92.251008,-196.142665,58.967424,4.036428,-3.336246,5.959319,-1.968102,3.459010,-6.004235,1.990940,-0.168623,0.447106,-0.035692,43.579767,189.010011,1600.998139,8.421665,0
0.104167,158.071539,-170.543230,-5.761742,2.792328,-4.802511,5.189414,0.140122,4.921959,-5.232043,-0.072611,-0.135746,0.443774,-0.009553,58.169667,188.948579,1601.993950,7.617241,0
0.105208,181.187555,-112.204544,-63.609280,1.729188,-5.445111,3.498797,2.330437,5.642406,-3.612120,-2.146836,-0.062686,0.442272,-0.050629,57.570237,188.873177,1602.549981,6.638268,0
0.106250,191.792793,-34.488089,-123.808144,0.575568,-5.629726,1.621657,4.132688,5.822518,-1.648068,-3.968453,-0.026156,0.431232,-0.017021,54.211167,188.797759,1603.913916,5.983411,0
0.107292,159.081021,31.751508,-168.507955,-0.261372,-4.490087,-0.481692,4.871500,4.778605,0.357951,-4.704928,-0.026156,0.422282,-0.039427,33.129328,188.948635,1604.641344,6.342465,0
0.108333,83.562653,80.244257,-200.330872,-0.894732,-2.885361,-3.049366,5.599117,3.161275,2.901147,-5.409381,-0.022503,0.417775,-0.035692,9.649768,188.948481,1605.694147,6.787086,0
0.109375,21.530518,135.913062,-177.864016,-0.498882,-0.936258,-4.779669,5.181203,1.180045,4.701529,-5.060712,-0.018850,0.423328,-0.017021,-6.150301,188.873157,1605.672017,7.146318,0
0.110417,-38.301172,186.145461,-129.643372,0.439848,1.325269,-6.025804,4.091643,-1.106271,5.960536,-4.043168,-0.059033,0.450242,-0.031958,-21.972991,188.814661,1605.484273,7.732459,0
0.111466,-92.983367,196.063883,-57.392424,1.853598,3.437685,-5.863092,1.837896,-3.274964,5.893389,-1.879997,-0.048074,0.444754,-0.035692,-38.338561,188.948534,1603.974174,7.832947,0
