1-Time,2-VGERA,3-VGERB,4-VGERC,5-VN,6-IGERAN,7-IGERBN,8-IGERCN,9-IGERAT,10-IGERBT,11-IGERCT,12-IN,13-IFD,14-IFAULT,15-VFAULT,16-Speed (rad/s),17-Active Power,18-Reactive Power,19-FAULT 
0.000000,-93.396781,-77.342300,193.070775,4.029838,3.458696,2.727004,-5.850736,-3.351407,-2.904819,5.733182,0.132068,0.471848,0.000144,-41.919532,188.344847,1610.723517,-11.119126,0
0.001042,-25.947527,-133.824053,185.451677,3.849689,1.579926,4.362257,-5.460257,-1.444858,-4.401694,5.146774,0.106545,0.475706,-0.007290,-12.749213,188.269447,1610.625447,-11.429197,0
0.002083,36.868758,-177.492001,137.112327,2.937686,-0.706155,5.470141,-4.099381,0.966812,-5.596606,3.821645,0.037267,0.468334,-0.025873,14.282024,188.420220,1611.074020,-12.837965,0
0.003125,90.317405,-195.203476,62.914219,1.519014,-2.977559,5.784927,-2.154719,3.203778,-5.726019,1.784450,0.051852,0.457310,-0.025873,39.230472,188.495810,1611.123864,-13.908025,0
0.004167,151.235302,-165.641286,1.122969,0.314269,-4.507729,5.057240,0.033509,4.814090,-5.053072,-0.389828,-0.002841,0.453589,-0.018440,63.458386,188.345012,1610.805772,-14.117597,0
0.005208,184.558782,-116.100833,-59.562480,-0.867958,-5.399411,3.614129,2.229468,5.661023,-3.508746,-2.465102,-0.061180,0.452831,-0.040740,80.345873,188.269554,1609.858049,-14.026031,0
0.006250,189.078752,-38.337121,-117.987717,-1.971369,-5.465462,1.676354,4.104540,5.801546,-1.563239,-4.418524,-0.072118,0.439396,-0.022156,84.139928,188.420376,1609.699830,-15.220616,0
0.007292,161.382635,25.861104,-163.763065,-2.849594,-4.859999,-0.363624,5.272110,5.098933,0.481484,-5.431410,-0.101287,0.474672,-0.051890,72.386238,188.495731,1609.328975,-16.079631,0
0.008333,92.633889,77.456933,-192.732650,-3.446337,-3.168372,-2.714300,5.770840,3.462036,2.866994,-5.983547,-0.134103,0.478944,-0.059323,42.146378,188.420414,1608.971738,-16.169887,0
0.009375,24.710038,133.468886,-185.551012,-3.311226,-1.234559,-4.333200,5.399692,1.502317,4.385438,-5.454257,-0.119518,0.411629,-0.037023,12.525726,188.269434,1608.984239,-15.906689,0
0.010417,-37.428251,176.807974,-136.713443,-2.365445,0.974463,-5.490142,4.054280,-0.886566,5.524271,-4.171015,-0.050241,0.423549,-0.033307,-13.222063,188.420294,1608.591244,-16.003649,0
0.011458,-90.176303,195.423815,-62.721915,-0.946773,3.264214,-5.772223,2.128949,-3.096947,5.670939,-2.160474,-0.046595,0.460341,-0.044457,-37.787727,188.495723,1608.374797,-15.974523,0
0.012500,-150.890801,165.239139,-1.283062,0.212935,4.724665,-5.077240,-0.047680,-4.722451,5.006619,-0.009044,0.008098,0.459859,-0.033307,-63.726907,188.420276,1607.131777,-14.743992,0
0.013542,-185.027876,116.626542,59.523903,1.383902,5.667719,-3.679099,-2.216577,-5.607363,3.552882,2.138579,0.015390,0.459308,-0.022156,-78.475312,188.344798,1607.806662,-13.088501,0
0.014583,-188.790751,39.544041,118.325842,2.509832,5.752117,-1.688179,-4.099381,-5.717502,1.581493,4.076771,0.081021,0.461444,-0.022156,-83.654142,188.420325,1607.114235,-12.650603,0
0.015625,-161.840429,-24.243109,164.465739,3.410576,5.161332,0.327271,-5.328809,-5.083252,-0.450289,5.108696,0.106545,0.452073,-0.037023,-70.909718,188.495752,1607.210029,-11.941554,0
0.016667,-94.436374,-77.095655,192.110793,3.917245,3.444019,2.694299,-5.769547,-3.381790,-2.878937,5.691296,0.106545,0.489486,-0.025873,-41.255291,188.420363,1606.612231,-11.745923,0
0.017708,-26.670722,-133.929758,185.804075,3.815911,1.634968,4.390874,-5.452525,-1.498029,-4.362870,5.112504,0.117483,0.474879,-0.018440,-12.130005,188.344912,1606.218454,-11.286533,0
0.018750,36.461961,-176.552400,137.914337,2.903908,-0.669461,5.457877,-4.203766,0.879460,-5.544841,3.867339,0.088314,0.468609,-0.040740,13.786658,188.420374,1605.688571,-10.216397,0
0.019792,90.260905,-195.579316,64.238751,1.530273,-2.955542,5.768575,-2.216577,3.180991,-5.717392,1.833952,0.059144,0.463580,-0.044457,38.588747,188.495671,1605.974892,-9.962918,0
0.020833,151.088403,-165.570816,2.411046,0.359306,-4.438009,5.085857,-0.012885,4.779909,-5.044445,-0.347942,0.015390,0.458963,-0.037023,64.888193,188.418838,1605.497796,-9.789070,0
0.021875,185.180278,-117.228354,-59.137171,-0.822920,-5.410419,3.683627,2.156012,5.687609,-3.538942,-2.480333,-0.064826,0.459308,-0.051890,79.231299,188.345281,1606.492333,-10.143758,0
0.022917,188.762354,-39.535112,-118.157841,-1.960110,-5.502156,1.696795,4.038816,5.786354,-1.636573,-4.395677,-0.075764,0.461306,-0.025873,83.295554,188.420131,1606.430599,-9.525298,0
0.023958,162.015431,24.804053,-164.054705,-2.883372,-4.889354,-0.302302,5.283708,5.152104,0.416777,-5.412371,-0.090349,0.473708,-0.029590,70.843847,188.495454,1606.921372,-8.807089,0
0.025000,93.967281,77.374718,-192.173673,-3.412560,-3.241761,-2.697947,5.755376,3.462036,2.823856,-5.968316,-0.097641,0.474466,-0.037023,41.594720,188.420197,1606.583237,-8.778607,0
0.026042,25.421933,133.504121,-185.842652,-3.254929,-1.333635,-4.353641,5.395826,1.513710,4.350928,-5.477104,-0.112226,0.451522,-0.044457,12.278042,188.413063,1606.717717,-8.594563,0
0.027083,-37.168353,176.502603,-137.053690,-2.354185,0.978133,-5.461525,4.104540,-0.840991,5.550153,-4.182438,-0.079410,0.437329,-0.018440,-14.167762,188.420320,1606.962904,-8.286187,0
0.028125,-90.018104,195.693950,-62.661156,-0.946773,3.242198,-5.804928,2.132815,-3.100745,5.705449,-2.202361,0.000805,0.456345,-0.029590,-38.564552,188.495208,1607.643868,-7.878732,0
0.029167,-150.710003,165.168669,-0.724086,0.224195,4.735673,-5.036359,-0.012885,-4.695865,5.015247,-0.001428,0.000805,0.455036,-0.040740,-63.862007,188.336980,1607.401272,-7.574820,0
0.030208,-184.914877,116.250702,59.827695,1.406421,5.678727,-3.621865,-2.212711,-5.576980,3.526999,2.161426,0.051852,0.456001,-0.025873,-79.826311,188.268975,1606.879937,-7.791997,0
0.031250,-188.835951,38.592695,118.022050,2.509832,5.700744,-1.675914,-4.145774,-5.728896,1.581493,4.080578,0.088314,0.474672,-0.014723,-82.753476,188.419724,1606.879380,-7.550442,0
0.032292,-161.603131,-25.476335,163.894611,3.410576,5.161332,0.376328,-5.305612,-5.075656,-0.480485,5.116311,0.073729,0.442978,-0.040740,-72.767342,188.494609,1606.701409,-7.572361,0
0.033333,-93.182083,-77.354045,192.195854,3.951023,3.513738,2.677947,-5.827539,-3.404578,-2.887564,5.676064,0.095606,0.467369,-0.044457,-42.471190,188.495886,1606.519505,-6.982711,0
0.034375,-25.167832,-133.412978,185.864833,3.838430,1.642307,4.382698,-5.491186,-1.482837,-4.375812,5.142966,0.102898,0.467989,-0.040740,-13.064446,188.269570,1606.676421,-6.715473,0
0.035417,36.981757,-176.458440,137.987247,2.926427,-0.662122,5.449701,-4.226963,0.871864,-5.553469,3.905418,0.051852,0.466267,-0.040740,13.876724,188.489732,1607.092758,-6.196281,0
0.036458,90.001007,-195.450121,64.421026,1.541533,-2.944534,5.797192,-2.220443,3.154405,-5.717392,1.864415,0.029975,0.466336,-0.051890,39.162922,188.420578,1606.997071,-5.757358,0
0.037500,150.952804,-165.700011,2.678383,0.348047,-4.430670,5.102209,-0.047680,4.749526,-5.070327,-0.317479,-0.013779,0.464131,-0.029590,63.559711,188.495962,1606.977596,-5.215071,0
0.038542,185.022079,-117.839095,-58.930593,-0.856698,-5.373725,3.691804,2.101886,5.664821,-3.582080,-2.411792,-0.035656,0.459721,-0.014723,80.413423,188.269751,1606.805861,-4.283927,0
0.039583,189.157851,-40.885788,-117.939111,-1.960110,-5.480139,1.733588,3.996288,5.850918,-1.632259,-4.342368,-0.086703,0.467782,-0.063040,84.049862,188.495926,1607.327471,-4.269858,0
0.040625,162.275329,23.934922,-164.079008,-2.860854,-4.926049,-0.294125,5.210252,5.152104,0.408150,-5.446642,-0.083057,0.457103,-0.051890,72.712729,188.495834,1607.737081,-4.692648,0
0.041667,95.492770,76.975388,-191.784820,-3.356263,-3.212405,-2.591656,5.739911,3.439248,2.789346,-5.991163,-0.093995,0.477566,-0.037023,43.002010,188.495776,1607.792086,-5.145425,0
0.042708,26.947423,133.233986,-186.012776,-3.288707,-1.399686,-4.337288,5.395826,1.585870,4.346614,-5.454257,-0.119518,0.476877,-0.022156,12.852217,188.269111,1607.784178,-5.015465,0
0.043750,-36.332158,175.774413,-137.965066,-2.376704,0.912082,-5.428820,4.112272,-0.784023,5.476819,-4.167207,-0.075764,0.463786,-0.037023,-13.131996,188.496232,1606.649716,-4.862392,0
0.044792,-90.074603,195.670460,-63.584683,-0.969291,3.209172,-5.751782,2.210138,-3.058968,5.662311,-2.160474,-0.042949,0.458757,-0.037023,-37.652627,188.496159,1605.806465,-5.244789,0
0.045833,-150.258006,165.333099,-1.671916,0.190417,4.673292,-5.060888,0.010312,-4.684472,4.989364,0.006188,-0.010133,0.455036,-0.025873,-63.434191,188.496275,1605.341871,-5.870215,0
0.046875,-185.378174,116.814462,59.414538,1.383902,5.693405,-3.658658,-2.216577,-5.580777,3.557196,2.130963,0.070083,0.452556,-0.037023,-78.464054,188.345370,1605.713768,-5.527896,0
0.047917,-188.655152,39.262160,117.499528,2.509832,5.763125,-1.696355,-4.083916,-5.698513,1.620317,4.012037,0.081021,0.441807,-0.025873,-83.507784,188.496259,1604.823140,-4.932948,0
0.048958,-161.750030,-25.053515,164.174099,3.421836,5.216374,0.331359,-5.270817,-5.090848,-0.467544,5.101080,0.095606,0.431954,-0.014723,-70.853427,188.496118,1604.918617,-4.754132,0
0.050000,-93.860078,-77.530220,191.600422,3.928504,3.506400,2.653418,-5.777280,-3.412173,-2.831485,5.668449,0.084667,0.438982,-0.025873,-40.804958,188.478965,1604.537217,-4.248132,0
0.051042,-24.919234,-133.365998,186.435962,3.849689,1.642307,4.349993,-5.448659,-1.482837,-4.371498,5.158198,0.113837,0.463993,-0.014723,-11.386956,188.481159,1604.817790,-4.160442,0
0.052083,37.580653,-175.554074,138.048005,2.915167,-0.629096,5.425172,-4.138042,0.849077,-5.501704,3.863531,0.095606,0.457792,-0.033307,14.191958,188.483470,1603.575800,-3.951868,0
0.053125,89.888007,-196.190057,63.436741,1.541533,-2.911508,5.748134,-2.224309,3.158203,-5.730333,1.902493,0.044560,0.459928,-0.003573,38.464905,188.489329,1604.046608,-3.303135,0
0.054167,150.026210,-165.559070,1.900676,0.359306,-4.397645,5.044975,-0.055412,4.745728,-5.083269,-0.302247,0.004452,0.455036,-0.022156,64.651769,188.487787,1603.837241,-2.930776,0
0.055208,185.225477,-117.040434,-58.821228,-0.811661,-5.384733,3.695892,2.125083,5.657225,-3.607962,-2.438447,-0.017425,0.454691,-0.029590,79.298849,188.410706,1603.922640,-2.770448,0
0.056250,188.491156,-39.687797,-117.623167,-1.982628,-5.498487,1.766293,3.984690,5.835727,-1.653828,-4.338560,-0.090349,0.469849,-0.040740,83.126679,188.489821,1603.343184,-2.168740,0
0.057292,162.128430,24.169822,-164.164070,-2.894632,-4.951735,-0.269597,5.291441,5.148306,0.373640,-5.427603,-0.079410,0.469436,-0.051890,71.136564,188.479042,1603.055721,-1.583458,0
0.058333,95.040773,77.092838,-191.578241,-3.435078,-3.249100,-2.628449,5.739911,3.496217,2.780719,-5.991163,-0.119518,0.453865,-0.059323,42.506644,188.544699,1603.221312,-0.776393,0
0.059375,26.823124,133.316201,-186.085686,-3.311226,-1.388677,-4.337288,5.434487,1.578275,4.329359,-5.492336,-0.104934,0.466956,-0.037023,13.223742,188.413479,1603.500557,-0.531623,0
0.060417,-35.970561,175.950588,-138.208099,-2.399222,0.897404,-5.441084,4.100674,-0.810608,5.494075,-4.205285,-0.097641,0.472192,0.000144,-13.447229,188.473977,1604.177351,-0.766086,0
0.061458,-89.916404,195.482540,-64.568969,-0.969291,3.187155,-5.796752,2.167610,-3.074160,5.696821,-2.152859,-0.035656,0.462133,-0.040740,-38.395677,188.490163,1604.665755,-1.326106,0
0.062500,-150.823002,165.427059,-2.668353,0.201676,4.695309,-5.101769,0.002580,-4.775622,5.006619,0.025227,-0.010133,0.460066,-0.037023,-63.873265,188.491181,1605.897627,-2.290365,0
0.063542,-185.197375,117.824533,58.819106,1.372643,5.686066,-3.675011,-2.208845,-5.588373,3.509744,2.188081,0.026329,0.456483,-0.029590,-79.893861,188.493483,1605.946349,-3.845718,0
0.064583,-188.745551,40.401426,117.827624,2.509832,5.777803,-1.700443,-4.095515,-5.728896,1.564238,4.072963,0.091960,0.445941,-0.037023,-82.753476,188.496082,1606.822314,-5.228482,0
0.065625,-162.281126,-24.055189,164.149796,3.388058,5.117298,0.339535,-5.317211,-5.071858,-0.502054,5.150582,0.095606,0.473088,-0.011006,-72.891183,188.496025,1607.325729,-6.445390,0
0.066667,-94.538074,-76.931224,192.062186,3.951023,3.502730,2.661594,-5.843004,-3.389386,-2.883250,5.710335,0.139360,0.474052,-0.018440,-42.516224,188.496143,1608.161884,-7.601866,0
0.067708,-25.834528,-133.178078,186.350900,3.849689,1.620291,4.354081,-5.467989,-1.486635,-4.401694,5.139159,0.102898,0.470952,-0.025873,-12.692922,188.420694,1608.233887,-8.211559,0
0.068750,36.913958,-176.117835,138.084460,2.903908,-0.680469,5.441524,-4.138042,0.875662,-5.523272,3.821645,0.081021,0.463097,-0.029590,14.169441,188.496243,1608.339790,-9.109770,0
0.069792,89.831508,-195.861197,63.473196,1.530273,-2.959212,5.793104,-2.232042,3.158203,-5.704450,1.833952,0.066437,0.455105,-0.011006,38.994047,188.496147,1607.585995,-9.881027,0
0.070833,150.161809,-165.829206,1.694097,0.314269,-4.438009,5.049064,0.006446,4.772313,-4.988366,-0.351749,0.008098,0.450351,-0.037023,63.165670,188.496129,1606.982536,-11.085885,0
0.071875,184.818680,-116.864259,-58.857683,-0.800402,-5.381064,3.675451,2.194673,5.683811,-3.569138,-2.415600,-0.042949,0.452969,-0.059323,80.312098,188.420736,1606.730251,-11.218963,0
0.072917,188.909253,-39.006587,-117.088494,-1.948850,-5.498487,1.696795,4.031083,5.828131,-1.636573,-4.353791,-0.090349,0.462477,-0.044457,84.027345,188.496174,1606.649495,-11.479072,0
0.073958,161.868532,25.050698,-163.617245,-2.827076,-4.933388,-0.310478,5.248913,5.140710,0.369326,-5.427603,-0.093995,0.474741,-0.033307,72.757762,188.496123,1606.337222,-11.187713,0
0.075000,94.204579,76.904918,-191.675455,-3.390041,-3.186719,-2.677507,5.778573,3.484823,2.776405,-5.994971,-0.115872,0.445183,-0.048173,43.114594,188.496038,1606.104356,-11.068140,0
0.076042,25.580132,132.905126,-186.292264,-3.277448,-1.318957,-4.345465,5.415157,1.563083,4.342300,-5.507567,-0.115872,0.434435,-0.022156,13.032350,188.571625,1606.194820,-10.953007,0
0.077083,-36.671156,175.457297,-138.256706,-2.410482,0.934099,-5.441084,4.104540,-0.787821,5.463878,-4.205285,-0.097641,0.441325,-0.022156,-12.794247,188.496255,1605.692003,-10.402127,0
0.078125,-89.487007,195.917105,-64.289480,-0.958032,3.194494,-5.800840,2.152146,-3.055170,5.705449,-2.213784,-0.032010,0.464889,-0.033307,-37.483752,188.496324,1606.002537,-9.623849,0
0.079167,-150.032007,165.497529,-2.826325,0.212935,4.698978,-5.085417,0.018044,-4.676876,5.023875,-0.001428,-0.010133,0.456896,-0.055607,-63.501741,188.496165,1605.027413,-8.827293,0
0.080208,-185.558972,117.895003,58.539617,1.372643,5.664050,-3.683187,-2.181782,-5.611161,3.539941,2.119540,0.048206,0.460686,-0.051890,-78.542862,188.568518,1605.335063,-7.941439,0
0.081250,-188.756851,41.188342,117.329405,2.577388,5.766795,-1.749501,-4.041389,-5.732694,1.598748,4.042500,0.062790,0.460066,-0.037023,-83.440234,188.495781,1605.207317,-7.686023,0
0.082292,-162.552324,-22.939413,164.441436,3.489392,5.179679,0.323183,-5.324943,-5.121231,-0.424406,5.127735,0.117483,0.472605,-0.018440,-71.213693,188.495826,1605.496621,-6.776603,0
0.083333,-96.312162,-76.614109,191.102204,3.894726,3.513738,2.657506,-5.781146,-3.381790,-2.809916,5.668449,0.117483,0.476602,-0.044457,-41.761916,188.495738,1604.552812,-6.700566,0
0.084375,-27.269618,-133.248548,186.727602,3.838430,1.671663,4.325464,-5.475722,-1.524614,-4.375812,5.169621,0.132068,0.476257,-0.025873,-12.141264,188.495796,1605.014452,-6.508775,0
0.085417,36.043863,-175.142999,139.032291,2.937686,-0.647444,5.396555,-4.168971,0.887056,-5.497390,3.893994,0.091960,0.471985,-0.022156,13.730366,188.495904,1605.231482,-6.647172,0
0.086458,89.605509,-196.237037,64.797728,1.519014,-2.904169,5.797192,-2.270703,3.173395,-5.708764,1.913916,0.019036,0.463580,-0.029590,38.228481,188.495718,1606.034343,-6.476180,0
0.087500,149.913211,-165.746991,2.678383,0.336788,-4.390306,5.094033,-0.090207,4.734334,-5.035817,-0.317479,-0.017425,0.455932,-0.033307,64.482894,188.495683,1606.061902,-5.971333,0
0.088542,185.406276,-117.651174,-58.262251,-0.822920,-5.373725,3.716332,2.156012,5.634438,-3.599335,-2.430831,-0.032010,0.452693,-0.029590,79.310107,188.571058,1606.083538,-6.116385,0
0.089583,188.536356,-39.922698,-116.833309,-1.960110,-5.447114,1.717236,4.011753,5.793950,-1.640887,-4.330944,-0.042949,0.460203,-0.014723,83.025354,188.495749,1605.423114,-6.305920,0
0.090625,162.207530,24.287273,-163.848126,-2.838335,-4.918710,-0.285949,5.283708,5.152104,0.343443,-5.416179,-0.115872,0.475155,-0.018440,71.102789,188.495633,1605.541968,-6.184348,0
0.091667,94.939074,77.045858,-191.140781,-3.401300,-3.245430,-2.624361,5.720581,3.446844,2.793660,-5.987355,-0.101287,0.475568,-0.033307,42.123861,188.495911,1605.292820,-6.888940,0
0.092708,25.794831,132.787676,-186.656814,-3.288707,-1.396016,-4.316848,5.399692,1.585870,4.346614,-5.499952,-0.093995,0.451798,-0.037023,12.379367,188.571185,1605.408263,-6.847500,0
0.093750,-36.863255,175.163672,-138.110886,-2.365445,0.915752,-5.432908,4.092941,-0.829598,5.437996,-4.216709,-0.068472,0.446975,-0.029590,-13.863787,188.495736,1605.187183,-7.069211,0
0.094792,-89.261009,196.163750,-63.523925,-0.958032,3.216511,-5.829457,2.179209,-3.062766,5.705449,-2.225208,-0.053887,0.457654,-0.033307,-38.193027,188.495799,1605.235685,-6.844570,0
0.095833,-149.580010,165.567999,-1.951404,0.212935,4.665953,-5.093593,0.014178,-4.688270,5.023875,-0.050930,0.000805,0.457103,-0.055607,-63.479224,188.495655,1605.264340,-6.138550,0
0.096875,-185.152175,117.260772,58.721892,1.361384,5.711753,-3.699540,-2.174050,-5.554192,3.557196,2.104309,0.048206,0.457379,-0.025873,-79.882603,188.571306,1604.420772,-5.489028,0
0.097917,-188.756851,40.002096,117.086372,2.487314,5.781473,-1.753589,-4.099381,-5.782066,1.646199,4.065347,0.066437,0.455794,-0.011006,-82.674667,188.495807,1605.133588,-4.709256,0
0.098958,-162.326326,-23.984719,164.076886,3.421836,5.168671,0.306830,-5.294014,-5.079454,-0.389896,5.112504,0.110191,0.487970,-0.066757,-73.071317,188.495835,1604.372221,-4.141446,0
0.100000,-95.261269,-76.755049,191.466754,3.951023,3.510069,2.632977,-5.850736,-3.400780,-2.835799,5.664641,0.124775,0.463924,-0.037023,-43.450664,188.495750,1604.516617,-3.868487,0
0.101042,-26.546423,-132.907942,186.678995,3.827171,1.649646,4.378610,-5.483454,-1.532210,-4.375812,5.173429,0.088314,0.469092,-0.033307,-13.503521,188.571169,1604.400818,-3.580343,0
0.102083,35.998664,-175.377899,139.263172,2.971464,-0.610749,5.408819,-4.230829,0.852875,-5.544841,3.893994,0.066437,0.463166,-0.040740,13.493941,188.495774,1604.983176,-3.401869,0
0.103125,89.368211,-195.849452,65.478222,1.541533,-2.907839,5.842161,-2.266837,3.150608,-5.743274,1.898685,0.040913,0.463097,-0.059323,38.870205,188.495776,1605.065673,-3.593522,0
0.104167,150.173109,-166.005381,3.565455,0.370565,-4.349942,5.077680,-0.113404,4.745728,-5.074641,-0.321287,-0.013779,0.461237,-0.077907,63.278253,188.495888,1605.719399,-3.807091,0
0.105208,185.361077,-118.567285,-57.934156,-0.822920,-5.362716,3.687715,2.117351,5.683811,-3.607962,-2.427023,-0.042949,0.460548,-0.048173,80.402165,188.646638,1606.472831,-4.167311,0
0.106250,188.717154,-41.296864,-116.748247,-1.903813,-5.469131,1.762205,4.004020,5.812939,-1.623632,-4.349983,-0.097641,0.464269,-0.044457,83.959795,188.495787,1606.968063,-4.979029,0
0.107292,162.636927,23.194987,-163.969643,-2.849594,-4.944396,-0.290037,5.252779,5.133114,0.352071,-5.439026,-0.097641,0.470883,-0.033307,72.926637,188.495682,1607.174225,-5.765104,0
0.108333,96.385465,76.540822,-190.982809,-3.435078,-3.267447,-2.628449,5.732179,3.454440,2.763464,-5.964508,-0.115872,0.472261,-0.059323,43.384793,188.495819,1606.970515,-5.957753,0
0.109375,26.823124,132.646736,-186.778331,-3.299967,-1.421702,-4.349553,5.380362,1.566881,4.307790,-5.446642,-0.112226,0.474259,-0.025873,12.852217,188.646648,1606.093620,-6.516635,0
0.110417,-36.196559,174.682127,-138.815683,-2.376704,0.915752,-5.408379,4.120004,-0.780225,5.425054,-4.178630,-0.064826,0.452900,-0.025873,-12.985638,188.495707,1605.492847,-6.686175,0
0.111458,-89.148009,196.140260,-63.985688,-0.980551,3.179816,-5.780399,2.144414,-3.070362,5.657997,-2.194745,-0.013779,0.456552,-0.025873,-37.258586,188.495761,1604.879264,-7.322957,0
