1-Time,2-VGERA,3-VGERB,4-VGERC,5-VN,6-IGERAN,7-IGERBN,8-IGERCN,9-IGERAT,10-IGERBT,11-IGERCT,12-IN,13-IFD,14-IFAULT,15-VFAULT,16-Speed (rad/s),17-Active Power,18-Reactive Power,19-FAULT 
0.000000,139.719373,-176.245416,25.273296,3.425688,-6.371734,3.844064,3.013277,6.737780,-3.738021,-2.773017,-0.066339,0.297120,-0.024490,212.675574,188.484300,1486.767854,-898.435642,0
0.001040,184.442852,-118.498695,-26.726705,2.453028,-5.977653,1.708966,4.587915,6.565019,-1.719411,-4.302891,0.006721,0.313059,-0.002084,209.192094,188.494996,1487.019636,-898.030068,0
0.002082,196.125628,-57.767991,-94.176515,1.208928,-5.239195,-0.858708,6.147628,5.704894,0.928702,-5.861228,0.021333,0.315019,-0.024490,181.335564,188.498324,1488.657555,-898.547985,0
0.003125,162.642566,-4.044211,-159.459660,-0.023862,-3.602517,-2.934277,6.296883,4.135348,2.976688,-6.074699,0.024986,0.331285,-0.039427,115.828046,188.485406,1488.548571,-898.446217,0
0.004165,98.716234,46.816395,-209.920834,-1.007832,-1.177677,-4.787606,5.610311,1.735084,4.844216,-5.416497,0.006721,0.320375,-0.024490,40.356418,188.497602,1488.597470,-899.658016,0
0.005208,46.710869,117.006447,-190.211554,-0.611982,1.296867,-5.894841,4.039404,-0.871023,6.015093,-3.964896,-0.015197,0.316717,-0.009553,-33.950281,188.491455,1488.075455,-901.180520,0
0.006250,-3.309558,186.278351,-139.344129,0.270198,3.572595,-6.271856,2.184913,-3.124258,6.396992,-2.210877,-0.062686,0.321878,-0.013287,-104.818739,188.501643,1489.184639,-900.904488,0
0.007281,-58.411426,205.136642,-81.004167,1.367268,5.351285,-5.061438,-0.621077,-4.877591,5.289065,0.493086,-0.124787,0.307768,-0.028224,-159.299008,188.488911,1489.272857,-900.922083,0
0.008323,-139.238084,176.432414,-26.061932,2.407788,6.583231,-3.660528,-3.053930,-6.094264,3.883173,2.919538,-0.186888,0.298296,-0.031958,-207.604017,188.471136,1490.684437,-900.783098,0
0.009374,-185.084471,118.504480,27.181439,3.459618,6.210452,-1.450027,-4.639762,-5.925180,1.780630,4.477875,-0.212459,0.313908,-0.020755,-202.231767,188.556754,1490.280538,-900.384512,0
0.010414,-196.574424,57.882503,94.705114,4.737648,5.507497,1.145427,-6.214401,-5.065054,-0.833909,6.000633,-0.256295,0.313908,-0.017021,-175.517548,188.474460,1491.271868,-899.825366,0
0.011457,-162.773773,4.424503,159.815910,5.936508,3.835316,3.157499,-6.371118,-3.532266,-2.919666,6.281703,-0.238030,0.331873,-0.028224,-112.034519,188.625189,1491.629434,-899.678364,0
0.012499,-98.529850,-46.750206,210.474054,6.931788,1.431778,5.066388,-5.688277,-1.069514,-4.745227,5.595039,-0.230724,0.326255,-0.024490,-34.685431,188.482905,1491.521361,-899.622430,0
0.013540,-46.887445,-117.157715,190.235417,6.535938,-1.149275,6.114094,-4.113639,1.499836,-5.928694,4.182574,-0.208806,0.329129,-0.054364,38.976598,188.478306,1491.195702,-899.843260,0
0.014583,3.382517,-186.779965,139.158713,5.585898,-3.375299,6.499047,-2.262880,3.767773,-6.344167,2.328935,-0.150358,0.303718,-0.050629,110.783786,188.473693,1491.894842,-900.204631,0
0.015622,59.119564,-204.321437,80.018561,4.477518,-5.157539,5.280691,0.606544,5.590945,-5.219453,-0.367912,-0.117481,0.306265,-0.031958,164.596765,188.623340,1492.207880,-900.212427,0
0.016664,140.694828,-175.846747,25.002462,3.425688,-6.407237,3.875813,3.043128,6.785564,-3.784184,-2.769459,-0.069992,0.299863,-0.020755,212.879154,188.481177,1493.459777,-900.027670,0
0.017700,184.907895,-118.583262,-26.911364,2.498268,-6.013156,1.708966,4.576721,6.528262,-1.727805,-4.285102,-0.011544,0.314823,-0.028224,207.936684,188.502669,1493.331510,-899.641318,0
0.018740,196.102943,-59.543884,-94.176515,1.231548,-5.324402,-0.898394,6.155091,5.686515,0.853161,-5.829207,0.028639,0.311230,-0.005818,180.928404,188.497133,1493.164430,-899.222812,0
0.019787,162.313634,-3.862997,-159.964394,0.711288,-3.591866,-2.946183,6.289420,4.116970,2.968294,-6.099604,-0.000585,0.328998,-0.080503,116.336996,188.496776,1493.380195,-899.211900,0
0.020828,98.194479,47.178822,-210.511743,-1.041762,-1.213180,-4.839197,5.673744,1.731408,4.869396,-5.466307,0.024986,0.328149,-0.009553,39.055768,188.496905,1494.307626,-899.415031,0
0.021877,46.200456,118.383671,-189.485228,-0.611982,1.378523,-5.918652,4.035673,-0.874699,6.069650,-3.979127,-0.040768,0.344611,-0.020755,-33.249061,188.421566,1495.262181,-899.316774,0
0.022914,-3.797286,187.558927,-138.494697,0.281508,3.615199,-6.271856,2.169988,-3.179394,6.464139,-2.164625,-0.018850,0.313908,-0.017021,-106.696199,188.499000,1496.080048,-900.154440,0
0.023948,-58.865126,204.750053,-80.314773,1.355958,5.415190,-5.057470,-0.639734,-4.947430,5.310049,0.482413,-0.124787,0.308094,-0.050629,-161.266948,188.436112,1496.780647,-900.317564,0
0.024990,-140.576499,176.456576,-25.495644,2.430408,6.657787,-3.700214,-3.106169,-6.134697,3.887370,2.990695,-0.132093,0.299080,-0.009553,-208.554057,188.514845,1497.672700,-901.116515,0
0.026031,-185.107156,118.625289,26.873674,3.459618,6.270807,-1.477807,-4.669613,-5.932531,1.856171,4.449412,-0.190541,0.311557,-0.013287,-205.771797,188.441266,1498.241252,-900.330523,0
0.027072,-196.710534,57.689209,94.483523,4.760268,5.535899,1.113678,-6.277834,-5.123866,-0.833909,6.089579,-0.219765,0.315672,-0.028224,-175.981258,188.506845,1499.494729,-901.106657,0
0.028114,-162.399470,4.654040,159.865152,5.925198,3.842416,3.205122,-6.456940,-3.532266,-2.902879,6.256798,-0.216112,0.331611,-0.020755,-113.380409,188.570097,1499.138222,-900.713143,0
0.029156,-98.756700,-46.520669,210.424811,6.897858,1.445979,5.078294,-5.747979,-1.157732,-4.749424,5.669754,-0.223418,0.343696,-0.028224,-36.574201,188.476891,1500.608296,-900.271963,0
0.030197,-47.057583,-116.940259,190.210796,6.502008,-1.145724,6.169654,-4.162147,1.474105,-5.983251,4.211036,-0.190541,0.332330,-0.028224,39.971878,188.480052,1501.368057,-900.457628,0
0.031239,3.371174,-186.538347,139.454167,5.619828,-3.357548,6.499047,-2.292731,3.775125,-6.373544,2.357398,-0.154011,0.321551,-0.020755,109.505756,188.495296,1501.900741,-900.582785,0
0.032281,59.006139,-204.103981,80.326326,4.488828,-5.182391,5.284660,0.610275,5.587270,-5.223650,-0.364355,-0.088257,0.307310,-0.039427,167.073655,188.368535,1501.834682,-900.614933,0
0.033322,140.762883,-176.329983,25.433333,3.459618,-6.442740,3.911530,3.020740,6.844376,-3.863922,-2.790806,-0.040768,0.300778,-0.009553,212.958324,188.441257,1503.240163,-901.248550,0
0.034364,184.635675,-118.087945,-26.997538,2.441718,-6.027357,1.681186,4.580453,6.572371,-1.715215,-4.306449,-0.026156,0.313843,0.005384,209.033754,188.442318,1503.532701,-901.524345,0
0.035415,196.465903,-56.318282,-96.133902,1.186308,-5.256947,-0.953954,6.173748,5.660785,1.000045,-5.907480,0.028639,0.317436,-0.028224,180.317664,188.517640,1504.086652,-902.439217,0
0.036460,160.850451,-2.751554,-161.096970,-0.103032,-3.602517,-2.985869,6.285689,4.116970,3.018655,-6.103161,-0.011544,0.326320,-0.013287,113.747006,188.439844,1504.425634,-902.208918,0
0.037496,97.479901,47.734544,-211.041099,-1.019142,-1.181227,-4.839197,5.606579,1.724056,4.894576,-5.473423,0.014027,0.328476,-0.017021,39.089698,188.442352,1504.855618,-902.230346,0
0.038535,46.415964,118.057486,-189.534470,-0.611982,1.382074,-5.930558,4.046867,-0.841617,6.031880,-3.996916,-0.044421,0.314039,-0.050629,-34.945561,188.436620,1504.743505,-901.643338,0
0.039576,-3.990108,187.571008,-138.297728,0.292818,3.569045,-6.248045,2.177450,-3.157340,6.455746,-2.168183,-0.059033,0.305808,-0.024490,-105.768779,188.517879,1504.689839,-901.192405,0
0.040617,-59.965348,203.831905,-79.329924,1.378578,5.415190,-5.017784,-0.718093,-4.914348,5.289065,0.557128,-0.110175,0.302411,-0.017021,-160.396078,188.442296,1503.892208,-900.786740,0
0.041659,-141.665379,176.069987,-24.670833,2.419098,6.679089,-3.612905,-3.113632,-6.156752,3.870583,2.987137,-0.186888,0.299602,-0.028224,-208.158207,188.520212,1504.383464,-900.478397,0
0.042706,-185.265951,117.054771,28.080114,3.459618,6.249505,-1.414310,-4.744241,-5.917828,1.776434,4.506338,-0.216112,0.311753,-0.043161,-201.858537,188.500343,1503.964798,-900.832569,0
0.043746,-196.846644,56.589847,96.391667,4.828128,5.500396,1.224799,-6.289028,-5.061378,-0.901056,6.093137,-0.227071,0.316587,-0.031958,-174.556198,188.490221,1503.771621,-900.998559,0
0.044794,-160.970315,3.192251,161.367046,5.993058,3.799813,3.217028,-6.419626,-3.484482,-2.890289,6.224778,-0.241683,0.330044,-0.009553,-109.987409,188.498306,1503.498654,-899.966247,0
0.045827,-97.951382,-47.293847,211.249622,6.954408,1.410476,5.110042,-5.699471,-1.106271,-4.808177,5.627059,-0.238030,0.333636,0.005384,-34.233031,188.496994,1503.333567,-900.604802,0
0.046868,-46.513143,-118.100025,189.509091,6.535938,-1.184778,6.157748,-4.072594,1.536593,-5.949678,4.139879,-0.205153,0.296662,-0.061832,39.949258,188.503058,1502.320119,-900.658506,0
0.047910,4.210519,-187.867246,138.038447,5.597208,-3.378849,6.483172,-2.307656,3.723664,-6.377740,2.368072,-0.168623,0.337164,-0.020755,111.711206,188.504200,1502.937959,-899.278335,0
0.048953,60.423952,-203.548259,78.750568,4.500138,-5.200142,5.288629,0.643857,5.642406,-5.223650,-0.449743,-0.091910,0.312275,-0.013287,165.377155,188.555658,1503.021019,-899.648598,0
0.049998,142.713793,-175.858827,24.017614,3.403068,-6.449840,3.859938,3.058054,6.855404,-3.779988,-2.822827,-0.062686,0.302476,-0.009553,213.535134,188.475726,1503.050981,-899.659555,0
0.051042,184.941922,-116.155000,-28.499432,2.430408,-6.002505,1.629594,4.658811,6.550316,-1.627084,-4.352701,-0.037115,0.316129,0.012853,207.099744,188.553182,1502.569644,-899.737763,0
0.052081,196.409190,-55.629671,-96.971023,1.118448,-5.296000,-0.934111,6.233450,5.730624,0.983259,-5.946616,-0.004238,0.315672,-0.043161,179.458105,188.473340,1504.033422,-899.479830,0
0.053125,160.158559,-2.473693,-161.774054,-0.103032,-3.606067,-3.005712,6.378973,4.109618,3.052228,-6.142298,0.035945,0.325732,-0.002084,114.029756,188.555618,1504.505631,-899.838013,0
0.054166,96.572501,48.640612,-211.767425,-1.041762,-1.149275,-4.878883,5.606579,1.713029,4.915560,-5.455633,0.024986,0.336641,-0.005818,37.200928,188.480566,1504.763626,-899.677991,0
0.055207,45.712729,119.664246,-188.414205,-0.578052,1.410476,-5.966275,4.039404,-0.889402,6.069650,-3.961338,-0.044421,0.300582,-0.035692,-34.289581,188.550342,1504.866024,-899.837553,0
0.056250,-5.056303,188.936150,-137.177463,0.338058,3.668453,-6.315511,2.155062,-3.245558,6.472533,-2.143278,-0.069992,0.331219,-0.017021,-108.437939,188.479567,1505.512380,-900.379313,0
0.057291,-61.042886,203.239940,-78.000379,1.412508,5.496846,-5.053501,-0.792720,-4.995215,5.297459,0.617611,-0.110175,0.305677,-0.028224,-162.601528,188.626853,1505.856644,-900.927366,0
0.058330,-143.276014,176.009583,-23.464394,2.464338,6.735893,-3.616874,-3.180797,-6.222915,3.895763,3.029831,-0.146705,0.301105,-0.031958,-208.361787,188.474094,1507.461508,-901.220714,0
0.059374,-185.504144,115.713791,28.831061,3.493548,6.285008,-1.366687,-4.796480,-5.917828,1.713483,4.566821,-0.212459,0.314758,-0.031958,-205.025337,188.550930,1507.289890,-901.744094,0
0.060406,-196.971412,56.324067,96.379356,4.771578,5.546550,1.185113,-6.303953,-5.057703,-0.888466,6.093137,-0.256295,0.307833,-0.054364,-174.940738,188.494998,1507.356069,-901.538383,0
0.061447,-160.664068,3.627163,161.280872,5.970438,3.842416,3.276557,-6.471865,-3.510212,-2.944846,6.292377,-0.263601,0.332657,-0.013287,-111.695219,188.496038,1508.105161,-902.489277,0
0.062489,-97.633792,-47.438818,211.582008,6.931788,1.410476,5.161634,-5.781562,-1.098920,-4.866931,5.680427,-0.197847,0.335008,-0.017021,-35.149141,188.496098,1509.062543,-903.174565,0
0.063531,-46.308978,-118.728232,188.832008,6.479388,-1.230931,6.229183,-4.128565,1.543945,-6.025218,4.175458,-0.190541,0.310054,-0.058098,41.464798,188.547942,1510.138373,-903.433590,0
0.064572,4.482739,-188.398806,137.792235,5.608518,-3.456956,6.530795,-2.247954,3.911128,-6.423904,2.350282,-0.161317,0.296401,-0.031958,111.643346,188.480439,1510.879438,-905.737192,0
0.065615,60.537377,-203.258318,78.639773,4.466208,-5.288899,5.296566,0.666246,5.693866,-5.232043,-0.428396,-0.102869,0.305220,-0.054364,168.193345,188.434589,1511.316308,-905.918315,0
0.066656,142.713793,-176.100446,24.140720,3.425688,-6.506645,3.911530,3.091636,6.910540,-3.788381,-2.844174,-0.066339,0.302150,-0.028224,213.546444,188.443119,1511.886608,-906.652586,0
0.067697,184.907895,-116.299971,-28.068561,2.441718,-6.052209,1.637531,4.722245,6.579722,-1.673248,-4.381164,-0.026156,0.313974,-0.031958,208.637904,188.441677,1512.544226,-906.862358,0
0.068739,196.567985,-55.677994,-96.441667,1.141068,-5.327952,-0.946017,6.225987,5.749003,0.958079,-5.960848,0.017680,0.321159,-0.009553,179.786095,188.518322,1512.822070,-906.828648,0
0.069781,160.135874,-2.920687,-161.281629,-0.091722,-3.609618,-3.001743,6.364047,4.091239,3.022851,-6.145856,0.028639,0.333767,-0.035692,114.097616,188.495720,1512.389094,-906.735219,0
0.070822,97.128284,48.036566,-211.570455,-1.007832,-1.152825,-4.906663,5.684938,1.687299,4.928150,-5.509001,0.010374,0.330631,-0.058098,38.818258,188.503031,1512.664105,-907.518828,0
0.071864,45.939579,119.241415,-188.561932,-0.645912,1.453079,-5.962307,4.084180,-0.882051,6.073847,-3.972011,-0.007891,0.314627,-0.024490,-35.906911,188.499748,1512.706710,-907.621371,0
0.072906,-4.716028,188.875745,-137.349811,0.338058,3.654252,-6.291699,2.169988,-3.149988,6.522893,-2.178856,-0.048074,0.301823,-0.002084,-107.001569,188.495188,1513.415432,-906.692305,0
0.073947,-60.850063,203.409073,-78.320455,1.423818,5.479095,-5.065407,-0.714361,-5.043000,5.318442,0.582033,-0.132093,0.309205,-0.031958,-161.346118,188.494605,1514.107910,-907.023032,0
0.074989,-143.468837,175.985421,-23.907576,2.453028,6.728793,-3.648622,-3.165871,-6.237618,3.925140,3.001368,-0.179582,0.303391,-0.028224,-208.407027,188.493666,1514.596520,-906.804170,0
0.076038,-185.436089,115.363445,29.089583,3.493548,6.274357,-1.354781,-4.818868,-5.914152,1.713483,4.577495,-0.172276,0.313908,-0.035692,-201.903777,188.497142,1514.599278,-906.708039,0
0.077084,-196.982754,55.043491,98.755303,4.828128,5.486195,1.256547,-6.337536,-5.057703,-0.976597,6.132274,-0.256295,0.315868,0.009119,-173.040658,188.492893,1515.422163,-907.225716,0
0.078124,-159.246255,2.419073,162.598107,6.004368,3.771411,3.347991,-6.479328,-3.455076,-3.024583,6.281703,-0.241683,0.319200,-0.020755,-108.528419,188.420888,1515.175458,-907.522317,0
0.079166,-96.306720,-48.936850,212.345266,6.943098,1.328819,5.193383,-5.729322,-1.018053,-4.896308,5.655522,-0.227071,0.333049,-0.061832,-32.253781,188.490248,1515.044130,-907.742253,0
0.080210,-45.163385,-120.914876,187.637879,6.468078,-1.319688,6.264900,-4.106177,1.613784,-6.050398,4.104301,-0.161317,0.320310,-0.058098,42.618418,188.494795,1514.807949,-907.878596,0
0.081250,5.628332,-190.041809,136.278031,5.574588,-3.474707,6.506984,-2.195715,3.870694,-6.407117,2.286241,-0.186888,0.327104,-0.017021,114.086306,188.495341,1514.691762,-906.925744,0
0.082291,61.932505,-202.750920,77.150190,4.443588,-5.278248,5.288629,0.722216,5.693866,-5.185880,-0.499553,-0.077298,0.305416,-0.024490,166.824835,188.562063,1514.061574,-906.640324,0
0.083332,144.585306,-175.544724,22.638826,3.403068,-6.510195,3.859938,3.143875,6.903188,-3.826151,-2.901099,-0.048074,0.304763,0.005384,213.953604,188.495799,1515.184025,-906.222156,0
0.084373,185.406965,-114.729453,-29.459659,2.407788,-6.038008,1.566097,4.737170,6.590750,-1.585117,-4.402511,-0.026156,0.315737,-0.035692,207.043194,188.499789,1515.087787,-906.313000,0
0.085417,196.647383,-54.421580,-98.854546,1.118448,-5.292449,-0.997608,6.229718,5.730624,1.029422,-5.967963,0.024986,0.324687,-0.031958,178.236625,188.491983,1515.597083,-906.393971,0
0.086448,159.262501,-2.183751,-162.229546,-0.091722,-3.620268,-3.005712,6.408824,4.135348,3.035441,-6.184992,0.017680,0.340038,-0.035692,113.860106,188.423937,1516.752686,-906.022930,0
0.087489,96.447734,48.640612,-212.173675,-1.041762,-1.177677,-4.942381,5.684938,1.672596,4.991100,-5.494770,0.014027,0.335792,-0.046895,37.336648,188.499760,1517.104362,-906.495108,0
0.088531,45.508564,120.401181,-187.958713,-0.611982,1.445979,-6.013898,4.084180,-0.918808,6.094831,-4.014705,-0.018850,0.310773,-0.028224,-34.674121,188.499397,1517.954957,-906.474292,0
0.089572,-5.419263,189.503952,-136.734281,0.315438,3.682654,-6.307573,2.136405,-3.234531,6.485123,-2.129047,-0.069992,0.302476,-0.031958,-108.958199,188.482525,1517.490267,-907.181512,0
0.090614,-61.553298,203.143293,-77.335606,1.435128,5.518148,-5.081281,-0.785257,-5.035648,5.310049,0.631842,-0.124787,0.307310,-0.009553,-163.008688,188.482733,1517.230739,-907.012104,0
0.091656,-144.262812,176.057906,-23.045833,2.464338,6.774946,-3.660528,-3.184528,-6.296430,3.941927,3.054736,-0.197847,0.304240,-0.013287,-208.757637,188.495170,1518.324236,-907.640999,0
0.092697,-185.912474,115.339283,28.880303,3.470928,6.295659,-1.362718,-4.871107,-5.921504,1.671516,4.630862,-0.201500,0.315084,-0.031958,-205.183677,188.495953,1518.342660,-908.699403,0
0.093739,-197.175577,55.369675,98.164394,4.828128,5.564301,1.244642,-6.359924,-5.116515,-0.989187,6.157179,-0.256295,0.312798,-0.020755,-174.024628,188.495915,1518.959372,-909.252164,0
0.094781,-158.803898,2.527801,162.832008,6.072228,3.828215,3.304337,-6.527836,-3.451400,-3.016190,6.338629,-0.252642,0.325536,-0.013287,-109.885619,188.495939,1519.465251,-909.405748,0
0.095822,-96.590282,-48.562342,212.271402,6.909168,1.364322,5.217194,-5.718128,-1.069514,-4.921488,5.673311,-0.230724,0.334028,0.012853,-33.565741,188.495870,1520.041642,-909.445700,0
0.096868,-45.344865,-121.144413,187.428599,6.502008,-1.269984,6.296649,-4.143490,1.635838,-6.037808,4.139879,-0.186888,0.325079,-0.039427,43.285707,188.495977,1520.285502,-909.464953,0
0.097915,6.286197,-190.223022,135.945644,5.529348,-3.520861,6.526827,-2.158401,3.947885,-6.444888,2.261336,-0.168623,0.300059,-0.024490,114.674426,188.495997,1520.715214,-910.345818,0
0.098956,62.669767,-202.448897,76.263826,4.398348,-5.363455,5.316409,0.737142,5.697542,-5.202667,-0.517342,-0.135746,0.307180,-0.020755,170.002945,188.495911,1520.996596,-909.985376,0
0.099997,144.936923,-175.460158,21.912500,3.369138,-6.520846,3.867876,3.136412,6.954649,-3.792578,-2.901099,-0.059033,0.306461,-0.046895,214.044084,188.420634,1521.333884,-910.201161,0
0.101041,185.837980,-113.497201,-30.149053,2.351238,-6.059310,1.506568,4.774484,6.517235,-1.522167,-4.470110,-0.007891,0.317371,-0.002084,208.705764,188.500673,1520.469898,-910.624458,0
0.102084,196.556643,-53.998749,-99.507008,1.073208,-5.260497,-1.017451,6.244644,5.752678,1.058799,-6.003542,0.014027,0.323315,-0.031958,177.806845,188.505363,1521.076935,-910.984994,0
0.103125,157.402331,-1.060227,-164.125379,-0.103032,-3.535062,-3.085083,6.412555,4.028752,3.102589,-6.145856,0.017680,0.329194,-0.061832,110.964746,188.487088,1520.146422,-911.143820,0
0.104165,95.336168,50.078239,-212.419887,-1.053072,-1.081819,-4.982066,5.625236,1.599081,5.037264,-5.462749,0.014027,0.328345,-0.043161,36.318748,188.494571,1519.892748,-911.489879,0
0.105206,44.431026,122.334126,-186.900001,-0.578052,1.513434,-6.037710,4.020747,-0.973944,6.120011,-3.922201,0.003068,0.315411,-0.020755,-38.779651,188.493559,1519.415116,-911.632702,0
0.106250,-6.666938,190.748286,-135.392425,0.349368,3.746559,-6.287730,2.087898,-3.274964,6.489320,-2.129047,-0.073645,0.328672,-0.017021,-109.636799,188.510670,1520.105349,-911.251747,0
0.107281,-62.177136,202.817109,-76.523106,1.502988,5.503947,-5.065407,-0.803914,-5.009918,5.293262,0.649632,-0.150358,0.307441,-0.028224,-162.793798,188.441525,1519.791943,-910.647956,0
0.108322,-145.000075,175.586751,-22.442614,2.475648,6.718142,-3.612905,-3.206916,-6.244970,3.845403,3.054736,-0.154011,0.302803,-0.035692,-208.486197,188.513741,1518.591419,-910.291570,0
0.109364,-185.878446,114.843966,29.631250,3.459618,6.242405,-1.327001,-4.844988,-5.881071,1.679910,4.573937,-0.219765,0.315607,-0.065566,-202.005567,188.441959,1518.210648,-909.057775,0
0.110406,-197.028124,54.789792,98.976894,4.805508,5.500396,1.268453,-6.307685,-5.098136,-0.955613,6.135831,-0.241683,0.310773,-0.039427,-172.543018,188.512422,1518.282482,-908.156259,0
