1-Time,2-VGERA,3-VGERB,4-VGERC,5-VN,6-IGERAN,7-IGERBN,8-IGERCN,9-IGERAT,10-IGERBT,11-IGERCT,12-IN,13-IFD,14-IFAULT,15-VFAULT,16-Speed (rad/s),17-Active Power,18-Reactive Power,19-FAULT 
0.000000,182.764162,-128.719140,-11.350758,2.724468,-6.623804,2.379657,4.405078,7.031840,-2.445439,-4.213945,-0.004238,0.310773,-0.046895,35.527048,188.426967,1528.028010,-923.250099,0
0.001038,192.802275,-66.876992,-73.346970,1.559538,-5.675880,-0.346761,6.050612,6.065117,0.303394,-5.679778,-0.004238,0.312667,-0.013287,44.914347,188.498137,1528.620852,-923.592778,0
0.002083,170.446207,-17.079506,-150.792993,0.123168,-4.262869,-2.608853,6.502108,4.653629,2.582199,-6.330864,0.003068,0.340888,-0.024490,47.628747,188.495446,1527.526696,-923.229892,0
0.003117,112.667509,30.869602,-196.625379,-0.792942,-1.894833,-4.489962,5.882701,2.323204,4.407760,-5.690451,0.017680,0.331873,-0.020755,36.918178,188.419934,1527.748782,-923.700456,0
0.004154,57.123284,99.525379,-198.779735,-0.849492,0.714621,-6.057553,4.725976,-0.290255,6.153584,-4.683581,-0.029809,0.325210,-0.039427,21.909808,188.495414,1527.787554,-924.057240,0
0.005196,9.802372,165.052203,-153.661364,-0.046482,3.221118,-6.438537,2.614021,-2.789765,6.493516,-2.588009,-0.055380,0.305285,-0.031958,9.955138,188.495508,1527.317622,-924.609319,0
0.006237,-41.715265,208.760913,-89.732387,1.174998,5.340634,-5.759909,-0.091222,-4.929051,5.914373,0.023451,-0.099216,0.291828,-0.020755,4.809088,188.495477,1526.049302,-924.850005,0
0.007279,-117.392428,179.295589,-38.163258,2.158968,6.558379,-4.232004,-2.643480,-6.127346,4.395170,2.453460,-0.161317,0.300451,-0.024490,-11.183251,188.495412,1525.172954,-924.594446,0
0.008321,-183.553234,129.630992,10.562121,3.097698,6.707491,-2.291367,-4.434537,-6.476542,2.506658,4.278635,-0.219765,0.314431,-0.031958,-29.663791,188.495499,1525.020108,-924.406575,0
0.009362,-192.933482,69.226472,72.422917,4.307868,5.869625,0.458862,-6.128579,-5.495117,-0.212799,5.833414,-0.216112,0.318873,-0.046895,-39.560041,188.495427,1524.677990,-924.141328,0
0.010404,-171.507498,19.163206,150.878410,5.755548,4.431763,2.732861,-6.669628,-4.124062,-2.520980,6.520079,-0.256295,0.326124,-0.046895,-43.348891,188.495459,1524.079931,-924.645223,0
0.011446,-113.059593,-30.489310,196.070645,6.581178,2.003372,4.641749,-5.975593,-1.789961,-4.363328,5.819183,-0.245336,0.329260,-0.039427,-32.163301,188.495492,1523.786984,-924.323539,0
0.012487,-56.233666,-99.314220,198.803599,6.671658,-0.606082,6.241089,-4.837525,0.882310,-6.151119,4.847891,-0.208806,0.310838,-0.039427,-15.616771,188.495399,1523.478921,-924.978480,0
0.013529,-9.196316,-164.671910,153.315910,5.834718,-3.123229,6.637947,-2.736764,3.345062,-6.482658,2.780782,-0.175929,0.307702,-0.039427,-5.449081,188.495182,1522.459407,-924.683202,0
0.014571,41.742854,-208.561835,89.657765,4.647168,-5.210793,5.907728,-0.072566,5.546836,-5.924498,0.222690,-0.146705,0.297969,-0.073035,0.420808,188.495716,1523.027163,-924.175183,0
0.015612,117.499414,-179.120672,39.282765,3.697128,-6.460491,4.431414,2.543125,6.774537,-4.409492,-2.271360,-0.088257,0.301693,-0.028224,16.379218,188.495320,1522.734860,-923.379068,0
0.016654,183.172492,-130.060120,-9.971970,2.735778,-6.641555,2.411405,4.341645,7.013461,-2.558750,-4.189040,0.017680,0.315607,-0.058098,34.724038,188.499169,1523.510235,-923.115603,0
0.017696,192.688850,-68.652885,-72.522159,1.536918,-5.704282,-0.326918,6.017030,6.087172,0.232051,-5.679778,0.043251,0.313516,-0.046895,44.416707,188.498682,1523.801335,-923.234808,0
0.018737,171.036017,-17.876846,-150.399053,0.089238,-4.319673,-2.612822,6.587930,4.716117,2.578002,-6.366442,0.021333,0.317697,-0.046895,46.972767,188.495629,1524.667755,-923.671212,0
0.019779,111.828164,31.147463,-196.736175,-0.860802,-1.884182,-4.529648,5.957328,2.319528,4.432940,-5.683336,0.024986,0.316717,-0.020755,35.300848,188.495973,1524.653229,-923.555604,0
0.020821,55.671444,99.634107,-198.853599,-0.815562,0.746574,-6.093270,4.729707,-0.312309,6.166174,-4.712043,-0.018850,0.306984,-0.035692,21.694918,188.495982,1525.085616,-923.245313,0
0.021862,9.802372,165.994513,-152.959660,-0.023862,3.313425,-6.462348,2.621483,-2.844901,6.531287,-2.580893,-0.080951,0.318873,-0.024490,10.102168,188.479770,1525.646071,-923.866715,0
0.022904,-41.953458,208.543457,-90.274053,1.163688,5.390338,-5.751972,-0.132268,-5.009918,5.918569,-0.029917,-0.106522,0.305743,-0.076769,4.650748,188.632989,1526.401776,-924.343184,0
0.023946,-118.538021,179.150618,-38.729546,2.170278,6.711041,-4.251847,-2.699450,-6.204537,4.390973,2.478365,-0.197847,0.300843,-0.061832,-11.228491,188.505553,1527.226290,-925.286415,0
0.024987,-183.235644,129.546426,10.832955,3.109008,6.721692,-2.215963,-4.542747,-6.498597,2.468888,4.332003,-0.194194,0.310642,-0.058098,-30.613831,188.436416,1527.128258,-926.146185,0
0.026029,-193.126304,67.825087,72.927652,4.296558,5.869625,0.562045,-6.184550,-5.513496,-0.267356,5.901014,-0.270907,0.322205,-0.054364,-38.779651,188.499428,1527.693251,-926.762668,0
0.027071,-171.337361,17.471879,150.558334,5.755548,4.449514,2.772546,-6.654702,-4.157144,-2.571340,6.566331,-0.256295,0.310969,-0.035692,-43.880461,188.495256,1528.501976,-926.844312,0
0.028116,-111.709836,-30.863818,197.523296,6.660348,1.950118,4.705247,-6.031563,-1.753203,-4.443065,5.879666,-0.219765,0.329194,-0.050629,-32.242471,188.495322,1529.616943,-927.738406,0
0.029154,-57.175093,-99.459191,198.397349,6.671658,-0.620283,6.256963,-4.777823,0.908040,-6.176299,4.851449,-0.205153,0.319461,-0.031958,-16.917421,188.495323,1529.622949,-928.486253,0
0.030196,-10.024319,-166.049133,152.798864,5.846028,-3.151632,6.665727,-2.703181,3.403874,-6.545608,2.734530,-0.186888,0.311491,-0.031958,-5.550871,188.495278,1530.088424,-929.895607,0
0.031237,41.833594,-208.187327,89.473106,4.613238,-5.239195,5.883916,0.016987,5.624027,-5.869941,0.147975,-0.128440,0.297512,-0.031958,0.929758,188.495242,1529.150305,-931.169848,0
0.032279,118.009827,-178.987782,38.273296,3.640578,-6.488893,4.399666,2.580438,6.792916,-4.401098,-2.317612,-0.099216,0.296532,-0.035692,16.175638,188.419927,1529.378975,-931.386472,0
0.033321,182.696107,-128.948677,-10.562879,2.758398,-6.584751,2.399499,4.375227,7.042867,-2.470619,-4.171251,-0.022503,0.311753,-0.020755,35.391328,188.495291,1528.666087,-931.339120,0
0.034362,192.813618,-68.181730,-72.879167,1.559538,-5.665229,-0.330886,6.065538,6.039387,0.315985,-5.722472,-0.011544,0.314627,-0.020755,44.823867,188.495488,1528.099747,-932.373003,0
0.035404,171.070044,-18.625862,-150.596023,0.077928,-4.294821,-2.652508,6.569273,4.649953,2.536035,-6.380673,0.024986,0.328280,-0.002084,47.628747,188.495327,1527.555065,-932.553484,0
0.036446,112.508714,30.785036,-196.933145,-0.838182,-1.848680,-4.525679,5.912552,2.304825,4.420350,-5.661988,0.003068,0.335923,-0.024490,36.793768,188.495287,1527.208253,-932.872745,0
0.037487,55.909637,99.948211,-198.484281,-0.815562,0.771426,-6.077396,4.692394,-0.371121,6.149388,-4.655118,-0.015197,0.317501,-0.039427,21.660988,188.495495,1526.170585,-933.374068,0
0.038529,9.133165,165.970351,-152.528788,-0.001242,3.299224,-6.434568,2.558050,-2.844901,6.451549,-2.563104,-0.084604,0.305939,-0.061832,9.887278,188.495383,1525.246723,-932.634767,0
0.039571,-42.021513,208.615943,-89.178409,1.231548,5.326433,-5.720223,-0.139730,-4.954782,5.893389,0.005661,-0.110175,0.264065,-0.039427,4.797778,188.495338,1524.524020,-931.911827,0
0.040612,-118.367883,178.921080,-38.446402,2.181588,6.579681,-4.204224,-2.677062,-6.134697,4.357400,2.492596,-0.175929,0.303130,-0.031958,-11.443381,188.570908,1523.477275,-931.461465,0
0.041654,-183.734714,129.860529,10.672917,3.086388,6.700390,-2.208026,-4.494239,-6.483894,2.447904,4.324887,-0.248989,0.314104,-0.009553,-29.833441,188.495275,1523.339342,-931.647677,0
0.042696,-193.046907,68.839883,73.087690,4.273938,5.787969,0.546171,-6.162161,-5.454684,-0.317716,5.854762,-0.212459,0.316260,-0.039427,-39.650521,188.495448,1522.149205,-932.045112,0
0.043737,-171.133196,18.088005,150.878410,5.732928,4.378508,2.843981,-6.654702,-4.102008,-2.596520,6.527195,-0.285519,0.332069,-0.043161,-43.314961,188.495416,1521.150317,-932.442357,0
0.044779,-111.755206,-30.924222,196.821592,6.581178,1.978520,4.669529,-6.046489,-1.738500,-4.401098,5.812067,-0.270907,0.319657,-0.028224,-31.959721,188.495379,1519.901607,-931.801968,0
0.045821,-55.507746,-99.724970,198.557387,6.671658,-0.641585,6.213309,-4.833794,0.944797,-6.184693,4.787408,-0.216112,0.293070,-0.013287,-15.571531,188.495327,1519.274899,-931.664593,0
0.046862,-9.253029,-165.602140,152.712690,5.834718,-3.165833,6.618104,-2.733032,3.370792,-6.474264,2.777224,-0.205153,0.338993,-0.028224,-5.697901,188.495256,1518.951482,-930.327746,0
0.047904,42.162526,-208.151084,90.076326,4.669788,-5.228544,5.848199,0.005793,5.550512,-5.869941,0.176438,-0.124787,0.299863,-0.050629,0.443428,188.495360,1518.946420,-929.439522,0
0.048946,118.497554,-178.830730,38.667235,3.651888,-6.495994,4.367917,2.572976,6.756158,-4.350738,-2.314055,-0.084604,0.301888,-0.005818,16.481008,188.570680,1518.213363,-929.303280,0
0.049987,183.206520,-129.202376,-10.661364,2.724468,-6.588301,2.379657,4.371496,7.009785,-2.458029,-4.160577,-0.051727,0.310511,-0.031958,34.803208,188.495332,1518.019881,-929.209385,0
0.051029,192.620795,-67.348148,-73.051515,1.536918,-5.711382,-0.366603,6.084195,6.028360,0.307591,-5.694009,0.021333,0.315215,-0.035692,44.552427,188.495644,1517.772865,-928.438303,0
0.052071,170.639029,-16.898293,-150.534470,0.089238,-4.238017,-2.632665,6.569273,4.690387,2.569609,-6.355769,0.021333,0.313712,-0.043161,46.848357,188.495448,1518.065393,-927.704508,0
0.053112,111.329094,31.280353,-197.056251,-0.770322,-1.838029,-4.525679,5.923746,2.304825,4.437137,-5.683336,0.032292,0.335662,-0.054364,35.244298,188.495369,1518.402573,-927.356343,0
0.054154,56.567502,100.286476,-198.201137,-0.792942,0.799828,-6.101207,4.729707,-0.349067,6.149388,-4.683581,-0.015197,0.314692,-0.050629,21.808018,188.495436,1518.847260,-927.231899,0
0.055196,9.893112,166.755610,-152.221023,0.010068,3.341827,-6.506003,2.587901,-2.877983,6.497713,-2.580893,-0.073645,0.314758,-0.013287,9.966448,188.495427,1519.598096,-927.930346,0
0.056237,-42.271048,208.301839,-89.276894,1.174998,5.400989,-5.744035,-0.162119,-5.017269,5.880799,0.044798,-0.117481,0.304828,-0.054364,4.537648,188.495437,1519.406168,-928.852614,0
0.057279,-119.071118,178.800271,-37.584659,2.204208,6.647136,-4.220098,-2.747958,-6.230267,4.361596,2.542406,-0.179582,0.296271,-0.058098,-11.285041,188.495363,1520.427718,-929.730380,0
0.058321,-183.178931,128.869895,11.436174,3.120318,6.739443,-2.211995,-4.494239,-6.450812,2.481478,4.332003,-0.219765,0.309597,-0.035692,-30.726931,188.495287,1520.227242,-928.808900,0
0.059362,-193.080934,67.728440,73.814015,4.353108,5.894477,0.562045,-6.169624,-5.495117,-0.313519,5.883224,-0.263601,0.315607,-0.028224,-38.881441,188.495347,1521.158934,-928.501177,0
0.060404,-171.360046,18.269219,150.804546,5.744238,4.382059,2.796358,-6.650971,-4.135089,-2.604914,6.530752,-0.223418,0.326059,-0.013287,-43.846531,188.495369,1521.530569,-928.625960,0
0.061446,-112.095481,-30.887979,197.523296,6.626418,1.950118,4.729058,-6.016638,-1.738500,-4.405295,5.879666,-0.248989,0.334551,-0.065566,-32.242471,188.570845,1522.594150,-929.114781,0
0.062487,-56.154268,-99.894103,198.126516,6.649038,-0.662887,6.237120,-4.770360,0.944797,-6.142726,4.783850,-0.227071,0.325928,-0.028224,-16.702531,188.495513,1522.165326,-928.876934,0
0.063529,-9.071549,-166.725664,151.912500,5.800788,-3.183584,6.626041,-2.691987,3.477389,-6.533018,2.695394,-0.154011,0.296009,-0.020755,-5.324671,188.495332,1522.276787,-930.531201,0
0.064571,42.162526,-207.969870,88.771402,4.647168,-5.260497,5.891853,0.058032,5.532133,-5.882531,0.101723,-0.135746,0.316391,-0.043161,1.042858,188.495461,1521.746134,-930.497332,0
0.065612,118.849172,-178.709921,38.125568,3.674508,-6.456941,4.395697,2.602827,6.807619,-4.401098,-2.363864,-0.091910,0.302803,-0.061832,16.424458,188.570942,1522.743643,-931.030213,0
0.066654,182.934300,-129.419832,-10.796780,2.781018,-6.570550,2.355845,4.367765,7.013461,-2.441243,-4.164135,-0.033462,0.314823,-0.024490,35.515738,188.495416,1522.592962,-931.239864,0
0.067696,192.881673,-68.338782,-73.568561,1.525608,-5.729134,-0.358666,6.017030,6.017332,0.341165,-5.690451,0.010374,0.317044,-0.050629,44.903037,188.495389,1522.541317,-931.907605,0
0.068737,170.639029,-17.345286,-150.682197,0.100548,-4.202514,-2.644571,6.520765,4.627899,2.611575,-6.327306,0.024986,0.327692,-0.013287,47.617437,188.495475,1521.558133,-932.608477,0
0.069779,110.988819,31.449485,-197.388637,-0.838182,-1.802526,-4.521711,5.886432,2.275419,4.411957,-5.661988,-0.000585,0.330893,-0.020755,36.601498,188.563635,1521.129470,-932.364744,0
0.070821,55.047607,100.334800,-198.238069,-0.804252,0.739473,-6.061521,4.651349,-0.385824,6.166174,-4.633771,-0.048074,0.319069,-0.035692,21.627058,188.561363,1520.606369,-932.340150,0
0.071862,8.838260,166.501911,-152.122538,-0.046482,3.274372,-6.446474,2.587901,-2.830198,6.489320,-2.559546,-0.066339,0.281442,-0.043161,10.102168,188.495727,1520.410453,-931.451729,0
0.072904,-42.690720,208.156868,-89.572349,1.163688,5.383237,-5.672600,-0.177044,-4.980512,5.805259,0.059029,-0.091910,0.300059,-0.046895,4.684678,188.495703,1519.386715,-931.089081,0
0.073946,-119.252598,178.776110,-38.224811,2.136348,6.593882,-4.152632,-2.770346,-6.156752,4.336416,2.496154,-0.161317,0.297838,-0.035692,-11.511241,188.571201,1518.641388,-930.264605,0
0.074987,-183.678001,129.063190,11.153030,3.075078,6.668438,-2.168340,-4.490508,-6.399351,2.435314,4.321330,-0.194194,0.309074,-0.017021,-29.889991,188.496521,1517.841073,-930.417816,0
0.076029,-192.865427,67.257285,73.629356,4.296558,5.766667,0.581888,-6.150967,-5.351763,-0.284143,5.854762,-0.252642,0.312210,-0.050629,-39.729691,188.496165,1516.076709,-929.611780,0
0.077074,-170.441303,16.747025,151.063069,5.710308,4.350106,2.796358,-6.613657,-4.102008,-2.604914,6.456038,-0.245336,0.354540,-0.054364,-43.213171,188.496145,1515.144242,-928.369649,0
0.078127,-109.758926,-32.410173,198.766667,6.649038,1.903965,4.748901,-5.964399,-1.587795,-4.476639,5.794278,-0.234377,0.308878,-0.065566,-31.348981,188.571395,1513.821463,-928.904502,0
0.079159,-56.074871,-100.945142,197.707955,6.660348,-0.666437,6.233151,-4.751704,0.963176,-6.134332,4.712693,-0.223418,0.327953,-0.073035,-15.662011,188.571413,1513.142127,-928.836732,0
0.080196,-9.389139,-166.242428,152.343372,5.812098,-3.169383,6.558575,-2.647211,3.407550,-6.465871,2.723856,-0.150358,0.313059,-0.058098,-5.596111,188.494420,1512.572358,-927.786748,0
0.081237,42.502801,-208.078598,89.288447,4.624548,-5.246296,5.796607,0.061764,5.565215,-5.848957,0.115955,-0.095563,0.302280,-0.035692,0.624388,188.570463,1512.581679,-928.092716,0
0.082279,118.622322,-178.685759,37.731629,3.640578,-6.471142,4.356011,2.614021,6.767186,-4.308771,-2.353191,-0.059033,0.297969,-0.050629,16.514938,188.571361,1511.242983,-927.823919,0
0.083321,183.104437,-128.525846,-11.387689,2.758398,-6.527946,2.324096,4.341645,6.973028,-2.474816,-4.185482,-0.062686,0.308094,-0.046895,34.893688,188.570814,1511.262055,-927.150862,0
0.084362,192.530055,-66.949478,-73.740909,1.548228,-5.643927,-0.406289,6.020761,5.943817,0.278214,-5.658431,0.003068,0.328541,-0.020755,44.642907,188.495264,1510.534706,-925.532617,0
0.085404,170.695742,-17.478176,-151.039205,0.111858,-4.202514,-2.636633,6.517034,4.635250,2.653542,-6.359326,0.017680,0.323707,-0.039427,46.769187,188.570676,1510.994132,-926.265653,0
0.086446,111.816822,31.377000,-197.191667,-0.826872,-1.770573,-4.525679,5.875238,2.264392,4.374186,-5.654873,0.028639,0.328672,-0.028224,35.097268,188.495322,1510.707288,-926.241913,0
0.087487,55.898294,100.624742,-197.979546,-0.770322,0.821130,-6.085333,4.643886,-0.429933,6.115814,-4.594634,-0.015197,0.319200,-0.046895,21.525268,188.564290,1509.696933,-926.557299,0
0.088529,8.894972,167.009309,-151.593182,0.066618,3.338277,-6.434568,2.561782,-2.885334,6.510303,-2.516852,-0.077298,0.316195,-0.043161,9.627148,188.494913,1509.581559,-927.377998,0
0.089571,-42.588638,208.217273,-88.489015,1.220238,5.418740,-5.680537,-0.218089,-4.987863,5.826242,0.062587,-0.139399,0.298100,-0.043161,4.390618,188.570043,1509.806731,-927.121575,0
0.090612,-119.331996,178.751948,-37.572349,2.204208,6.600983,-4.148664,-2.747958,-6.153076,4.323826,2.524617,-0.161317,0.296597,-0.031958,-11.443381,188.495233,1509.678076,-927.196494,0
0.091654,-183.224301,129.353131,11.620833,3.120318,6.679089,-2.152466,-4.505433,-6.406703,2.435314,4.332003,-0.223418,0.311687,-0.039427,-30.817411,188.570159,1509.752861,-927.307537,0
0.092696,-193.080934,68.380809,74.515720,4.273938,5.784419,0.613637,-6.150967,-5.428953,-0.321913,5.854762,-0.238030,0.315672,-0.024490,-38.904061,188.495960,1510.804832,-928.054476,0
0.093737,-171.121853,17.689336,150.853788,5.755548,4.311053,2.836044,-6.617388,-4.061574,-2.609110,6.512963,-0.245336,0.325536,-0.039427,-43.812601,188.496212,1510.849137,-929.232394,0
0.094779,-110.881833,-31.504106,197.621781,6.626418,1.918166,4.733027,-5.990518,-1.679688,-4.438868,5.780047,-0.248989,0.326059,-0.046895,-32.061511,188.571230,1510.759095,-928.594038,0
0.095821,-54.963306,-100.292773,198.077273,6.626418,-0.691289,6.249026,-4.729315,0.985231,-6.109152,4.719808,-0.216112,0.306853,-0.046895,-16.555501,188.571489,1510.469284,-928.318647,0
0.096862,-8.447711,-166.955201,151.703220,5.823408,-3.155182,6.630010,-2.662136,3.473713,-6.440691,2.674047,-0.168623,0.300843,-0.020755,-5.403841,188.495859,1510.082156,-928.649267,0
0.097904,42.638911,-207.704090,89.522349,4.658478,-5.242746,5.856136,0.046838,5.576242,-5.773417,0.091050,-0.132093,0.306461,-0.020755,1.110718,188.495801,1509.005715,-928.901856,0
0.098946,119.563750,-178.697840,38.371780,3.629268,-6.495994,4.359980,2.591632,6.723077,-4.300378,-2.321170,-0.055380,0.301105,-0.013287,16.514938,188.571377,1508.947705,-928.340027,0
0.099987,183.093095,-129.021163,-11.572349,2.690538,-6.527946,2.339971,4.304331,6.958325,-2.449636,-4.146346,-0.007891,0.312602,-0.061832,35.606218,188.571344,1508.624156,-928.139564,0
0.101029,192.790933,-67.154853,-73.913258,1.525608,-5.626176,-0.414226,6.031956,5.954845,0.332771,-5.679778,0.046904,0.314562,-0.028224,44.936967,188.495987,1508.733822,-929.008966,0
0.102071,170.378152,-16.390895,-150.719129,0.089238,-4.170562,-2.600916,6.464794,4.587466,2.561215,-6.270380,0.028639,0.323054,-0.046895,47.628747,188.495933,1507.484840,-927.044062,0
0.103112,110.501092,31.993126,-197.240910,-0.804252,-1.781224,-4.462182,5.819267,2.271743,4.374186,-5.601505,-0.004238,0.299863,-0.065566,36.624118,188.571333,1506.985207,-926.143594,0
0.104154,55.535334,100.745551,-197.917993,-0.781632,0.774976,-6.025804,4.625229,-0.360094,6.065454,-4.605308,0.032292,0.335662,-0.031958,21.819328,188.571377,1507.097839,-924.771714,0
0.105196,9.155850,166.489830,-152.257955,0.066618,3.270822,-6.450442,2.550587,-2.833874,6.388599,-2.545315,-0.051727,0.307637,-0.050629,10.045618,188.495919,1506.010219,-923.693626,0
0.106237,-43.144420,208.048140,-89.166099,1.197618,5.333533,-5.640851,-0.173313,-4.965809,5.822045,0.030566,-0.124787,0.303652,-0.028224,4.548958,188.571306,1506.216126,-923.253560,0
0.107279,-119.286626,178.739867,-37.363068,2.170278,6.558379,-4.136758,-2.714376,-6.108967,4.265072,2.506828,-0.172276,0.297708,-0.024490,-11.601721,188.571558,1505.285620,-922.815492,0
0.108321,-183.519206,128.676601,11.940909,3.131628,6.650687,-2.180246,-4.471851,-6.340539,2.393347,4.303540,-0.205153,0.307637,-0.046895,-29.822131,188.571355,1504.295558,-922.168305,0
0.109362,-192.763344,66.870696,73.998674,4.307868,5.763117,0.518391,-6.128579,-5.392196,-0.300929,5.790720,-0.241683,0.317697,-0.039427,-39.729691,188.495997,1503.329656,-920.732656,0
0.110404,-170.747551,17.447718,151.333902,5.789478,4.343006,2.796358,-6.565149,-4.072602,-2.596520,6.448922,-0.256295,0.331742,-0.046895,-43.258411,188.571284,1502.994491,-919.886963,0
