1-Time,2-VGERA,3-VGERB,4-VGERC,5-VN,6-IGERAN,7-IGERBN,8-IGERCN,9-IGERAT,10-IGERBT,11-IGERCT,12-IN,13-IFD,14-IFAULT,15-VFAULT,16-Speed (rad/s),17-FAULT 
0.000000,130.134960,48.169456,-192.562879,-0.747702,-4.323224,-1.553210,5.655087,4.536005,1.444895,-5.427171,-0.000585,0.464025,0.020321,-8.434921,188.646627,0
0.001042,59.062852,105.662479,-196.502273,-0.860802,-2.303115,-3.664497,5.565534,2.536397,3.568421,-5.356014,0.003068,0.467879,-0.009553,-4.894891,188.495939,0
0.002083,-7.177351,166.477749,-170.268372,-0.419712,-0.190700,-5.184464,4.826723,0.378732,5.150575,-4.662233,-0.051727,0.453508,0.009119,2.807218,188.571033,0
0.003125,-63.901196,188.452914,-109.195455,0.824388,2.223490,-5.652757,2.860291,-1.959045,5.620604,-2.854847,-0.055380,0.451679,-0.039427,4.910878,188.495837,0
0.004167,-124.379409,196.873304,-31.060038,2.317308,4.236497,-5.549574,0.875202,-4.002762,5.616408,-0.869569,-0.102869,0.444558,-0.039427,10.362298,188.721880,0
0.005208,-164.838108,151.763208,35.047917,3.538788,5.340634,-4.378842,-1.307649,-5.182678,4.550448,1.119267,-0.183235,0.449131,-0.013287,14.117218,188.571268,0
0.006250,-199.761667,76.317963,85.853788,4.511448,6.011636,-2.497733,-3.598710,-5.895774,2.640952,3.456773,-0.227071,0.450960,-0.031958,16.707208,188.571031,0
0.007292,-175.692881,13.038188,148.256250,5.642448,5.496846,-0.569001,-4.863645,-5.410575,0.769227,4.680672,-0.234377,0.453573,-0.043161,16.628038,188.571234,0
0.008333,-130.050659,-47.716679,193.116099,6.547248,4.442413,1.716903,-5.833801,-4.366662,-1.534757,5.641291,-0.238030,0.468271,-0.054364,12.748708,188.721826,0
0.009375,-59.454936,-105.584209,196.304546,6.558558,2.390353,3.844064,-5.658426,-2.352351,-3.658284,5.534555,-0.219765,0.466899,-0.020755,8.620558,188.646603,0
0.010417,6.479020,-166.471965,170.439963,6.140088,0.224683,5.348157,-4.923347,-0.132197,-5.299190,4.862122,-0.216112,0.466899,-0.043161,2.648878,188.571049,0
0.011458,63.361660,-188.555858,109.207008,4.952538,-2.136252,5.848199,-2.956915,2.190877,-5.731450,3.076083,-0.212459,0.457231,-0.020755,-0.031592,188.646514,0
0.012500,124.667875,-196.722549,31.613258,3.527478,-4.184763,5.729141,-0.934512,4.322812,-5.769220,1.026763,-0.135746,0.446975,-0.076769,-5.290741,188.721927,0
0.013542,165.194629,-150.658062,-34.519318,2.283378,-5.331503,4.486975,1.285653,5.480673,-4.581556,-1.111502,-0.128440,0.445146,-0.054364,-9.226621,188.646411,0
0.014583,199.834626,-75.019522,-85.226705,1.299408,-6.013156,2.601897,3.591640,6.171714,-2.693044,-3.416987,-0.073645,0.440051,-0.043161,-12.325561,188.570922,0
0.015625,174.574877,-11.341077,-148.527841,0.100548,-5.480614,0.593794,4.912545,5.646082,-0.703812,-4.623097,-0.040768,0.474085,-0.024490,-11.658271,188.721847,0
0.016667,128.717147,48.918472,-193.067614,-0.702462,-4.358726,-1.711953,5.785685,4.528654,1.604369,-5.587274,-0.011544,0.460563,-0.024490,-7.812871,188.797253,0
0.017708,57.611012,106.109472,-196.613069,-0.849492,-2.264062,-3.854989,5.681207,2.481261,3.723699,-5.466307,-0.004238,0.468467,-0.050629,-4.894891,188.721873,0
0.018750,-7.540311,166.284455,-170.920834,-0.385782,-0.066440,-5.363050,4.871500,0.275811,5.322639,-4.751180,-0.022503,0.454096,-0.061832,2.705428,188.646460,0
0.019792,-63.095878,189.685166,-108.506061,0.801768,2.372601,-5.823406,2.834172,-2.098724,5.742308,-2.840616,-0.091910,0.454814,-0.028224,4.628128,188.721963,0
0.020833,-125.105329,196.680009,-32.081818,2.272068,4.392710,-5.632914,0.740873,-4.179198,5.729718,-0.844664,-0.095563,0.446649,-0.035692,10.543258,188.797327,0
0.021875,-166.732305,150.047720,33.509091,3.493548,5.532349,-4.366936,-1.512874,-5.344411,4.550448,1.339854,-0.186888,0.448086,-0.013287,14.139838,188.722041,0
0.022917,-200.680409,75.605189,85.275190,4.477518,6.132346,-2.414393,-3.826324,-5.991343,2.586395,3.656012,-0.208806,0.447367,-0.024490,16.910788,188.722011,0
0.023958,-174.626686,12.132120,149.191857,5.721618,5.539449,-0.374541,-5.124841,-5.436305,0.588770,4.855007,-0.205153,0.432538,-0.020755,16.854238,188.722058,0
0.025000,-129.052519,-48.683151,193.042235,6.569868,4.431763,1.879615,-5.927085,-4.307850,-1.698428,5.780047,-0.216112,0.450960,-0.020755,12.782638,188.797362,0
0.026042,-56.698708,-106.103688,196.907766,6.603798,2.305146,4.046462,-5.789024,-2.208996,-3.834545,5.648406,-0.281866,0.439528,-0.061832,9.219988,188.797353,0
0.027083,9.042425,-165.710868,170.821591,6.185328,0.111074,5.522775,-4.956929,-0.014573,-5.437681,4.915490,-0.252642,0.458864,-0.024490,2.433988,188.797402,0
0.028125,63.282262,-190.114294,107.126515,4.952538,-2.288914,5.955351,-2.927064,2.334231,-5.853154,2.969348,-0.168623,0.448739,-0.043161,-0.099452,188.797264,0
0.029167,124.758615,-196.396364,32.007197,3.584028,-4.316123,5.784701,-0.874810,4.436760,-5.756630,0.941375,-0.175929,0.450764,-0.013287,-5.347291,188.797418,0
0.030208,166.725867,-149.679509,-32.869697,2.294688,-5.420259,4.498880,1.423714,5.579918,-4.543786,-1.189775,-0.095563,0.450176,-0.061832,-9.204001,188.797266,0
0.031250,200.220271,-75.877266,-85.152841,1.310718,-6.069960,2.538400,3.718506,6.223174,-2.609110,-3.552185,-0.073645,0.450307,-0.024490,-12.336871,188.797463,0
0.032292,174.189232,-12.452520,-149.598864,0.066618,-5.469963,0.442988,5.024486,5.638730,-0.645058,-4.708485,-0.015197,0.463111,-0.061832,-12.008881,188.872804,0
0.033333,128.989367,48.326508,-193.153788,-0.804252,-4.319673,-1.791325,5.822999,4.502923,1.675713,-5.644199,-0.018850,0.463176,-0.031958,-8.186101,188.797273,0
0.034375,57.055229,106.266524,-196.957766,-0.860802,-2.207258,-3.962140,5.692401,2.429800,3.832813,-5.462749,0.014027,0.456578,-0.031958,-4.385941,188.872767,0
0.035417,-8.992151,166.042837,-170.699243,-0.363162,0.061370,-5.394799,4.849111,0.183917,5.372999,-4.680023,-0.022503,0.448674,-0.009553,2.852458,188.872617,0
0.036458,-63.095878,190.554991,-105.994697,0.880938,2.464908,-5.815469,2.800589,-2.142833,5.788472,-2.748112,-0.091910,0.425679,-0.024490,4.831708,188.872811,0
0.037500,-124.901164,196.631686,-30.715341,2.294688,4.438863,-5.589260,0.729679,-4.230659,5.725522,-0.773507,-0.099216,0.440769,-0.020755,10.430158,188.797306,0
0.038542,-166.743648,149.202057,33.595265,3.493548,5.571402,-4.347093,-1.557651,-5.348087,4.474907,1.403895,-0.179582,0.450242,-0.020755,14.275558,189.023613,0
0.039583,-200.952629,75.194439,85.349053,4.466208,6.167849,-2.398518,-3.830055,-5.976640,2.557018,3.648897,-0.230724,0.448608,-0.020755,16.707208,188.872693,0
0.040625,-174.399836,12.929459,149.708902,5.721618,5.528799,-0.338823,-5.143497,-5.428953,0.559393,4.876354,-0.245336,0.464809,-0.028224,16.661968,188.872646,0
0.041667,-129.608301,-47.656274,193.485417,6.592488,4.346556,1.927238,-5.889771,-4.318877,-1.727805,5.780047,-0.241683,0.454749,-0.031958,12.488578,188.797324,0
0.042708,-58.229946,-106.260740,196.600001,6.637728,2.258992,4.038525,-5.785293,-2.201645,-3.851331,5.609270,-0.256295,0.463764,-0.013287,8.258638,189.023419,0
0.043750,8.214422,-166.073295,170.698485,6.196638,0.093323,5.510869,-4.886033,0.003805,-5.425091,4.887027,-0.234377,0.461086,-0.031958,2.569708,188.948124,0
0.044792,63.044070,-190.259265,106.203220,4.884678,-2.359920,5.943445,-2.886019,2.382016,-5.848957,2.905307,-0.201500,0.449458,-0.058098,-0.031592,188.872824,0
0.045833,124.940095,-196.335960,30.751515,3.504858,-4.394229,5.776764,-0.770332,4.499248,-5.723056,0.880892,-0.135746,0.443578,-0.002084,-5.302051,188.872782,0
0.046875,166.623784,-148.338528,-33.891477,2.283378,-5.452212,4.447289,1.475953,5.598297,-4.480835,-1.250258,-0.080951,0.442468,-0.031958,-9.317101,189.023466,0
0.047917,200.571888,-73.497328,-85.103599,1.288098,-6.055759,2.550306,3.740894,6.204796,-2.554553,-3.541512,-0.029809,0.443317,-0.061832,-12.336871,188.948198,0
0.048958,173.633449,-10.990731,-149.820455,0.100548,-5.445111,0.450925,5.039411,5.653433,-0.594698,-4.751180,-0.048074,0.436262,-0.005818,-11.726131,188.872769,0
0.050000,128.547010,48.688935,-193.141478,-0.725082,-4.305472,-1.775451,5.804342,4.495572,1.730270,-5.622852,-0.007891,0.468925,-0.017021,-7.790251,189.023515,0
0.051042,57.179997,106.628951,-196.699243,-0.826872,-2.178855,-3.958172,5.703595,2.374664,3.874780,-5.469865,-0.000585,0.461216,-0.039427,-4.634761,189.023577,0
0.052083,-8.084751,165.958270,-170.957766,-0.363162,0.075571,-5.398768,4.774484,0.143484,5.402376,-4.722717,-0.007891,0.462327,-0.017021,2.728048,188.872707,0
0.053125,-62.857686,190.905337,-106.265531,0.869628,2.532364,-5.807532,2.744619,-2.201645,5.847226,-2.765901,-0.055380,0.452071,-0.031958,4.662058,188.872649,0
0.054167,-125.332179,196.269259,-31.096970,2.249448,4.442413,-5.589260,0.632663,-4.311525,5.700341,-0.727255,-0.113828,0.443186,-0.043161,10.531948,189.023539,0
0.055208,-167.843871,148.380555,33.398296,3.470928,5.574952,-4.303439,-1.662129,-5.381169,4.441334,1.467936,-0.168623,0.443970,-0.035692,14.230318,189.023549,0
0.056250,-200.884574,74.131319,85.262879,4.454898,6.125245,-2.338990,-3.863637,-5.976640,2.506658,3.691591,-0.190541,0.446387,-0.050629,16.899478,188.948117,0
0.057292,-173.730628,11.129405,149.844319,5.698998,5.532349,-0.235640,-5.121109,-5.417926,0.483852,4.908374,-0.248989,0.446845,-0.039427,16.831618,188.872595,0
0.058333,-128.371969,-48.936850,193.017614,6.547248,4.335905,1.962955,-5.923354,-4.223307,-1.769772,5.762258,-0.263601,0.430513,-0.046895,12.703468,189.023508,0
0.059375,-55.870706,-106.526519,196.895455,6.626418,2.212839,4.074242,-5.781562,-2.102400,-3.889102,5.584365,-0.227071,0.450372,-0.039427,9.084268,189.099002,0
0.060417,9.155850,-165.469250,170.723107,6.174018,0.072021,5.510869,-4.874839,0.055266,-5.437681,4.833660,-0.223418,0.437569,-0.046895,2.513158,188.947964,0
0.061458,63.021385,-190.549207,106.240152,4.895988,-2.388322,5.927571,-2.871093,2.404070,-5.832170,2.883959,-0.197847,0.452267,-0.020755,-0.099452,188.948040,0
0.062500,124.996807,-195.985614,32.019508,3.527478,-4.333874,5.697393,-0.788989,4.451463,-5.697876,0.880892,-0.150358,0.447955,-0.013287,-5.381221,189.023421,0
0.063542,167.485814,-148.664713,-32.955871,2.283378,-5.423810,4.443320,1.438639,5.543161,-4.526999,-1.243143,-0.102869,0.451156,-0.039427,-9.260551,189.098930,0
0.064583,200.265641,-74.922875,-85.239015,1.299408,-5.984754,2.478871,3.692387,6.182741,-2.567143,-3.498818,-0.051727,0.445799,-0.024490,-12.359491,188.872711,0
0.065625,173.826272,-11.703504,-149.857387,0.043998,-5.434461,0.423145,4.994635,5.572567,-0.577911,-4.722717,-0.033462,0.457166,-0.058098,-12.008881,188.948153,0
0.066667,128.365530,48.930553,-193.055304,-0.759012,-4.230916,-1.775451,5.729715,4.403678,1.684106,-5.551695,-0.004238,0.462523,-0.046895,-8.118241,189.023446,0
0.067708,56.011719,106.592708,-196.748485,-0.804252,-2.157554,-3.930392,5.591654,2.356285,3.795043,-5.412939,-0.004238,0.461543,-0.031958,-4.250221,189.098975,0
0.068750,-9.729414,165.909947,-170.354546,-0.317922,0.025867,-5.319396,4.759558,0.158187,5.297459,-4.630213,-0.037115,0.455468,-0.020755,2.875078,188.872742,0
0.069792,-63.470181,190.216726,-105.588447,0.880938,2.397453,-5.787689,2.748350,-2.113427,5.742308,-2.726765,-0.062686,0.442272,-0.028224,4.854328,189.098906,0
0.070833,-125.196069,196.257178,-30.592235,2.272068,4.335905,-5.541637,0.718485,-4.171847,5.649981,-0.737929,-0.128440,0.442729,-0.017021,10.486708,189.023450,0
0.071875,-166.834388,149.105409,33.607576,3.504858,5.429391,-4.283596,-1.527800,-5.256193,4.420350,1.318507,-0.164970,0.446583,-0.005818,14.264248,189.098855,0
0.072917,-200.601012,75.460219,85.656818,4.522758,6.040039,-2.394550,-3.725577,-5.866368,2.527642,3.591971,-0.179582,0.448739,-0.024490,16.673278,188.872833,0
0.073958,-174.377151,12.881136,149.647349,5.710308,5.454243,-0.350729,-5.035288,-5.355438,0.571983,4.758945,-0.285519,0.457231,-0.013287,16.650658,189.023508,0
0.075000,-129.290711,-48.091187,193.362311,6.569868,4.264900,1.851835,-5.785293,-4.263741,-1.685838,5.666196,-0.256295,0.466638,-0.043161,12.499888,189.023624,0
0.076042,-57.560738,-106.321144,196.378410,6.637728,2.273193,3.923436,-5.647232,-2.212672,-3.725431,5.495419,-0.245336,0.470231,-0.005818,8.258638,189.098946,0
0.077083,8.758862,-166.085376,170.230682,6.140088,0.096873,5.375937,-4.811405,0.025860,-5.286600,4.755387,-0.234377,0.454684,-0.050629,2.524468,188.872559,0
0.078125,63.554482,-189.486087,106.153978,4.907298,-2.278263,5.800576,-2.826317,2.293798,-5.710466,2.869728,-0.150358,0.449262,-0.054364,-0.099452,189.023263,0
0.079167,124.838012,-196.070180,30.209849,3.504858,-4.223816,5.621990,-0.822571,4.374272,-5.601352,0.912912,-0.132093,0.440704,-0.028224,-5.290741,189.098953,0
0.080208,166.090687,-148.688874,-34.519318,2.294688,-5.285349,4.387760,1.375206,5.436564,-4.430475,-1.168428,-0.102869,0.444558,-0.028224,-9.317101,189.023531,0
0.081250,199.993421,-73.871836,-85.534470,1.322028,-5.888896,2.498714,3.587908,6.072469,-2.541963,-3.395640,-0.073645,0.443970,-0.039427,-12.314251,188.948050,0
0.082292,173.769559,-11.401481,-149.438826,0.021378,-5.338603,0.506485,4.819260,5.513755,-0.624075,-4.566172,-0.037115,0.453247,-0.043161,-11.669581,189.023417,0
0.083333,128.773860,48.676854,-192.932198,-0.747702,-4.209615,-1.704016,5.655087,4.388975,1.583386,-5.459191,0.006721,0.472583,-0.046895,-7.778941,189.098773,0
0.084375,57.769807,106.677275,-196.206819,-0.826872,-2.196607,-3.775617,5.513295,2.396719,3.664945,-5.306204,-0.007891,0.459779,-0.028224,-4.793101,188.948133,0
0.085417,-8.050724,166.151565,-170.280682,-0.397092,-0.006085,-5.208276,4.725976,0.228026,5.175755,-4.587519,-0.033462,0.459322,-0.039427,2.773288,188.947966,0
0.086458,-63.617633,189.540195,-106.634849,0.835698,2.333548,-5.632914,2.718499,-2.043588,5.620604,-2.744554,-0.080951,0.449131,-0.020755,4.662058,189.023531,0
0.087500,-125.241439,196.051802,-30.358333,2.249448,4.275550,-5.430516,0.692365,-4.065250,5.578637,-0.741486,-0.128440,0.437960,-0.028224,10.554568,189.098897,0
0.088542,-166.505455,149.177895,34.506250,3.516168,5.337084,-4.184381,-1.460635,-5.131218,4.315433,1.286486,-0.175929,0.439398,-0.024490,14.083288,188.872671,0
0.089583,-200.067914,74.143400,85.816856,4.454898,5.937081,-2.331052,-3.662144,-5.737716,2.498265,3.538603,-0.223418,0.441423,-0.020755,16.865548,188.948128,0
0.090625,-173.968821,10.742816,149.142614,5.687688,5.376137,-0.358666,-4.867376,-5.204733,0.605556,4.677114,-0.216112,0.431820,-0.024490,16.831618,189.023459,0
0.091667,-128.383311,-49.178468,192.648296,6.558558,4.247148,1.804212,-5.703203,-4.171847,-1.614494,5.587923,-0.234377,0.472975,-0.035692,12.782638,189.098895,0
0.092708,-56.732736,-106.381549,196.132198,6.615108,2.230590,3.852001,-5.524097,-2.164887,-3.641497,5.420704,-0.230724,0.449654,-0.028224,9.321778,188.872813,0
0.093750,8.305162,-165.892082,170.021402,6.140088,0.146577,5.264817,-4.755435,-0.029276,-5.173290,4.694903,-0.190541,0.454749,-0.050629,2.524468,188.948111,0
0.094792,63.747305,-188.688748,107.791288,4.952538,-2.168205,5.669613,-2.841242,2.198228,-5.592959,2.883959,-0.190541,0.448739,-0.009553,-0.167312,189.023580,0
0.095833,125.019492,-195.792319,31.588636,3.538788,-4.088905,5.502932,-0.837496,4.223566,-5.555189,0.959164,-0.154011,0.446061,-0.024490,-5.290741,189.098808,0
0.096875,165.897864,-149.993612,-34.297727,2.260758,-5.161089,4.352043,1.266996,5.282182,-4.380115,-1.061693,-0.124787,0.445669,-0.009553,-9.147451,188.872664,0
0.097917,199.233473,-74.934955,-86.100758,1.265478,-5.785938,2.490777,3.502087,5.943817,-2.558750,-3.260442,-0.048074,0.443448,-0.035692,-12.280321,188.872702,0
0.098958,174.291314,-11.135701,-148.638637,0.055308,-5.224994,0.562045,4.684931,5.425537,-0.708009,-4.359817,-0.066339,0.450699,-0.043161,-11.986261,189.023464,0
0.100000,128.172707,49.510437,-192.575190,-0.759012,-4.124408,-1.596864,5.539415,4.396327,1.507845,-5.299088,-0.022503,0.423197,-0.035692,-8.197411,189.023513,0
0.101042,56.295282,106.508142,-196.132955,-0.849492,-2.193057,-3.600999,5.371503,2.404070,3.509668,-5.171006,0.003068,0.451809,-0.024490,-4.634761,188.872640,0
0.102083,-9.366454,166.211969,-169.443561,-0.340542,-0.112594,-5.045564,4.628960,0.319920,5.020477,-4.516362,-0.018850,0.432996,-0.043161,2.841148,188.872673,0
0.103125,-64.525034,188.175053,-107.681250,0.813078,2.138283,-5.446391,2.748350,-1.874503,5.490507,-2.737438,-0.062686,0.442729,-0.013287,4.933498,189.023457,0
0.104167,-125.014589,195.991398,-31.096970,2.272068,4.090936,-5.343208,0.837889,-3.874111,5.431753,-0.794854,-0.113828,0.441488,-0.046895,10.464088,188.947884,0
0.105208,-165.393890,151.135001,34.789394,3.538788,5.127617,-4.160570,-1.281529,-4.951106,4.340613,1.069458,-0.157664,0.445277,-0.043161,14.162458,188.872626,0
0.106250,-199.149172,76.559581,86.629356,4.488828,5.805720,-2.402487,-3.512889,-5.616417,2.569609,3.314459,-0.212459,0.445081,-0.035692,16.639348,188.872771,0
0.107292,-175.205153,12.651599,148.514773,5.676378,5.262528,-0.505504,-4.609911,-5.145921,0.702080,4.442296,-0.212459,0.456121,-0.013287,16.582798,189.023506,0
0.108333,-129.268026,-48.683151,192.660607,6.569868,4.204545,1.661343,-5.520366,-4.120386,-1.496987,5.399357,-0.248989,0.458734,-0.069301,12.680848,188.872617,0
0.109375,-57.628793,-106.188254,195.836743,6.603798,2.326448,3.609918,-5.393499,-2.208996,-3.440056,5.228581,-0.219765,0.447694,-0.002084,8.439598,188.797159,0
0.110417,8.497985,-166.218266,169.135038,6.162708,0.235334,5.046545,-4.692002,-0.069710,-4.963455,4.637978,-0.230724,0.411961,-0.039427,2.558398,188.872693,0
0.111458,64.688732,-187.504819,108.049811,4.952538,-1.983590,5.530712,-2.837511,2.065901,-5.370534,2.919538,-0.223418,0.419931,-0.020755,-0.167312,188.948066,0
0.112500,124.554450,-195.695672,30.123674,3.493548,-3.918492,5.459278,-0.964363,4.010373,-5.404108,1.037437,-0.139399,0.440377,-0.009553,-5.302051,188.872740,0
0.113542,164.491394,-150.948003,-35.848864,2.272068,-4.930321,4.296483,1.099085,5.083692,-4.321361,-0.912263,-0.124787,0.442860,0.020321,-9.181381,188.797260,0
0.114583,198.360100,-75.502758,-86.802462,1.242858,-5.626176,2.578086,3.274473,5.756354,-2.642684,-3.103897,-0.080951,0.444101,-0.024490,-12.291631,188.797219,0
0.115625,174.949179,-12.138416,-148.330872,0.111858,-5.129137,0.693008,4.483437,5.344670,-0.808729,-4.181924,-0.015197,0.455402,-0.024490,-11.601721,188.872711,0
0.116667,129.443067,49.039282,-192.205872,-0.747702,-4.135059,-1.442090,5.382697,4.337515,1.310601,-5.160332,0.021333,0.455337,-0.024490,-7.846801,188.872675,0
0.117708,58.450357,106.544385,-195.739016,-0.804252,-2.217909,-3.454162,5.281950,2.466558,3.366980,-5.099849,-0.026156,0.451548,-0.020755,-5.064541,188.797309,0
0.118750,-7.631051,166.369021,-169.086554,-0.374472,-0.172948,-4.886820,4.565527,0.426517,4.856806,-4.445205,-0.051727,0.453247,-0.017021,2.807218,188.797409,0
0.119792,-64.876651,187.522684,-108.616856,0.801768,2.049526,-5.311459,2.763276,-1.738500,5.352016,-2.730323,-0.069992,0.445473,-0.043161,4.820398,188.797206,0
0.120833,-124.867136,195.665213,-30.161364,2.283378,3.931173,-5.255899,0.860277,-3.738108,5.293262,-0.876685,-0.113828,0.435805,-0.017021,10.599808,188.721882,0
0.121875,-164.633943,151.424943,36.291288,3.561408,5.006908,-4.144695,-1.180783,-4.807752,4.281859,1.044553,-0.139399,0.436327,-0.031958,14.026738,188.797347,0
0.122917,-198.139689,75.254843,87.060228,4.511448,5.713413,-2.418361,-3.356171,-5.495117,2.523445,3.204166,-0.179582,0.440116,-0.050629,16.729828,188.722052,0
0.123958,-175.205153,11.032758,148.059281,5.721618,5.184422,-0.624561,-4.490508,-5.068730,0.823784,4.282193,-0.212459,0.435282,-0.028224,16.888168,188.797298,0
0.125000,-129.313396,-49.601300,191.774243,6.558558,4.186793,1.522442,-5.412156,-4.090980,-1.358496,5.246370,-0.245336,0.456709,-0.061832,12.997528,188.722007,0
0.126042,-58.071151,-106.441953,195.639773,6.615108,2.347749,3.474986,-5.303946,-2.249430,-3.326745,5.207233,-0.252642,0.455076,-0.035692,9.683698,188.797200,0
0.127083,7.091515,-166.290752,168.778031,6.083538,0.345392,4.899707,-4.658419,-0.220415,-4.782997,4.634420,-0.245336,0.457950,-0.031958,2.626258,188.646502,0
