1-Time,2-VGERA,3-VGERB,4-VGERC,5-VN,6-IGERAN,7-IGERBN,8-IGERCN,9-IGERAT,10-IGERBT,11-IGERCT,12-IN,13-IFD,14-IFAULT,15-VFAULT,16-Speed (rad/s),17-Active Power,18-Reactive Power,19-FAULT 
0.000000,67.186457,84.257294,-198.966458,-3.513893,0.317628,-5.608698,5.078804,0.024931,5.765842,-5.105409,-0.093995,0.333427,0.000144,0.310443,188.571107,1519.519075,-894.010612,0
0.001042,11.590825,151.685397,-168.842463,-2.984706,2.673429,-6.454941,3.482093,-2.405728,6.464671,-3.346186,-0.079410,0.341971,-0.014723,0.254152,188.495702,1520.346389,-894.326699,0
0.002083,-37.258752,195.235894,-103.211285,-1.712405,4.684300,-5.870338,0.876324,-4.509768,5.843489,-0.707351,0.015390,0.343005,0.026161,0.085277,188.646444,1520.729593,-894.816138,0
0.003125,-106.538595,189.715740,-46.244248,-0.631512,6.342902,-4.688868,-1.791303,-6.097293,4.545047,1.874365,0.066437,0.318821,-0.018440,-0.072340,188.495683,1521.232259,-894.716586,0
0.004167,-167.705090,139.611527,6.566917,0.415603,6.768561,-2.787886,-3.971799,-6.579627,2.677188,4.105761,0.066437,0.323575,0.003860,-0.184923,188.571131,1521.272606,-895.025353,0
0.005208,-202.486260,79.441840,61.978540,1.507755,6.141081,-0.294125,-5.560777,-5.880812,0.119128,5.579395,0.099252,0.329362,0.003860,-0.162406,188.495671,1520.945751,-894.713724,0
0.006250,-173.976549,26.049024,138.910774,3.027760,4.798054,2.101520,-6.488647,-4.597120,-2.270696,6.527548,0.117483,0.342109,-0.029590,0.164085,188.646478,1521.790578,-895.800335,0
0.007292,-127.307857,-24.748145,189.814127,4.018579,3.051385,3.924827,-6.306939,-2.720955,-3.978946,6.123917,0.110191,0.356096,0.037311,0.400510,188.495624,1521.286177,-896.335389,0
0.008333,-66.254361,-84.436286,199.268127,4.209987,0.189196,5.641843,-5.143235,0.097091,-5.747588,5.065337,0.088314,0.341833,0.003860,0.231635,188.571134,1521.705576,-895.718496,0
0.009375,-10.862127,-151.688214,168.621611,3.613244,-2.170275,6.488086,-3.484667,2.501166,-6.394652,3.309922,0.055498,0.339146,0.003860,0.287927,188.495805,1521.292051,-895.596050,0
0.010417,37.704952,-195.814216,103.051191,2.397239,-4.115096,5.866690,-0.967818,4.597610,-5.816608,0.690126,0.019036,0.333565,-0.007290,0.490577,188.646542,1521.621756,-895.652915,0
0.011458,106.510198,-189.624596,46.278581,1.260050,-5.759019,4.697484,1.699809,6.173740,-4.561304,-1.952516,-0.035656,0.317580,0.018727,0.569385,188.495767,1521.604776,-895.831436,0
0.012500,167.744493,-139.602598,-6.520433,0.224195,-6.188348,2.804679,3.903501,6.675064,-2.723641,-4.100139,-0.072118,0.322817,-0.003573,0.659451,188.571026,1522.024019,-895.542734,0
0.013542,202.231865,-79.115796,-61.591809,-0.834180,-5.516834,0.278213,5.546605,5.964856,-0.148326,-5.638507,-0.112226,0.329018,-0.011006,0.659451,188.495613,1521.586159,-895.101637,0
0.014583,174.185450,-25.746470,-138.426829,-2.354185,-4.221510,-2.068375,6.397153,4.722940,2.219930,-6.529542,-0.104934,0.335494,0.003860,0.310443,188.646433,1521.449230,-894.467087,0
0.015625,127.087362,24.886268,-189.670429,-3.288707,-2.463833,-3.879418,6.238642,2.861967,3.932493,-6.148757,-0.130457,0.326813,0.026161,0.119052,188.495588,1520.297317,-893.865428,0
0.016667,66.112965,84.327764,-199.245946,-3.547671,0.295611,-5.641403,5.082670,-0.024442,5.761528,-5.078754,-0.104934,0.333083,0.037311,0.310443,188.571141,1519.817243,-893.965559,0
0.017708,10.969329,151.732377,-168.441458,-2.984706,2.699116,-6.442677,3.408637,-2.409526,6.408592,-3.327147,-0.068472,0.328880,0.015011,0.299185,188.495759,1519.120623,-893.384673,0
0.018750,-37.416951,195.423815,-102.579398,-1.689887,4.669622,-5.817192,0.845395,-4.505970,5.813293,-0.726391,0.000805,0.337561,0.007577,0.062760,188.646565,1519.003321,-892.838545,0
0.019792,-106.674194,189.715740,-45.478692,-0.575216,6.320885,-4.684780,-1.787437,-6.055516,4.532106,1.912444,0.000805,0.315789,-0.022156,-0.038565,188.571091,1518.550866,-892.609803,0
0.020833,-167.366093,139.435352,7.174501,0.471899,6.739205,-2.771534,-3.998861,-6.572031,2.664247,4.067682,0.059144,0.320681,-0.044457,-0.128631,188.571129,1518.307776,-891.958052,0
0.021875,-202.486260,78.925060,62.063602,1.496495,6.093378,-0.253244,-5.572375,-5.846631,0.132069,5.583203,0.091960,0.328811,0.007577,-0.094856,188.495644,1518.042919,-891.627573,0
0.022917,-173.976549,25.273853,138.497617,2.993982,4.754020,2.060639,-6.434521,-4.540151,-2.249127,6.489470,0.128422,0.318545,0.015011,0.209118,188.721933,1517.075729,-891.035389,0
0.023959,-126.810661,-25.018280,190.117918,3.917245,3.003682,3.904386,-6.287608,-2.701965,-3.940122,6.108685,0.135714,0.343694,-0.018440,0.400510,188.495642,1516.762723,-890.461888,0
0.025000,-65.734564,-84.377561,199.073700,4.198728,0.192866,5.666372,-5.089109,0.127475,-5.743274,5.057721,0.070083,0.349826,-0.011006,0.254152,188.571065,1516.407489,-890.482980,0
0.026042,-10.568329,-152.099289,168.487943,3.590725,-2.052852,6.434940,-3.469202,2.482176,-6.386025,3.298498,0.088314,0.304558,0.007577,0.276668,188.495788,1516.402574,-890.109957,0
0.027084,37.851851,-195.414886,102.747399,2.318424,-4.107757,5.838073,-0.921425,4.616599,-5.833863,0.678703,0.044560,0.342316,0.000144,0.513093,188.721847,1516.456570,-890.230279,0
0.028125,106.792696,-189.683321,45.646694,1.282569,-5.678291,4.648427,1.703675,6.204124,-4.513852,-1.918245,-0.017425,0.313860,0.015011,0.614418,188.495734,1516.478397,-889.949393,0
0.029167,167.439395,-139.355953,-7.006500,0.224195,-6.125967,2.776062,3.926698,6.705447,-2.641680,-4.077291,-0.083057,0.322128,-0.025873,0.659451,188.571156,1515.964704,-890.124188,0
0.030209,202.401364,-78.786936,-61.737629,-0.856698,-5.538851,0.278213,5.535007,5.980047,-0.109502,-5.623275,-0.123164,0.327502,-0.018440,0.681968,188.495754,1515.931054,-890.215714,0
0.031250,173.891652,-25.429355,-138.548346,-2.376704,-4.151790,-2.072463,6.381688,4.662174,2.215616,-6.556196,-0.155980,0.316271,-0.022156,0.332960,188.721916,1515.527236,-890.379378,0
0.032292,127.042162,25.273853,-189.731187,-3.333744,-2.471172,-3.879418,6.227043,2.823988,3.971317,-6.255377,-0.104934,0.328604,-0.011006,0.130310,188.571147,1516.590850,-891.353332,0
0.033334,66.022565,84.774075,-199.087974,-3.502634,0.391017,-5.653667,5.055607,-0.016846,5.722704,-5.071138,-0.112226,0.295395,-0.007290,0.344218,188.571058,1516.399858,-890.774196,0
0.034375,10.765930,151.708887,-168.356397,-2.928410,2.732141,-6.450853,3.416369,-2.420920,6.395651,-3.330954,-0.057533,0.303938,-0.029590,0.265410,188.495731,1516.312794,-890.696882,0
0.035417,-37.654250,195.717440,-102.020421,-1.656109,4.739342,-5.829457,0.814466,-4.524960,5.821920,-0.665465,-0.013779,0.322817,-0.011006,0.074019,188.721824,1516.164512,-891.199797,0
0.036459,-106.764593,189.363389,-45.211356,-0.597734,6.331894,-4.647986,-1.814500,-6.082101,4.480341,1.939099,0.011744,0.311862,-0.014723,-0.072340,188.571011,1515.658518,-891.633558,0
0.037500,-168.247487,138.918571,7.198804,0.438121,6.746544,-2.722476,-3.979531,-6.606212,2.651306,4.113376,0.121129,0.320268,-0.022156,-0.162406,188.495591,1516.208710,-892.227357,0
0.038542,-202.294162,78.678414,62.282332,1.507755,6.126403,-0.232803,-5.572375,-5.835237,0.041480,5.594627,0.088314,0.325917,-0.007290,-0.173665,188.495633,1515.590162,-893.025502,0
0.039584,-173.818350,25.262108,139.263172,3.027760,4.801723,2.158754,-6.446119,-4.589524,-2.275010,6.508509,0.132068,0.293259,0.000144,0.175343,188.721882,1516.502609,-893.196753,0
0.040625,-126.878460,-25.417610,189.789823,4.018579,2.989004,3.941180,-6.291474,-2.671582,-3.983259,6.093454,0.102898,0.341971,-0.025873,0.377993,188.570933,1516.165852,-893.715475,0
0.041667,-65.678065,-84.988301,199.316734,4.209987,0.214882,5.658195,-5.104574,0.127475,-5.773470,5.023450,0.110191,0.338595,0.000144,0.186602,188.571062,1516.256538,-893.964944,0
0.042709,-10.398830,-151.817409,168.220606,3.624503,-2.173944,6.430852,-3.461470,2.561932,-6.373083,3.248996,0.037267,0.313791,-0.003573,0.276668,188.495658,1515.418448,-894.890985,0
0.043750,38.043950,-196.178312,102.261332,2.352202,-4.126104,5.874866,-0.875031,4.635589,-5.773470,0.644432,0.033621,0.331429,-0.014723,0.513093,188.721954,1514.870074,-895.129074,0
0.044792,106.973495,-189.131306,45.537329,1.248791,-5.692969,4.640250,1.761667,6.188932,-4.475028,-1.963939,-0.035656,0.314893,0.000144,0.580643,188.571009,1514.089326,-895.378413,0
0.045834,168.230390,-139.168033,-7.030803,0.235454,-6.144314,2.788326,3.949895,6.675064,-2.628738,-4.126793,-0.064826,0.319372,0.003860,0.670710,188.571113,1514.006890,-895.804886,0
0.046875,201.904167,-78.704721,-61.956359,-0.845439,-5.469131,0.241420,5.496345,5.938270,-0.118129,-5.611852,-0.112226,0.327433,-0.007290,0.670710,188.499873,1513.415421,-895.418307,0
0.047918,173.835153,-25.311905,-139.034413,-2.365445,-4.100418,-2.154226,6.377822,4.593812,2.301891,-6.556196,-0.141395,0.329982,-0.003573,0.287927,188.722956,1512.705062,-896.537653,0
0.048961,126.646665,25.590969,-189.804097,-3.254929,-2.375765,-3.903946,6.196114,2.706253,3.975630,-6.133526,-0.137749,0.340731,-0.014723,0.119052,188.571136,1510.410686,-896.785610,0
0.050001,65.966066,84.950250,-199.270249,-1.779961,0.427712,-5.641403,4.982150,-0.104198,5.761528,-4.972134,-0.119518,0.319579,0.015011,0.332960,188.571831,1509.188919,-898.111843,0
0.051042,10.743330,151.873317,-168.052605,-2.928410,2.750488,-6.373178,3.358377,-2.451303,6.326630,-3.224335,-0.079410,0.323368,-0.022156,0.287927,188.496395,1507.413184,-898.477692,0
0.052083,-37.665550,195.658715,-101.959662,-1.689887,4.680631,-5.735430,0.764206,-4.551545,5.748586,-0.604540,0.037267,0.334048,0.015011,0.062760,188.722732,1506.213665,-899.119876,0
0.053125,-107.193990,189.257684,-45.247811,-0.575216,6.287860,-4.582576,-1.872492,-6.070707,4.385438,1.988601,0.033621,0.310277,-0.022156,-0.072340,188.573033,1505.035271,-899.716620,0
0.054167,-168.021488,138.989041,7.429686,0.438121,6.687833,-2.714300,-3.998861,-6.522658,2.582286,4.067682,0.077375,0.316340,-0.003573,-0.173665,188.572106,1503.488613,-899.158898,0
0.055208,-202.124663,78.701904,62.598276,1.519014,6.034666,-0.191922,-5.541446,-5.812450,0.106186,5.560356,0.113837,0.323092,-0.011006,-0.139890,188.572032,1503.492765,-898.093372,0
0.056250,-173.773150,25.191638,139.117352,3.039020,4.684300,2.142401,-6.388128,-4.483183,-2.279324,6.466623,0.110191,0.342453,-0.025873,0.164085,188.722828,1501.909241,-898.170864,0
0.057292,-126.912360,-25.276670,190.093615,3.951023,2.944970,3.904386,-6.160026,-2.607017,-3.974632,6.028721,0.110191,0.349206,-0.003573,0.355477,188.571073,1500.705268,-898.408464,0
0.058333,-65.870163,-84.964811,199.098004,4.142431,0.145162,5.637755,-5.034983,0.218624,-5.777784,4.920639,0.106545,0.340111,0.003860,0.231635,188.495709,1499.001049,-899.489361,0
0.059375,-10.636128,-152.322444,168.232758,3.556947,-2.166605,6.389971,-3.368683,2.592315,-6.338573,3.180455,0.070083,0.337079,-0.007290,0.276668,188.570984,1498.098886,-900.071549,0
0.060417,38.236049,-195.649786,102.382849,2.329684,-4.115096,5.772663,-0.805441,4.609003,-5.756215,0.564468,0.019036,0.336735,-0.018440,0.490577,188.722012,1497.077290,-900.378226,0
0.061459,107.459391,-189.166541,47.663871,1.305087,-5.685630,4.599369,1.827391,6.154751,-4.388753,-2.085790,-0.032010,0.312826,-0.007290,0.591901,188.571232,1495.377613,-902.394094,0
0.062500,168.162590,-138.968368,-7.273837,0.224195,-6.092941,2.739269,3.953761,6.663670,-2.598542,-4.157256,-0.075764,0.318821,-0.003573,0.670710,188.495723,1495.013366,-902.737463,0
0.063542,202.005867,-78.516801,-62.284454,-0.822920,-5.417758,0.204627,5.546605,5.919281,-0.053423,-5.661354,-0.075764,0.323299,0.018727,0.681968,188.646596,1494.819288,-903.730349,0
0.064584,173.643054,-27.120637,-139.666300,-2.342926,-4.107757,-2.170578,6.389421,4.578620,2.301891,-6.491463,-0.141395,0.337355,-0.018440,0.344218,188.721875,1494.032216,-903.867780,0
0.065625,127.109961,25.649694,-189.743339,-3.378782,-2.427138,-3.928475,6.169051,2.755625,3.997199,-6.110679,-0.115872,0.356991,-0.014723,0.141568,188.571140,1494.317923,-903.807703,0
0.066667,66.214664,85.455285,-198.905699,-3.581449,0.405695,-5.633226,4.982150,-0.096602,5.752900,-5.029252,-0.119518,0.338388,-0.007290,0.321702,188.498168,1495.028436,-903.528629,0
0.067709,10.709431,152.002512,-167.736661,-2.962187,2.805530,-6.434500,3.304252,-2.462697,6.365454,-3.201488,-0.042949,0.335012,-0.033307,0.276668,188.647041,1495.145674,-903.887027,0
0.068754,-38.117547,196.210730,-101.595112,-1.667368,4.732003,-5.772223,0.744876,-4.547747,5.783097,-0.604540,0.000805,0.329845,-0.018440,0.085277,188.654183,1495.831534,-903.715663,0
0.069792,-107.544288,188.705669,-45.442237,-0.597734,6.331894,-4.582576,-1.837697,-6.082101,4.454458,1.931483,0.008098,0.313929,-0.040740,-0.072340,188.571313,1496.836014,-902.889879,0
0.070835,-169.185381,138.695416,7.320321,0.460640,6.786908,-2.681595,-4.025924,-6.583425,2.603854,4.147647,0.081021,0.319303,0.007577,-0.151148,188.496623,1498.122770,-903.919784,0
0.071876,-201.943864,78.831099,62.829157,1.519014,6.060353,-0.179658,-5.607170,-5.797258,0.041480,5.606050,0.102898,0.325504,0.011294,-0.151148,188.647407,1497.813529,-904.972555,0
0.072917,-173.716651,25.649694,139.943666,3.050279,4.695309,2.183283,-6.438387,-4.505970,-2.266382,6.527548,0.139360,0.334599,-0.003573,0.164085,188.648615,1498.875141,-905.327047,0
0.073959,-127.115759,-25.488080,189.716913,4.052357,2.922953,3.969797,-6.218018,-2.629805,-3.970318,6.066799,0.106545,0.358852,-0.029590,0.389252,188.571370,1499.423466,-905.220566,0
0.075002,-66.073562,-85.786962,199.231672,4.153690,0.134154,5.694988,-5.046582,0.165454,-5.820922,4.973949,0.077375,0.339835,0.000144,0.231635,188.496319,1500.922392,-905.020439,0
0.076042,-10.783027,-152.099289,169.217043,3.647022,-2.151928,6.406324,-3.376415,2.561932,-6.325632,3.165224,0.059144,0.336804,0.003860,0.254152,188.648124,1500.743311,-905.087953,0
0.077084,38.303848,-198.762214,102.091209,2.340943,-4.129773,5.789016,-0.832504,4.631791,-5.751902,0.556852,0.015390,0.327778,-0.003573,0.468060,188.647512,1501.855468,-905.688215,0
0.078126,107.719290,-188.602780,45.816817,0.854715,-5.696638,4.574840,1.800328,6.139559,-4.401694,-2.047712,-0.050241,0.316340,0.015011,0.558126,188.572170,1502.181888,-904.199634,0
0.079167,168.987485,-139.074073,-7.055106,0.224195,-6.100280,2.694299,3.915100,6.648479,-2.581287,-4.138217,-0.083057,0.321025,-0.003573,0.670710,188.496762,1502.147858,-904.119850,0
0.080209,201.678169,-80.219827,-62.588246,-0.845439,-5.461792,0.200539,5.519542,5.858514,-0.018913,-5.630891,-0.101287,0.325573,-0.022156,0.681968,188.646542,1501.091089,-904.633991,0
0.081251,173.891652,-25.805195,-139.544783,-2.354185,-4.115096,-2.154226,6.366224,4.609003,2.310519,-6.521926,-0.126811,0.336046,-0.018440,0.276668,188.646552,1501.876486,-904.451626,0
0.082292,127.347260,25.332578,-189.682580,-3.333744,-2.423469,-3.883506,6.157453,2.736636,3.949748,-6.103063,-0.119518,0.350101,0.007577,0.074019,188.571093,1501.443094,-904.213520,0
0.083333,66.666661,85.408305,-198.966458,-3.536412,0.405695,-5.608698,4.982150,-0.089006,5.744273,-5.006405,-0.101287,0.336872,0.022444,0.321702,188.495537,1501.162700,-904.284569,0
0.084375,11.308327,152.119962,-167.955391,-2.894632,2.706454,-6.377266,3.323582,-2.458899,6.326630,-3.201488,-0.061180,0.337286,-0.007290,0.276668,188.646467,1500.789492,-904.307372,0
0.085417,-37.970648,195.682205,-102.312061,-1.689887,4.673292,-5.727253,0.760340,-4.559141,5.752900,-0.619771,-0.024718,0.330051,-0.029590,0.085277,188.721858,1500.403882,-904.492820,0
0.086458,-107.917185,188.893589,-45.806788,-0.575216,6.295199,-4.558048,-1.806768,-6.036526,4.424262,1.950522,0.040913,0.314824,-0.011006,-0.027306,188.571082,1499.814047,-904.518358,0
0.087500,-168.541285,139.165216,7.405383,0.460640,6.676824,-2.677507,-3.956334,-6.492275,2.556403,4.117184,0.066437,0.320061,-0.018440,-0.139890,188.646496,1498.255608,-904.145246,0
0.088542,-202.011664,79.500565,63.181556,1.575311,6.005311,-0.216451,-5.533714,-5.782066,0.058735,5.541317,0.124775,0.328811,0.000144,-0.106115,188.872706,1498.005089,-903.499735,0
0.089583,-173.795750,25.825869,139.688481,3.039020,4.658614,2.158754,-6.349466,-4.467991,-2.275010,6.436160,0.143006,0.337355,0.015011,0.164085,188.872706,1496.666089,-903.135762,0
0.090625,-127.409557,-25.241435,190.154373,3.973542,2.937631,3.916651,-6.140695,-2.644996,-3.944436,6.002066,0.095606,0.354511,-0.011006,0.355477,188.721876,1496.166006,-902.734916,0
0.091667,-66.819357,-85.422867,198.769909,4.221246,0.174518,5.621402,-5.050448,0.195837,-5.717392,4.928254,0.106545,0.339491,0.003860,0.220377,188.646516,1494.540443,-902.366184,0
0.092708,-11.088125,-152.557344,168.001876,3.579466,-2.137250,6.394059,-3.403478,2.516357,-6.334259,3.180455,0.091960,0.336528,0.026161,0.287927,188.872591,1494.717792,-901.500210,0
0.093750,38.529847,-195.696766,102.832461,2.295906,-4.041706,5.780839,-0.805441,4.620397,-5.713078,0.583507,0.011744,0.330327,0.026161,0.490577,188.797253,1493.436853,-900.871391,0
0.094792,107.979188,-188.849426,46.035547,1.260050,-5.652605,4.578928,1.750069,6.112974,-4.427577,-1.986786,-0.006487,0.317649,0.018727,0.580643,188.721795,1493.885515,-900.016699,0
0.095833,168.693687,-139.285483,-7.018651,0.257972,-6.067255,2.739269,3.915100,6.637085,-2.585601,-4.103946,-0.101287,0.324126,0.000144,0.659451,188.646431,1493.683608,-899.618803,0
0.096875,201.734668,-79.714792,-62.855583,-0.834180,-5.480139,0.233244,5.500211,5.904089,-0.053423,-5.596620,-0.101287,0.331912,-0.018440,0.693226,188.872508,1494.340437,-898.737226,0
0.097917,173.710854,-26.157546,-139.836423,-2.342926,-4.170138,-2.158314,6.358492,4.590014,2.271695,-6.506695,-0.112226,0.338595,0.015011,0.321702,188.872668,1494.094988,-898.322444,0
0.098958,127.618458,25.485264,-189.804097,-3.311226,-2.419799,-3.871241,6.138122,2.767019,3.971317,-6.099255,-0.137749,0.351686,0.003860,0.141568,188.721780,1494.494849,-898.394186,0
0.100000,66.813560,85.913341,-198.735576,-3.457597,0.394687,-5.657755,5.001481,-0.047229,5.739959,-5.014021,-0.083057,0.341006,0.015011,0.344218,188.646382,1494.874935,-897.844945,0
0.101042,11.104928,152.213922,-167.894633,-2.917150,2.724802,-6.422236,3.319716,-2.436112,6.343886,-3.220527,-0.046595,0.327915,-0.007290,0.265410,188.872758,1495.311630,-897.492768,0
0.102083,-38.287046,195.940595,-102.275606,-1.656109,4.676961,-5.776311,0.760340,-4.547747,5.744273,-0.627387,-0.017425,0.327778,0.011294,0.062760,188.797284,1495.415651,-897.215681,0
0.103125,-108.007585,188.576474,-45.940456,-0.575216,6.331894,-4.566224,-1.841563,-6.055516,4.445830,1.965754,0.033621,0.316823,0.007577,-0.049823,188.721945,1495.668776,-897.448854,0
0.104167,-169.377479,138.895081,7.271714,0.438121,6.731866,-2.718388,-4.002728,-6.553041,2.621109,4.090529,0.084667,0.321783,-0.011006,-0.162406,188.646469,1497.124043,-896.980151,0
0.105208,-201.774365,79.277410,63.327376,1.552792,6.038336,-0.200098,-5.580107,-5.808652,0.071676,5.590819,0.117483,0.328260,-0.007290,-0.151148,188.872702,1497.725192,-897.241939,0
0.106250,-173.660151,25.990299,140.429733,3.050279,4.702648,2.154666,-6.453852,-4.513566,-2.309520,6.516124,0.110191,0.334668,0.037311,0.152827,188.797307,1499.090414,-898.058040,0
0.107292,-127.285257,-25.605530,189.801975,3.951023,2.941301,3.920739,-6.167758,-2.610815,-3.953063,6.047760,0.132068,0.350790,-0.025873,0.366735,188.721837,1499.264495,-898.381388,0
0.108333,-66.220461,-86.104077,199.000790,4.164950,0.137823,5.650019,-5.034983,0.173050,-5.756215,4.962525,0.073729,0.343762,0.022444,0.209118,188.721808,1500.341136,-898.186017,0
0.109375,-10.398830,-152.298954,167.977573,3.556947,-2.162936,6.381795,-3.384147,2.527751,-6.304063,3.149992,0.044560,0.332876,-0.018440,0.276668,188.872689,1499.732279,-898.026923,0
0.110417,38.710646,-196.530662,102.565124,2.340943,-4.089409,5.789016,-0.863433,4.631791,-5.773470,0.598738,0.011744,0.326400,0.011294,0.513093,188.797152,1500.901596,-898.091075,0
0.111458,108.058287,-188.438350,45.986940,1.282569,-5.663613,4.607545,1.765533,6.131963,-4.410322,-2.002018,-0.010133,0.316754,0.007577,0.580643,188.721942,1500.717648,-898.323890,0
