1-Time,2-VGERA,3-VGERB,4-VGERC,5-VN,6-IGERAN,7-IGERBN,8-IGERCN,9-IGERAT,10-IGERBT,11-IGERCT,12-IN,13-IFD,14-IFAULT,15-VFAULT,16-Speed (rad/s),17-Active Power,18-Reactive Power,19-FAULT 
0.000000,-143.831797,159.688281,-21.925568,2.464338,6.221103,-1.148414,-4.942003,-5.822259,1.453288,4.751829,-0.227071,0.183846,-0.061832,-10.052251,188.492265,987.602939,-1301.628057,0
0.001042,-196.007299,95.901108,26.504356,3.391758,5.003357,1.308139,-5.994250,-4.568828,-1.018564,5.751584,-0.263601,0.190575,-0.028224,-21.792031,188.491802,987.436607,-1301.435321,0
0.002083,-182.702546,50.561475,103.679546,4.839438,3.285023,3.407520,-6.121116,-2.914740,-3.192451,6.007749,-0.289172,0.188876,-0.024490,-26.542231,188.491925,986.966475,-1301.959797,0
0.003125,-138.149204,7.698428,179.771402,6.275808,1.229412,4.955267,-5.453201,-0.790157,-4.766210,5.399357,-0.230724,0.199916,-0.069301,-27.119041,188.492665,986.039369,-1302.065067,0
0.004167,-86.348004,-47.040148,201.770455,6.694278,-1.525604,5.903759,-3.632293,1.889465,-5.748237,3.645339,-0.201500,0.195605,-0.076769,-17.007901,188.492294,984.568177,-1302.147050,0
0.005208,-39.650930,-131.860175,176.312122,6.253188,-3.748078,6.245057,-1.788996,4.142700,-6.146922,1.869973,-0.164970,0.191097,-0.058098,-6.727111,188.493796,984.040029,-1301.542716,0
0.006250,1.511004,-185.390661,120.274243,5.190048,-5.100734,4.990985,0.707291,5.568891,-4.997029,-0.474648,-0.157664,0.191947,-0.058098,-4.352011,188.495589,983.020473,-1301.345555,0
0.007292,68.590552,-196.867520,65.258144,4.183458,-6.343332,3.518640,3.203577,6.800267,-3.490416,-2.961583,-0.026156,0.175289,-0.043161,0.669628,188.495750,982.415542,-1301.358334,0
0.008333,143.609851,-159.211342,21.653977,3.357828,-5.998955,1.359731,4.815529,6.627507,-1.404660,-4.587519,-0.037115,0.183389,-0.069301,14.954158,188.495682,980.878644,-1301.147699,0
0.009375,195.445078,-95.931567,-26.468182,2.407788,-4.820262,-1.092854,5.834193,5.352022,1.067193,-5.565927,-0.004238,0.191359,-0.039427,26.761798,188.495662,980.394901,-1301.188000,0
0.010417,182.605367,-50.712743,-103.692614,0.948798,-3.105478,-3.196204,5.953597,3.712637,3.144555,-5.800744,-0.051727,0.208474,-0.050629,31.851298,188.571127,979.684091,-1301.070163,0
0.011458,138.199478,-7.136922,-179.439773,-0.476262,-1.039216,-4.728077,5.300607,1.602757,4.709922,-5.181679,-0.029809,0.205273,-0.043161,31.308418,188.495642,978.842770,-1301.026607,0
0.012500,86.420963,47.589573,-201.771213,-0.917352,1.627043,-5.640851,3.475967,-1.051135,5.691948,-3.481028,-0.022503,0.198022,-0.054364,21.434788,188.495837,978.016811,-1300.815051,0
0.013542,39.599121,131.745150,-176.017425,-0.408402,3.877919,-5.986118,1.651327,-3.304370,6.057060,-1.680758,-0.088257,0.185545,-0.017021,11.402818,188.495812,976.546992,-1301.064119,0
0.014583,-1.857718,185.601820,-120.422728,0.609498,5.234126,-4.743951,-0.826302,-4.704831,4.978510,0.702999,-0.117481,0.187439,-0.061832,8.869378,188.571067,975.275695,-1300.686389,0
0.015625,-68.506251,196.510877,-64.741856,1.661328,6.469622,-3.243827,-3.322589,-5.851665,3.421537,3.133009,-0.186888,0.169540,-0.069301,3.451888,188.562650,973.180039,-1299.381401,0
0.016667,-143.763742,159.893657,-20.756061,2.498268,6.182050,-1.128572,-4.889764,-5.726689,1.428108,4.673556,-0.241683,0.181886,-0.031958,-10.063561,188.489167,972.508655,-1297.771756,0
0.017708,-194.986474,95.514519,26.578220,3.436998,4.932352,1.320045,-5.949473,-4.407095,-1.060531,5.634175,-0.230724,0.189203,-0.043161,-21.543211,188.630215,969.808598,-1295.998307,0
0.018750,-183.167589,50.247372,103.667235,4.850748,3.228218,3.407520,-6.046489,-2.881659,-3.171467,5.918803,-0.238030,0.197042,-0.065566,-26.010661,188.563426,969.039497,-1295.102737,0
0.019792,-138.920494,7.480972,178.934281,6.230568,1.225861,4.907644,-5.378574,-0.749724,-4.665490,5.296180,-0.274560,0.188288,-0.035692,-27.198211,188.565874,967.423553,-1293.754107,0
0.020833,-87.266747,-47.305928,202.127463,6.705588,-1.546906,5.832324,-3.561397,1.860059,-5.672696,3.609760,-0.252642,0.198936,-0.035692,-16.329301,188.492222,966.964886,-1293.124688,0
0.021875,-40.365507,-131.219887,176.299811,6.287118,-3.698375,6.189497,-1.729294,4.157403,-6.037808,1.809490,-0.157664,0.187047,-0.050629,-6.003271,188.568397,964.977437,-1292.837830,0
0.022917,1.930677,-185.777250,120.926705,5.201358,-5.058131,4.891770,0.737142,5.561539,-4.963455,-0.520900,-0.128440,0.188092,-0.061832,-4.091881,188.567537,964.445261,-1293.190332,0
0.023958,68.420415,-196.287636,65.171970,4.172148,-6.290078,3.459111,3.237159,6.715725,-3.444252,-2.986488,-0.080951,0.175615,-0.009553,1.099408,188.563749,963.161268,-1292.463787,0
0.025000,143.745961,-159.936196,20.841477,3.312588,-5.974103,1.320045,4.796872,6.594425,-1.350103,-4.569729,-0.029809,0.177771,-0.046895,14.660098,188.489994,962.687064,-1292.380701,0
0.026042,194.480965,-95.194631,-26.578977,2.407788,-4.777659,-1.124603,5.815536,5.234398,1.104963,-5.487654,-0.015197,0.185153,-0.054364,26.693938,188.707250,960.670878,-1291.004181,0
0.027083,182.956985,-49.287196,-103.520265,0.960108,-3.041573,-3.204141,5.938671,3.628095,3.169736,-5.761608,-0.004238,0.191489,-0.035692,31.217938,188.571075,959.658216,-1290.705204,0
0.028125,137.813833,-6.146288,-178.910417,-0.442332,-1.042766,-4.652674,5.244637,1.536593,4.709922,-5.156774,-0.018850,0.204685,-0.035692,30.776848,188.571252,958.883370,-1290.478116,0
0.029167,85.729071,47.843272,-202.078978,-0.906042,1.687398,-5.609103,3.461042,-1.032756,5.641588,-3.416987,-0.026156,0.212981,-0.073035,21.491338,188.495855,958.271744,-1289.546580,0
0.030208,39.803286,131.563937,-176.029735,-0.431022,3.828215,-5.926589,1.625208,-3.245558,6.010897,-1.648737,-0.077298,0.179143,-0.054364,12.002248,188.571313,957.603569,-1288.739643,0
0.031250,-2.232021,185.601820,-120.976705,0.620808,5.180871,-4.720140,-0.859885,-4.679100,4.944937,0.660305,-0.132093,0.182474,-0.065566,9.106888,188.646715,957.689390,-1288.146084,0
0.032292,-69.028006,196.160531,-65.283523,1.650018,6.462522,-3.255732,-3.307663,-5.825934,3.438324,3.133009,-0.208806,0.172022,-0.017021,3.338788,188.548758,957.763471,-1287.930962,0
0.033333,-143.967907,160.086951,-20.805303,2.475648,6.128796,-1.112697,-4.908421,-5.682580,1.394535,4.709135,-0.245336,0.179600,-0.039427,-10.063561,188.478894,957.081485,-1288.293738,0
0.034375,-194.918419,95.852785,26.972159,3.414378,4.932352,1.359731,-5.949473,-4.421798,-1.064727,5.680427,-0.216112,0.188158,-0.076769,-21.588451,188.695626,957.457884,-1288.940390,0
0.035417,-183.099534,49.836621,103.778031,4.839438,3.217567,3.423394,-6.076340,-2.855928,-3.163074,5.936592,-0.270907,0.194494,-0.046895,-26.553541,188.632372,957.447024,-1288.898344,0
0.036458,-138.376054,6.490338,178.872728,6.241878,1.158406,4.931456,-5.400962,-0.746048,-4.711653,5.242812,-0.238030,0.209911,-0.058098,-27.062491,188.541885,957.139335,-1288.717752,0
0.037500,-86.041757,-47.559627,202.078220,6.660348,-1.486551,5.816450,-3.587516,1.915195,-5.660106,3.567066,-0.172276,0.186655,-0.028224,-17.109691,188.479867,956.419150,-1288.526054,0
0.038542,-39.242600,-131.449424,176.250569,6.219258,-3.719676,6.193466,-1.747951,4.190485,-6.033612,1.802374,-0.143052,0.139687,-0.058098,-6.919381,188.642000,956.547663,-1288.511207,0
0.039583,2.304979,-185.366499,120.655872,5.190048,-5.058131,4.927487,0.759530,5.590945,-4.963455,-0.510226,-0.095563,0.201745,-0.046895,-4.284151,188.643077,956.689957,-1288.497162,0
0.040625,68.715320,-196.299717,65.430493,4.183458,-6.279427,3.447206,3.177458,6.745131,-3.410679,-2.990046,-0.069992,0.169997,-0.050629,0.782728,188.566362,956.527247,-1288.894225,0
0.041667,143.825358,-159.899953,21.087689,3.323898,-5.995405,1.327982,4.763290,6.565019,-1.392069,-4.519920,-0.033462,0.182344,-0.054364,14.999398,188.481961,956.705431,-1287.989746,0
0.042708,194.594390,-96.052376,-27.108333,2.396478,-4.774109,-1.120634,5.763297,5.274831,1.042012,-5.476980,-0.018850,0.191620,-0.050629,26.716558,188.571292,957.745573,-1287.758538,0
0.043750,182.877587,-49.927484,-103.938826,0.937488,-3.069975,-3.172392,5.920014,3.657501,3.152949,-5.733145,0.003068,0.196323,-0.031958,31.862608,188.646404,957.934873,-1287.484196,0
0.044792,138.380958,-6.170450,-178.824243,-0.431022,-1.028565,-4.688391,5.274487,1.543945,4.684742,-5.114080,0.021333,0.210042,-0.065566,31.263178,188.569878,957.565165,-1287.144082,0
0.045833,85.899208,48.302346,-201.894319,-0.883422,1.655445,-5.581323,3.453579,-1.047459,5.666768,-3.459681,-0.069992,0.214614,-0.050629,21.400858,188.480334,958.175328,-1287.544799,0
0.046875,39.066024,131.527694,-176.128220,-0.431022,3.824665,-5.942464,1.606551,-3.289667,6.010897,-1.634506,-0.091910,0.186590,-0.058098,11.493298,188.571435,958.060745,-1287.859555,0
0.047917,-2.787803,185.674306,-120.324243,0.609498,5.198623,-4.688391,-0.852422,-4.708506,4.944937,0.663863,-0.143052,0.180319,-0.061832,8.756278,188.722384,958.307045,-1287.867310,0
0.048958,-68.699074,196.257178,-64.483334,1.683948,6.395066,-3.220015,-3.266618,-5.833286,3.442521,3.111662,-0.197847,0.172284,-0.046895,3.316168,188.571520,958.545151,-1287.513424,0
0.050000,-144.047305,160.074870,-20.251326,2.520888,6.111044,-1.132540,-4.878570,-5.719338,1.444895,4.673556,-0.227071,0.179665,-0.058098,-10.131421,188.496011,959.601294,-1286.997960,0
0.051042,-194.555459,95.913189,27.242993,3.448308,4.889749,1.316076,-5.908428,-4.396068,-1.047941,5.676869,-0.248989,0.189138,-0.058098,-21.554521,188.571558,959.422100,-1286.661573,0
0.052083,-183.496521,50.416505,104.085796,4.862058,3.256621,3.403551,-6.027832,-2.833874,-3.184057,5.886782,-0.241683,0.197630,-0.050629,-26.033281,188.722291,958.819453,-1286.804883,0
0.053125,-138.988549,6.937331,178.626516,6.287118,1.190359,4.903676,-5.367380,-0.723993,-4.690670,5.274833,-0.241683,0.192665,-0.054364,-27.209521,188.571542,958.748330,-1287.148694,0
0.054167,-86.813047,-47.849569,202.065910,6.649038,-1.472350,5.776764,-3.535277,1.896817,-5.655909,3.570624,-0.172276,0.196715,-0.024490,-16.317991,188.496015,958.923208,-1287.213884,0
0.055215,-39.265285,-132.633353,175.868940,6.275808,-3.716126,6.153780,-1.714368,4.146376,-6.071382,1.763238,-0.175929,0.187243,-0.076769,-5.822311,188.646960,959.321040,-1287.109031,0
0.056264,3.450572,-185.765169,119.264773,5.201358,-5.075882,4.883833,0.826695,5.609324,-4.875324,-0.545805,-0.113828,0.186133,-0.028224,-4.012711,188.644828,958.678622,-1286.562138,0
0.057295,69.373185,-196.227232,64.519508,4.138218,-6.261675,3.463080,3.184920,6.737780,-3.435859,-2.990046,-0.059033,0.168430,-0.039427,1.246438,188.571607,959.319796,-1286.128080,0
0.058334,143.893413,-159.851630,20.201326,3.289968,-5.991854,1.324013,4.778215,6.590750,-1.400463,-4.519920,-0.022503,0.180384,-0.084238,14.716648,188.496165,959.906176,-1286.047764,0
0.059375,194.617075,-95.097984,-27.329924,2.407788,-4.738606,-1.080949,5.781954,5.289534,1.037816,-5.487654,-0.000585,0.189464,-0.039427,26.739178,188.646951,960.272436,-1285.805857,0
0.060417,183.002355,-49.130144,-104.135796,1.005348,-3.055774,-3.204141,5.905089,3.683231,3.148752,-5.758050,-0.015197,0.180972,-0.035692,31.240558,188.642230,961.001874,-1285.741154,0
0.061459,137.904573,-6.097964,-179.205872,-0.431022,-1.032116,-4.732046,5.274487,1.536593,4.688938,-5.110522,-0.015197,0.208147,-0.054364,30.754228,188.568468,961.012691,-1285.679445,0
0.062500,86.148743,48.519803,-201.943561,-0.894732,1.612842,-5.609103,3.483430,-0.984972,5.687751,-3.466797,-0.051727,0.188027,-0.058098,21.468718,188.494030,961.673917,-1285.445720,0
0.063542,39.859999,132.373357,-175.882008,-0.419712,3.821115,-5.970244,1.681178,-3.260261,6.057060,-1.677200,-0.088257,0.190901,-0.058098,11.934388,188.644202,962.700687,-1285.553704,0
0.064583,-2.844516,185.795115,-120.533523,0.598188,5.244776,-4.791574,-0.781526,-4.690128,4.970117,0.656747,-0.121134,0.185741,-0.039427,9.027718,188.647003,963.047697,-1285.487831,0
0.065626,-70.060174,196.220935,-64.704924,1.638708,6.462522,-3.331136,-3.285275,-5.859016,3.459307,3.118777,-0.150358,0.175158,-0.020755,3.270928,188.562822,963.814317,-1285.771177,0
0.066667,-144.104017,159.652039,-20.349811,2.509578,6.203351,-1.124603,-4.900958,-5.774474,1.444895,4.719808,-0.201500,0.180841,-0.039427,-10.165351,188.471645,964.205425,-1286.536223,0
0.067708,-195.474202,95.212497,27.624621,3.414378,4.974955,1.316076,-5.964399,-4.484286,-1.064727,5.680427,-0.252642,0.190052,-0.043161,-21.712861,188.696072,965.493435,-1286.876003,0
0.068750,-182.702546,49.437951,104.381250,4.884678,3.256621,3.407520,-6.087534,-2.903713,-3.184057,5.979286,-0.252642,0.189007,-0.043161,-26.542231,188.561129,967.061543,-1287.021423,0
0.069792,-137.854299,6.236639,179.685228,6.275808,1.240062,4.895739,-5.449470,-0.760751,-4.720047,5.331758,-0.227071,0.207363,-0.035692,-27.085111,188.583890,968.474907,-1287.048081,0
0.070834,-85.848934,-48.127429,201.844319,6.682968,-1.504303,5.856136,-3.624830,1.856383,-5.714663,3.645339,-0.212459,0.193253,-0.065566,-17.041831,188.512503,969.998785,-1286.911580,0
0.071875,-39.061120,-132.500463,176.189016,6.298428,-3.726777,6.249026,-1.800190,4.172106,-6.117546,1.845068,-0.154011,0.173394,-0.061832,-6.851521,188.661560,971.222591,-1287.295707,0
0.072917,2.463774,-185.390661,120.557387,5.223978,-5.104285,5.002890,0.692365,5.568891,-4.984438,-0.517342,-0.102869,0.181821,-0.065566,-4.397251,188.516036,972.055447,-1287.673616,0
0.073959,69.951652,-196.613821,65.405871,4.149528,-6.353983,3.494829,3.222234,6.792916,-3.511399,-2.965141,-0.084604,0.176007,-0.039427,0.794038,188.552952,973.480988,-1288.276223,0
0.075000,144.052208,-159.090533,20.816856,3.323898,-6.006055,1.371636,4.789409,6.653237,-1.463413,-4.551940,-0.033462,0.183650,-0.061832,15.055948,188.482867,974.447610,-1288.638690,0
0.076042,195.705955,-95.375845,-27.637689,2.385168,-4.866416,-1.053168,5.811805,5.355697,0.979062,-5.569484,-0.015197,0.193253,-0.050629,26.863588,188.700347,976.310213,-1289.548230,0
0.077084,182.310462,-49.432167,-104.689773,0.960108,-3.045123,-3.216047,6.002105,3.694258,3.182326,-5.790071,0.028639,0.196454,-0.039427,31.862608,188.488746,976.535410,-1290.052536,0
0.078125,137.507585,-6.194612,-180.092235,-0.464952,-1.064068,-4.724108,5.334189,1.569675,4.730905,-5.210142,-0.007891,0.205795,-0.069301,31.319728,188.555719,978.104157,-1290.890489,0
0.079167,85.524906,48.858068,-201.697349,-0.849492,1.616392,-5.656726,3.472236,-1.032756,5.675161,-3.449008,-0.011544,0.194102,-0.039427,21.332998,188.495816,977.646879,-1290.822792,0
0.080209,38.748433,133.013645,-176.017425,-0.442332,3.845967,-6.045647,1.696104,-3.249234,6.094831,-1.670084,-0.080951,0.168364,-0.039427,11.233168,188.661589,978.412519,-1290.747156,0
0.081250,-2.957941,185.795115,-119.721023,0.586878,5.258977,-4.751889,-0.807646,-4.682776,5.033067,0.628285,-0.146705,0.176595,-0.050629,8.824138,188.577498,979.381431,-1290.378847,0
0.082292,-70.128229,196.692090,-64.495644,1.672638,6.476723,-3.323198,-3.300201,-5.903125,3.463504,3.090315,-0.205153,0.174505,-0.050629,3.248308,188.574136,979.988829,-1290.577265,0
0.083333,-144.296840,159.350016,-20.805303,2.509578,6.182050,-1.180163,-4.893496,-5.770798,1.474272,4.702019,-0.216112,0.183062,-0.017021,-10.255831,188.495217,980.187884,-1290.226148,0
0.084375,-195.973272,95.816542,27.710796,3.414378,5.014008,1.288296,-5.979324,-4.495313,-1.014367,5.712448,-0.248989,0.195213,-0.046895,-21.622381,188.651366,980.949319,-1290.517966,0
0.085417,-182.566436,50.356100,104.935228,4.873368,3.256621,3.375771,-6.128579,-2.918416,-3.108517,5.982844,-0.281866,0.199720,-0.050629,-26.055901,188.479788,981.423121,-1290.005027,0
0.086458,-137.854299,6.889007,180.436175,6.309738,1.243613,4.911613,-5.490515,-0.830590,-4.732637,5.367337,-0.241683,0.195605,-0.061832,-27.266071,188.546197,982.495683,-1290.224950,0
0.087500,-86.189209,-48.441533,201.598107,6.660348,-1.479451,5.887885,-3.591247,1.863735,-5.723056,3.666686,-0.205153,0.199263,-0.058098,-16.159651,188.486441,982.755310,-1290.426906,0
0.088542,-39.299312,-133.104508,176.152084,6.241878,-3.737428,6.241089,-1.822578,4.161079,-6.130136,1.866415,-0.175929,0.187831,-0.028224,-5.754451,188.574393,983.285835,-1290.430512,0
0.089583,2.577199,-185.861816,119.867993,5.223978,-5.082983,5.006859,0.733410,5.590945,-5.026405,-0.488879,-0.088257,0.187962,-0.031958,-4.159741,188.499174,984.223086,-1290.437578,0
0.090625,70.314612,-196.855439,64.593371,4.160838,-6.368184,3.590075,3.207309,6.859079,-3.536579,-2.975814,-0.037115,0.172153,-0.084238,1.122028,188.568687,985.152960,-1290.944897,0
0.091667,144.154291,-158.728106,20.287500,3.323898,-6.059310,1.411322,4.793141,6.675292,-1.488593,-4.555498,-0.018850,0.183781,-0.039427,14.931538,188.496228,985.757940,-1290.767906,0
0.092708,196.284423,-94.602667,-27.662311,2.419098,-4.923221,-1.088886,5.908820,5.388779,1.033619,-5.601505,0.006721,0.193776,-0.099175,27.021928,188.564927,986.043555,-1291.499462,0
0.093750,181.947502,-49.504652,-105.120644,0.982728,-3.133880,-3.231921,6.017030,3.760422,3.194916,-5.825649,-0.004238,0.197956,-0.013287,31.161388,188.549667,987.042920,-1291.762986,0
0.094792,137.076570,-6.834900,-181.089394,-0.487572,-1.085370,-4.732046,5.393891,1.621135,4.764479,-5.227931,0.010374,0.212067,-0.065566,30.856018,188.555252,987.827576,-1292.099130,0
0.095834,86.250826,49.039282,-201.586554,-0.860802,1.634143,-5.712286,3.546863,-1.014378,5.780079,-3.541512,-0.044421,0.209976,-0.043161,21.355618,188.475048,989.467427,-1293.324643,0
0.096875,39.463011,134.209655,-175.894319,-0.408402,3.881469,-6.097238,1.759537,-3.322749,6.161978,-1.737683,-0.069992,0.189791,-0.058098,11.448058,188.698955,990.815548,-1294.636543,0
0.097917,-2.787803,186.072976,-119.511743,0.620808,5.290930,-4.819354,-0.830034,-4.763643,5.033067,0.667421,-0.124787,0.190379,-0.050629,9.129508,188.484582,990.634738,-1295.814065,0
0.098959,-71.364561,196.885385,-64.446402,1.650018,6.533527,-3.398601,-3.318857,-5.961937,3.572618,3.125893,-0.186888,0.174243,-0.061832,3.350098,188.489611,992.524971,-1296.640709,0
0.100000,-144.466977,158.286896,-20.448296,2.509578,6.263706,-1.188100,-4.938272,-5.851665,1.440698,4.741155,-0.227071,0.184042,-0.050629,-10.221901,188.484470,992.927537,-1297.322343,0
0.101042,-197.175577,94.644694,28.018561,3.425688,5.085014,1.236704,-6.020369,-4.598234,-1.031154,5.794278,-0.245336,0.192338,-0.061832,-21.927751,188.636573,994.740361,-1298.442875,0
0.102083,-181.647694,49.135929,105.255303,4.884678,3.341827,3.427363,-6.184550,-2.977228,-3.175664,6.068232,-0.252642,0.201680,-0.054364,-26.542231,188.476690,995.911510,-1299.117381,0
0.103125,-136.788104,6.683632,181.581061,6.343668,1.272015,4.955267,-5.539023,-0.863672,-4.824964,5.466956,-0.241683,0.218534,-0.073035,-27.243451,188.481592,997.641990,-1300.231060,0
0.104167,-85.667454,-48.683151,201.154925,6.682968,-1.475900,5.955351,-3.747965,1.871086,-5.756630,3.737843,-0.201500,0.186067,-0.043161,-16.928731,188.482578,998.588563,-1300.352180,0
0.105208,-39.548847,-134.348841,176.078220,6.264498,-3.765830,6.360146,-1.897206,4.194160,-6.230856,1.934014,-0.146705,0.190248,-0.069301,-6.636631,188.629083,1000.458479,-1301.358680,0
0.106250,2.157527,-185.620198,119.646402,5.156118,-5.168190,5.082262,0.725948,5.642406,-5.064176,-0.474648,-0.110175,0.190117,-0.035692,-4.578211,188.487079,1000.846239,-1301.916102,0
0.107292,71.471547,-197.121219,65.319697,4.138218,-6.453390,3.617855,3.188652,6.895837,-3.616317,-2.965141,-0.066339,0.182801,-0.058098,0.873208,188.567157,1002.377539,-1302.359876,0
0.108334,144.449196,-157.846200,20.866099,3.312588,-6.137416,1.443071,4.864037,6.686319,-1.505380,-4.626655,-0.015197,0.188288,-0.028224,15.157738,188.492982,1002.440855,-1302.998927,0
0.109375,197.430015,-94.699314,-27.908523,2.328618,-4.937422,-1.076980,5.905089,5.469646,0.974865,-5.665546,0.006721,0.197368,-0.076769,27.101098,188.631854,1004.417682,-1303.706768,0
0.110417,181.221582,-49.045578,-105.465341,0.926178,-3.197785,-3.243827,6.080463,3.793504,3.178129,-5.886133,-0.000585,0.203640,-0.031958,31.839988,188.494301,1005.349333,-1303.629398,0
