1-Time,2-VGERA,3-VGERB,4-VGERC,5-VN,6-IGERAN,7-IGERBN,8-IGERCN,9-IGERAT,10-IGERBT,11-IGERCT,12-IN,13-IFD,14-IFAULT,15-VFAULT,16-Speed (rad/s),17-Active Power,18-Reactive Power,19-FAULT 
0.000000,74.893007,70.421672,-198.213054,-3.491375,-0.030972,-5.420678,5.167725,0.368867,5.560567,-5.593458,-0.064826,0.322403,-0.025873,69.931923,188.420202,1470.036237,-871.841251,0
0.001042,21.964156,146.670278,-174.006924,-3.063521,2.291804,-6.377830,3.706329,-1.972861,6.455672,-4.116016,-0.021072,0.331223,-0.029590,18.278729,188.420166,1469.524221,-871.298334,0
0.002083,-27.540817,185.041226,-116.590275,-1.971369,4.196260,-5.928385,1.336393,-3.866252,5.878042,-1.675189,0.004452,0.319579,-0.040740,-30.019483,188.495705,1469.251802,-870.689386,0
0.003125,-95.498567,194.824819,-52.781847,-0.766624,5.986963,-5.029495,-1.246179,-5.633665,5.022622,0.837987,0.055498,0.325366,-0.029590,-98.154864,188.495763,1469.133588,-869.947530,0
0.004167,-154.224279,154.163594,-0.687631,0.257972,6.493350,-3.098545,-3.403478,-6.100528,2.967849,2.985609,0.099252,0.319027,-0.033307,-153.928604,188.419316,1468.641307,-870.027270,0
0.005208,-201.367568,88.931808,50.458756,1.215013,6.075031,-0.589143,-5.266951,-5.778170,0.520641,4.828605,0.150299,0.321852,-0.018440,-197.442029,188.420276,1468.662707,-870.542352,0
0.006250,-181.423200,34.869527,124.073583,2.667463,4.878782,1.658083,-6.016979,-4.477621,-1.776648,5.479746,0.135714,0.328191,0.000144,-173.563122,188.495703,1467.834968,-871.612198,0
0.007292,-134.505910,-14.306831,186.265839,3.860949,3.194494,3.772140,-6.214152,-2.821367,-3.862286,5.704409,0.183114,0.336183,-0.033307,-127.854324,188.495738,1466.934663,-873.410382,0
0.008333,-74.898804,-70.600664,198.174477,4.052357,0.618524,5.420106,-5.174164,-0.294375,-5.480530,4.527785,0.139360,0.333221,-0.007290,-68.939511,188.420323,1466.819013,-873.529105,0
0.009375,-21.427557,-146.837524,174.162774,3.635763,-1.711591,6.389742,-3.708902,2.088111,-6.415319,3.042727,0.102898,0.296635,-0.040740,-16.655852,188.495732,1465.729701,-873.780184,0
0.010417,27.953117,-184.820887,116.345120,2.543610,-3.619717,5.877874,-1.373761,3.996324,-5.846509,0.598093,0.059144,0.319165,-0.055607,30.707920,188.495593,1464.664950,-873.649368,0
0.011458,95.018174,-195.015556,52.220748,1.338865,-5.388403,5.016437,1.259071,5.771146,-4.898491,-1.911275,-0.002841,0.307452,-0.037023,98.212834,188.495712,1463.266645,-873.571352,0
0.012500,153.856885,-154.272116,0.758418,0.359306,-5.792045,3.064680,3.381574,6.230599,-2.945134,-4.051282,-0.042949,0.319372,-0.022156,154.065383,188.420311,1462.499279,-873.350091,0
0.013542,201.067973,-89.733285,-50.229996,-0.665290,-5.458123,0.650993,5.187055,5.837841,-0.462651,-5.829544,-0.053887,0.325159,-0.018440,197.601324,188.495714,1461.210165,-873.399585,0
0.014583,181.779000,-36.211274,-123.674700,-2.061443,-4.247197,-1.666979,5.956414,4.555819,1.808181,-6.495917,-0.093995,0.327640,-0.014723,174.296592,188.495781,1460.135719,-873.335126,0
0.015625,135.178108,13.493608,-185.879107,-3.266189,-2.566578,-3.789359,6.234775,2.925501,3.845316,-6.655846,-0.079410,0.329431,-0.051890,128.565277,188.495640,1459.129964,-872.660616,0
0.016667,75.887400,70.280732,-197.982172,-3.480115,-0.071336,-5.391548,5.144528,0.354046,5.485607,-5.547764,-0.079410,0.326882,-0.033307,69.999473,188.420274,1457.989724,-872.436865,0
0.017708,22.325754,146.317927,-173.897559,-3.074780,2.354185,-6.323730,3.605809,-1.983977,6.433625,-4.024627,-0.017425,0.322748,-0.040740,17.569455,188.495740,1456.594953,-872.934231,0
0.018750,-27.789415,184.677130,-116.383697,-1.982628,4.225616,-5.849316,1.293866,-3.855137,5.825130,-1.652342,0.019036,0.303111,-0.033307,-30.357233,188.495691,1455.713924,-872.657709,0
0.019792,-94.549374,194.848309,-51.554528,-0.721587,6.016319,-4.942102,-1.238447,-5.585496,4.934434,0.822755,0.059144,0.308968,-0.014723,-97.558173,188.495709,1454.248154,-871.893480,0
0.020833,-153.410685,154.539434,0.272352,0.235454,6.419961,-3.044445,-3.360951,-6.052360,2.963440,2.951339,0.102898,0.319096,-0.070474,-153.005421,188.420211,1453.703856,-871.085406,0
0.021875,-200.768672,89.014023,50.422301,1.237532,6.056683,-0.601627,-5.197361,-5.715181,0.472138,4.729601,0.132068,0.321163,-0.025873,-197.261895,188.420251,1451.994923,-870.331177,0
0.022917,-182.270694,35.867853,123.903459,2.644944,4.827410,1.633114,-5.947389,-4.429453,-1.710507,5.399781,0.146652,0.331843,-0.011006,-174.339947,188.495685,1451.063900,-869.696065,0
0.023958,-135.443803,-13.578640,186.107867,3.838430,3.205503,3.705556,-6.214152,-2.865830,-3.796145,5.647291,0.121129,0.340800,-0.033307,-128.563599,188.495718,1450.670752,-868.942863,0
0.025000,-76.684192,-70.224824,198.162325,4.063616,0.677236,5.395136,-5.139369,-0.264733,-5.396752,4.451629,0.153945,0.338182,-0.025873,-70.290510,188.344860,1449.052837,-869.174047,0
0.026042,-22.681849,-146.661349,174.053408,3.590725,-1.667557,6.298188,-3.647044,2.032532,-6.318313,3.016072,0.106545,0.336941,0.011294,-17.365126,188.420254,1447.743319,-868.440036,0
0.027083,27.975717,-184.773907,117.062068,2.543610,-3.535319,5.886197,-1.373761,3.962976,-5.771549,0.620940,0.066437,0.325986,-0.025873,30.944345,188.495624,1447.057911,-867.932245,0
0.028125,94.588776,-194.874616,51.880501,1.293828,-5.307674,4.991468,1.259071,5.745209,-4.902901,-1.884620,0.000805,0.309726,-0.040740,97.976409,188.495651,1446.885161,-867.313694,0
0.029167,153.404888,-154.647956,-0.238019,0.336788,-5.836078,3.064680,3.362243,6.186136,-2.945134,-4.005588,-0.024718,0.316685,-0.014723,153.052133,188.344728,1446.564114,-866.348741,0
0.030208,200.627276,-88.335629,-50.047721,-0.654031,-5.458123,0.626024,5.202520,5.837841,-0.400920,-5.860007,-0.079410,0.320681,-0.025873,197.522516,188.420356,1446.007742,-866.670569,0
0.031250,181.948499,-35.036773,-123.407363,-2.095221,-4.188485,-1.646171,5.944816,4.533587,1.812591,-6.480685,-0.115872,0.325986,-0.044457,174.454209,188.495754,1445.705359,-866.281218,0
0.032292,134.929510,13.611058,-185.721135,-3.288707,-2.566578,-3.710290,6.223177,2.925501,3.823270,-6.674885,-0.075764,0.332394,-0.033307,129.150710,188.495691,1445.802734,-865.983242,0
0.033333,76.983493,69.987107,-198.079386,-3.480115,-0.093353,-5.399871,5.090402,0.394804,5.450332,-5.551572,-0.050241,0.337768,-0.033307,71.372988,188.344976,1445.840574,-865.740624,0
0.034375,23.749545,146.259202,-173.873256,-3.086040,2.332168,-6.340376,3.659935,-1.995093,6.433625,-4.032243,-0.013779,0.320268,-0.007290,18.706546,188.495604,1445.699141,-866.341416,0
0.035417,-27.314818,184.724110,-117.039887,-1.960110,4.214608,-5.890931,1.324795,-3.918126,5.855995,-1.625687,0.022683,0.332807,-0.037023,-30.098291,188.495671,1445.934378,-867.731369,0
0.036458,-94.684973,194.672134,-52.235022,-0.744105,5.961277,-4.942102,-1.277108,-5.596612,4.952072,0.845602,0.088314,0.312413,-0.048173,-97.490623,188.495631,1446.046297,-868.242095,0
0.037500,-153.534984,154.480709,-0.007137,0.257972,6.419961,-3.036122,-3.395746,-6.067181,2.906118,3.000841,0.132068,0.313033,-0.040740,-153.027938,188.269510,1445.612760,-869.293105,0
0.038542,-200.712172,88.508988,50.252177,1.226272,6.086039,-0.568335,-5.251486,-5.715181,0.489775,4.798142,0.172176,0.314204,-0.025873,-197.194346,188.495693,1445.948422,-869.697425,0
0.039583,-181.863897,34.411471,123.514606,2.633685,4.823740,1.637275,-6.009247,-4.444274,-1.789876,5.456899,0.139360,0.329500,-0.037023,-173.912130,188.495598,1446.254137,-870.367788,0
0.040625,-134.652809,-14.436026,185.682558,3.849689,3.212842,3.772140,-6.237349,-2.847304,-3.813783,5.651099,0.161237,0.316616,-0.044457,-128.518565,188.495615,1446.070091,-870.140127,0
0.041667,-75.486400,-70.213079,198.125870,4.074875,0.691914,5.415944,-5.205093,-0.298081,-5.405570,4.512554,0.128422,0.327226,-0.011006,-70.695810,188.269406,1446.973245,-869.432096,0
0.042708,-22.760948,-146.637859,174.259987,3.613244,-1.667557,6.352288,-3.724366,2.028827,-6.406500,3.016072,0.128422,0.327847,-0.014723,-18.288309,188.495626,1447.797168,-870.087339,0
0.043750,27.568919,-184.539007,117.851927,2.577388,-3.583022,5.927812,-1.424021,3.962976,-5.824462,0.624748,0.029975,0.333083,-0.055607,30.584078,188.420159,1448.270137,-870.599148,0
0.044792,94.803475,-194.815891,53.192882,1.350125,-5.318683,5.012276,1.224276,5.734094,-4.920538,-1.877005,0.022683,0.318821,-0.025873,97.920118,188.495649,1448.375464,-870.837961,0
0.045833,153.540487,-154.929836,0.466778,0.314269,-5.850756,3.122941,3.335181,6.215778,-2.993638,-4.001780,-0.068472,0.321921,0.003860,153.277300,188.269409,1449.080661,-871.009082,0
0.046875,200.627276,-89.087310,-50.072024,-0.642772,-5.465462,0.667639,5.248913,5.834136,-0.502336,-5.818121,-0.032010,0.323161,-0.025873,197.488741,188.495673,1449.577075,-869.931740,0
0.047917,182.163198,-35.001538,-123.091420,-2.027666,-4.294900,-1.600394,5.952548,4.592872,1.755269,-6.522572,-0.064826,0.334668,-0.066757,174.544275,188.495588,1450.678610,-869.549247,0
0.048958,134.952110,14.151329,-185.429495,-3.243670,-2.592264,-3.718613,6.230909,2.951438,3.885001,-6.686309,-0.079410,0.298977,-0.022156,128.520244,188.495671,1451.157702,-869.935630,0
0.050000,75.559702,69.940127,-198.273812,-3.513893,-0.078675,-5.395709,5.156126,0.428152,5.494426,-5.616305,-0.042949,0.298082,-0.059323,70.438547,188.269364,1452.361559,-869.541683,0
0.051042,22.348354,146.071282,-174.116289,-3.063521,2.262448,-6.373668,3.694730,-1.917282,6.442443,-4.135055,-0.017425,0.341282,-0.051890,18.605221,188.490771,1453.816276,-867.847803,0
0.052083,-27.608616,184.571425,-117.696077,-2.005147,4.221947,-5.990808,1.367322,-3.836610,5.878042,-1.713267,0.004452,0.313998,-0.014723,-30.019483,188.492658,1454.609655,-866.447758,0
0.053125,-94.684973,194.695624,-53.122094,-0.789143,5.953938,-5.033656,-1.180455,-5.596612,5.027031,0.777061,0.070083,0.323024,-0.059323,-97.693273,188.495613,1455.681385,-865.941504,0
0.054167,-153.760982,155.655210,-0.444597,0.235454,6.438308,-3.127676,-3.299092,-6.085707,2.998715,2.928492,0.084667,0.322886,-0.033307,-152.870322,188.269449,1456.964239,-865.223272,0
0.055208,-200.474874,89.824429,50.325087,1.203754,6.082369,-0.672373,-5.208959,-5.722591,0.529460,4.763872,0.132068,0.326744,-0.003573,-197.273154,188.495586,1457.153268,-864.981074,0
0.056250,-182.587092,35.597717,123.380937,2.622425,4.900799,1.562368,-5.982184,-4.488737,-1.679641,5.449283,0.124775,0.335701,-0.044457,-174.553855,188.420235,1457.918492,-864.231912,0
0.057292,-135.240405,-14.048440,185.743317,3.827171,3.256875,3.713879,-6.299207,-2.884357,-3.791736,5.673946,0.153945,0.344038,-0.040740,-128.282141,188.495727,1458.493885,-864.161526,0
0.058333,-75.678498,-69.942943,198.660544,4.074875,0.750625,5.378490,-5.208959,-0.375891,-5.436436,4.554440,0.117483,0.340524,-0.003573,-69.750111,188.269498,1459.690541,-863.948890,0
0.059375,-21.969953,-146.402959,174.223532,3.635763,-1.641871,6.352288,-3.724366,2.010301,-6.410910,3.122692,0.121129,0.291398,-0.018440,-17.128702,188.495727,1460.894512,-863.001560,0
0.060417,27.862717,-184.867867,117.329405,2.554870,-3.516971,5.936135,-1.396958,3.929629,-5.828871,0.662826,0.066437,0.305661,-0.014723,30.651628,188.420265,1461.319242,-862.086732,0
0.061458,94.193279,-194.968576,52.767573,1.316347,-5.351708,5.062214,1.116024,5.748915,-4.973451,-1.797040,0.015390,0.322128,-0.007290,97.807535,188.495655,1462.228003,-861.262915,0
0.062500,153.563087,-155.646282,0.624750,0.314269,-5.810392,3.177041,3.304252,6.197252,-3.020094,-3.959894,-0.064826,0.323437,-0.025873,153.209750,188.269449,1462.412497,-860.817480,0
0.063542,200.446477,-89.991676,-49.889749,-0.665290,-5.491148,0.705093,5.214118,5.848957,-0.497926,-5.783850,-0.079410,0.328398,-0.063040,197.635099,188.495736,1462.305734,-860.886488,0
0.064583,182.716894,-36.352215,-123.188633,-2.072703,-4.342603,-1.537971,5.964147,4.670682,1.684718,-6.495917,-0.053887,0.330534,-0.048173,175.039641,188.420253,1463.189703,-860.326655,0
0.065625,135.731805,13.470118,-185.514557,-3.288707,-2.709687,-3.681159,6.281169,3.040365,3.818860,-6.770081,-0.068472,0.346932,-0.022156,129.105677,188.495645,1464.794488,-859.836917,0
0.066667,76.576695,69.740462,-198.577604,-3.480115,-0.137387,-5.354094,5.233449,0.498552,5.463560,-5.612497,-0.068472,0.345209,-0.037023,70.663714,188.269366,1465.044087,-859.349874,0
0.067708,22.743851,146.012557,-174.164896,-3.063521,2.247770,-6.365345,3.772053,-1.902461,6.504175,-4.169325,-0.017425,0.336528,-0.048173,17.918463,188.420292,1465.928959,-859.616816,0
0.068750,-27.619916,184.912031,-117.137100,-1.971369,4.192591,-5.970000,1.402117,-3.851431,5.992686,-1.743730,0.019036,0.324953,-0.063040,-30.165841,188.420157,1467.557192,-859.680257,0
0.069792,-94.176476,195.047974,-51.991988,-0.789143,5.997972,-5.087756,-1.161125,-5.641075,5.057897,0.758022,0.099252,0.318269,-0.022156,-97.141615,188.495700,1468.302127,-859.575124,0
0.070833,-153.376785,155.091450,-0.067895,0.269232,6.460325,-3.177614,-3.337754,-6.096823,3.100131,2.917068,0.106545,0.323506,-0.022156,-152.915355,188.269498,1469.226394,-858.627048,0
0.071875,-200.655673,89.566039,50.179267,1.226272,6.133742,-0.734796,-5.224424,-5.807812,0.600010,4.809566,0.161237,0.326951,-0.033307,-197.408254,188.420321,1470.873743,-858.575512,0
0.072917,-182.553192,36.278928,123.599668,2.633685,4.937494,1.549883,-6.044042,-4.570253,-1.684051,5.487362,0.190407,0.344176,-0.014723,-174.632663,188.420207,1472.066767,-858.943542,0
0.073958,-136.212198,-13.320250,185.621800,3.849689,3.304579,3.718040,-6.295341,-2.962167,-3.818192,5.712024,0.146652,0.327847,-0.014723,-129.362940,188.495653,1473.166489,-859.434328,0
0.075000,-77.316988,-69.884218,198.344600,4.007319,0.801998,5.411783,-5.278549,-0.364775,-5.476121,4.607750,0.132068,0.343005,-0.007290,-70.830910,188.269375,1473.870327,-860.499689,0
0.076042,-23.111246,-146.426449,174.490869,3.624503,-1.616185,6.385580,-3.805555,2.017711,-6.428547,3.149347,0.091960,0.337630,-0.051890,-17.747909,188.344759,1474.231148,-861.089482,0
0.077083,27.715818,-184.668202,117.669652,2.521092,-3.575683,5.961104,-1.482013,3.944450,-5.895012,0.697097,0.048206,0.331016,-0.044457,30.662887,188.420249,1475.185067,-861.313792,0
0.078125,94.114180,-195.215221,52.427326,1.305087,-5.377394,5.066376,1.112158,5.734094,-5.026363,-1.778001,0.019036,0.324195,-0.007290,97.390977,188.495673,1475.835763,-860.839507,0
0.079167,153.235389,-155.305677,0.114380,0.280491,-5.880112,3.268595,3.300385,6.263947,-3.095053,-3.956086,-0.032010,0.321990,-0.066757,153.040875,188.344800,1477.130501,-860.486422,0
0.080208,200.548176,-89.040330,-49.792536,-0.665290,-5.542520,0.775839,5.132929,5.911946,-0.621389,-5.833352,-0.068472,0.337768,-0.051890,197.612582,188.420354,1478.865832,-859.673282,0
0.081250,182.626495,-35.165968,-122.872689,-2.027666,-4.382967,-1.479710,5.944816,4.707735,1.645034,-6.518764,-0.079410,0.312620,-0.033307,175.152225,188.420251,1479.554066,-858.876491,0
0.082292,135.754404,13.681528,-185.344434,-3.277448,-2.768399,-3.635382,6.304366,3.088533,3.823270,-6.758658,-0.097641,0.352582,-0.033307,129.803693,188.495673,1479.866355,-858.484009,0
0.083333,77.458090,69.763952,-198.322419,-3.525153,-0.258480,-5.345771,5.264378,0.505962,5.450332,-5.681039,-0.093995,0.342247,-0.063040,72.025971,188.269537,1480.579499,-858.558213,0
0.084375,24.088542,145.953832,-174.286412,-3.086040,2.225754,-6.373668,3.849375,-1.843177,6.477718,-4.192172,-0.050241,0.335081,-0.077907,19.078070,188.420325,1480.530652,-858.152442,0
0.085417,-27.213119,184.512700,-118.194296,-1.971369,4.097185,-6.040746,1.456243,-3.818084,5.935364,-1.797040,0.008098,0.340524,0.000144,-29.929417,188.420160,1480.077309,-857.666490,0
0.086458,-94.086077,194.954014,-52.708937,-0.766624,5.935591,-5.137694,-1.099267,-5.633665,5.101991,0.689481,0.102898,0.323575,-0.011006,-97.074065,188.495709,1480.705292,-857.067170,0
0.087500,-153.354185,155.831386,-0.007137,0.269232,6.497020,-3.223391,-3.333888,-6.122760,3.091312,2.898029,0.102898,0.324402,-0.033307,-152.487538,188.269503,1481.014842,-857.284343,0
0.088542,-200.486174,89.284158,50.057750,1.181235,6.196123,-0.722312,-5.208959,-5.811517,0.639695,4.767679,0.153945,0.327502,0.003860,-197.363220,188.420269,1481.023727,-856.384303,0
0.089583,-183.061689,35.022212,122.943477,2.622425,5.047578,1.466653,-5.997649,-4.596190,-1.582635,5.464514,0.161237,0.304145,-0.007290,-174.869088,188.420343,1481.444518,-854.724871,0
0.090625,-135.240405,-14.236361,185.536738,3.860949,3.330265,3.655617,-6.310805,-3.021452,-3.743233,5.750103,0.139360,0.344658,-0.044457,-128.822540,188.495584,1482.295052,-853.030412,0
0.091667,-76.096596,-69.696298,198.769909,4.097394,0.813006,5.378490,-5.328809,-0.438881,-5.432027,4.672483,0.146652,0.340731,0.000144,-71.360051,188.269429,1483.262027,-851.535947,0
0.092708,-23.077346,-146.402959,174.551627,3.669540,-1.568481,6.406388,-3.863547,1.936195,-6.428547,3.263582,0.117483,0.323644,-0.055607,-18.648575,188.344903,1484.627620,-850.121264,0
0.093750,27.489820,-184.832632,118.799757,2.599907,-3.465599,6.073466,-1.570934,3.899987,-5.969971,0.803716,0.051852,0.336528,-0.044457,30.527787,188.420316,1486.290874,-849.491042,0
0.094792,93.944681,-195.297436,52.463781,1.327606,-5.340699,5.141283,1.081229,5.711862,-5.061638,-1.774193,-0.006487,0.318132,-0.014723,97.447268,188.495636,1486.518447,-849.258807,0
0.095833,153.630886,-155.775477,0.892087,0.325528,-5.887451,3.226980,3.335181,6.245420,-3.099463,-3.990357,-0.042949,0.320612,-0.025873,153.040875,188.269637,1486.462654,-849.926301,0
0.096875,200.423877,-89.709795,-49.488744,-0.631512,-5.564537,0.705093,5.190921,5.919357,-0.594933,-5.821929,-0.068472,0.325435,-0.040740,197.691391,188.420377,1486.200718,-850.370073,0
0.097917,182.524795,-35.236439,-122.653959,-2.005147,-4.342603,-1.587910,5.979611,4.633629,1.768497,-6.564458,-0.075764,0.330947,-0.048173,174.780700,188.420321,1485.287279,-852.308319,0
0.098958,135.099009,13.693273,-185.405192,-3.254929,-2.665654,-3.735259,6.273437,3.051481,3.871773,-6.762466,-0.061180,0.339077,0.000144,128.644086,188.495691,1484.973973,-852.890245,0
0.100000,75.898700,69.352876,-198.735576,-3.513893,-0.137387,-5.349932,5.206386,0.446678,5.516473,-5.642960,-0.061180,0.302560,-0.048173,70.697489,188.269366,1484.505866,-853.676043,0
0.101042,22.789051,145.707187,-174.298564,-3.052262,2.244101,-6.365345,3.756588,-1.895051,6.460081,-4.176941,-0.042949,0.343418,-0.037023,18.909196,188.344853,1484.155565,-853.736863,0
0.102083,-27.088820,184.735855,-117.768987,-2.016406,4.174244,-5.961677,1.425314,-3.844021,5.904499,-1.739922,0.015390,0.322541,-0.007290,-29.434050,188.420263,1483.443106,-854.298472,0
0.103125,-94.029577,194.860054,-53.486644,-0.789143,5.983294,-5.058625,-1.137928,-5.618844,5.022622,0.758022,0.048206,0.319579,-0.029590,-97.040290,188.495586,1482.050491,-855.306935,0
0.104167,-153.534984,155.537760,-1.149394,0.246713,6.486011,-3.131837,-3.364817,-6.104234,3.011943,2.962762,0.095606,0.323437,-0.007290,-153.005421,188.344858,1480.867111,-856.668586,0
0.105208,-200.700872,90.188524,49.826869,1.237532,6.141081,-0.668212,-5.224424,-5.778170,0.600010,4.798142,0.146652,0.326262,-0.022156,-197.374479,188.269532,1480.405853,-857.724370,0
0.106250,-182.462793,35.879598,123.222966,2.633685,4.948502,1.612306,-6.005381,-4.503558,-1.732554,5.487362,0.143006,0.336321,-0.048173,-174.384980,188.420202,1478.985073,-859.951068,0
0.107292,-135.590703,-13.590385,185.512435,3.815911,3.293570,3.751332,-6.337868,-2.910294,-3.831420,5.704409,0.161237,0.330671,0.011294,-128.698699,188.495624,1477.513012,-861.798910,0
0.108333,-75.893197,-69.496633,198.539027,4.041097,0.691914,5.436752,-5.236022,-0.361070,-5.498167,4.581095,0.095606,0.344176,-0.025873,-69.873952,188.345885,1476.225399,-863.110125,0
0.109375,-22.297651,-146.074099,174.466565,3.635763,-1.656549,6.398065,-3.755295,2.062174,-6.463822,3.115076,0.099252,0.314135,0.003860,-17.432676,188.269509,1474.689514,-865.120460,0
0.110417,27.535020,-184.726927,117.365860,2.577388,-3.579352,5.965266,-1.458816,3.948155,-5.952334,0.670442,0.048206,0.305867,-0.003573,30.336395,188.420323,1473.402537,-866.114923,0
