1-Time,2-VGERA,3-VGERB,4-VGERC,5-VN,6-IGERAN,7-IGERBN,8-IGERCN,9-IGERAT,10-IGERBT,11-IGERCT,12-IN,13-IFD,14-IFAULT,15-VFAULT,16-Speed (rad/s),17-Active Power,18-Reactive Power,19-FAULT 
0.000000,-110.881833,-66.768264,184.769508,6.411528,2.511062,2.308222,-4.453194,-2.400135,-2.168458,4.307098,-0.216112,0.393148,-0.046895,109.483136,188.495758,1328.626674,-115.258021,0
0.001042,-36.701880,-122.702850,189.213637,6.490698,0.877934,4.058368,-4.497970,-0.723993,-3.931069,4.299983,-0.241683,0.392952,-0.039427,117.501926,188.420397,1326.559343,-114.859391,0
0.002098,27.564728,-164.551101,148.847160,5.732928,-0.985962,4.899707,-3.374828,1.088152,-4.824964,3.328690,-0.179582,0.398439,-0.020755,96.770696,188.440932,1324.423385,-113.702587,0
0.003129,78.685378,-198.679655,76.325379,4.330488,-2.949266,5.137822,-1.677055,3.047326,-5.131323,1.656502,-0.205153,0.395107,-0.076769,57.106527,188.477841,1322.337787,-112.904978,0
0.004167,138.324245,-176.076284,13.898295,3.165558,-3.840386,4.260765,0.061764,4.087564,-4.367525,0.091050,-0.121134,0.394585,-0.035692,22.599718,188.495217,1320.522552,-111.937620,0
0.005208,182.684765,-127.064056,-46.017424,2.079798,-4.614346,3.066222,1.834164,4.756550,-3.091730,-1.734126,-0.080951,0.391841,-0.054364,-19.009771,188.417154,1317.672698,-111.895775,0
0.006250,188.968510,-53.660483,-104.086553,0.960108,-4.539790,1.407354,3.211040,4.841092,-1.488593,-3.150149,-0.066339,0.394781,-0.058098,-52.408200,188.416908,1315.755897,-111.675924,0
0.007307,165.432822,11.926744,-166.525947,-0.227442,-3.811983,-0.342792,4.035673,4.025076,0.236247,-3.943548,-0.040768,0.401182,-0.058098,-91.529490,188.419802,1313.197842,-111.373887,0
0.008334,110.875394,67.281447,-184.339395,-0.578052,-2.402523,-2.156435,4.255823,2.642994,2.019842,-4.103652,-0.026156,0.401966,-0.061832,-105.700919,188.495365,1308.974846,-110.675325,0
0.009375,36.162343,122.624068,-188.894319,-0.645912,-0.811998,-3.874832,4.211047,1.025664,3.753076,-4.142788,-0.026156,0.389816,-0.054364,-112.543469,188.495197,1305.144008,-110.190204,0
0.010416,-27.809359,163.409200,-150.916099,-0.001242,0.924088,-4.672517,3.218503,-0.654154,4.630185,-3.264000,-0.018850,0.393343,-0.013287,-95.386199,188.419846,1301.867796,-109.383958,0
0.011458,-78.998064,197.694805,-76.707765,1.435128,2.898042,-4.902695,1.584163,-2.569220,4.890380,-1.598927,-0.084604,0.389097,-0.035692,-53.482650,188.419730,1297.738052,-107.950238,0
0.012500,-138.285314,177.036459,-12.951136,2.588748,3.746559,-4.073261,-0.083760,-3.565348,4.181139,-0.079727,-0.124787,0.389555,-0.058098,-15.424501,188.494339,1294.412181,-105.559378,0
0.013541,-181.783804,127.142326,46.632197,3.731058,4.559573,-2.870780,-1.867355,-4.278444,2.964098,1.713428,-0.132093,0.386615,-0.024490,23.052118,188.421781,1290.170118,-104.262296,0
0.014583,-190.007117,53.050142,103.839584,4.850748,4.527620,-1.279378,-3.277812,-4.396068,1.394535,3.115220,-0.219765,0.391122,-0.028224,57.106527,188.495803,1287.306170,-102.739431,0
0.015625,-165.280465,-10.217553,165.589584,6.049608,3.771411,0.335836,-4.001698,-3.657242,-0.284143,3.826789,-0.223418,0.396871,-0.035692,95.006336,188.420320,1282.975812,-101.937575,0
0.016666,-110.609613,-67.420633,184.153978,6.354978,2.436506,2.133604,-4.307671,-2.319269,-2.034163,4.111417,-0.234377,0.387791,-0.069301,110.455796,188.495683,1279.404517,-100.765992,0
0.017717,-34.478750,-123.234410,188.475001,6.502008,0.845982,3.867876,-4.303939,-0.624748,-3.746414,4.154111,-0.227071,0.343762,-0.065566,118.123976,188.495665,1275.763137,-100.054913,0
0.018750,28.540183,-163.101393,151.580114,5.800788,-0.801347,4.625875,-3.337514,0.955825,-4.615130,3.264649,-0.208806,0.387922,-0.087972,99.530336,188.495763,1272.909438,-98.512829,0
0.019791,79.161763,-196.480931,77.051705,4.398348,-2.746900,4.907644,-1.684517,2.881918,-4.871128,1.670734,-0.172276,0.384786,-0.054364,57.457137,188.420285,1268.547870,-96.799300,0
0.020833,137.530270,-177.320617,12.778030,3.244728,-3.652221,4.189331,-0.087491,3.837613,-4.229034,0.137302,-0.143052,0.386484,-0.065566,22.407448,188.495649,1265.014153,-95.140011,0
0.021875,180.291497,-126.701629,-47.260796,2.023248,-4.426182,2.998756,1.681178,4.524978,-3.058156,-1.563349,-0.113828,0.384982,-0.035692,-18.353791,188.495662,1261.005619,-92.550058,0
0.022916,189.796513,-52.367827,-103.926515,0.937488,-4.390679,1.439102,2.994620,4.683035,-1.505380,-2.933120,-0.091910,0.392560,-0.050629,-51.763530,188.478324,1257.780056,-90.339552,0
0.023958,164.616161,10.549521,-165.196402,-0.227442,-3.684173,-0.148331,3.796865,3.966264,0.076773,-3.637574,-0.062686,0.351470,-0.054364,-90.409800,188.436904,1253.489151,-87.553600,0
0.025000,110.852709,67.788845,-183.970076,-0.521502,-2.381221,-1.965943,4.076718,2.646670,1.877154,-3.989800,-0.037115,0.398961,-0.065566,-104.275859,188.496263,1251.507051,-85.734858,0
0.026041,35.345683,122.370369,-187.995645,-0.623292,-0.851051,-3.624811,4.128957,1.139612,3.589405,-4.004032,-0.018850,0.337883,-0.065566,-111.887489,188.495944,1248.619229,-83.355119,0
0.027083,-28.909582,163.336714,-151.777841,0.032688,0.771426,-4.434402,3.196114,-0.591666,4.491694,-3.203516,-0.051727,0.411504,-0.039427,-93.248610,188.495725,1246.703077,-82.362571,0
0.028134,-80.506617,196.293420,-76.461553,1.480368,2.709878,-4.747920,1.561774,-2.462623,4.722512,-1.581138,-0.099216,0.384917,-0.080503,-52.736190,188.420309,1243.863919,-81.079706,0
0.029167,-138.103834,177.870042,-13.037311,2.667918,3.554844,-4.025638,0.065495,-3.433021,4.109795,-0.193578,-0.132093,0.392494,-0.046895,-16.408471,188.495678,1242.235683,-79.329065,0
0.030208,-179.787524,127.903423,47.432387,3.878088,4.318154,-2.815220,-1.673323,-4.072602,2.909541,1.549767,-0.154011,0.391188,-0.024490,22.916398,188.495604,1238.662761,-77.424843,0
0.031250,-190.245309,54.064938,104.356629,4.873368,4.371408,-1.354781,-3.065124,-4.252713,1.444895,2.905307,-0.172276,0.383806,-0.031958,57.140457,188.495689,1235.973688,-75.391468,0
0.032291,-164.860793,-9.021543,165.343372,6.015678,3.732358,0.220747,-3.837518,-3.510212,-0.091095,3.602645,-0.223418,0.394977,-0.050629,95.390876,188.571120,1232.006890,-73.075851,0
0.033333,-112.118166,-67.408552,183.538448,6.388908,2.454258,1.974861,-4.143490,-2.315593,-1.841116,3.965545,-0.248989,0.391841,-0.046895,108.340826,188.482064,1229.482510,-71.251333,0
0.034375,-37.303032,-122.207533,187.305493,6.468078,0.916987,3.609918,-4.173341,-0.775454,-3.519793,3.969103,-0.172276,0.383675,-0.065566,116.303066,188.363055,1225.645513,-69.245600,0
0.035417,27.916346,-163.016827,152.577273,5.823408,-0.634484,4.447289,-3.285275,0.819822,-4.417885,3.250418,-0.208806,0.390143,-0.065566,98.489816,188.496228,1223.344979,-67.329215,0
0.036458,79.808285,-193.605675,79.932387,4.409658,-2.523232,4.788587,-1.706906,2.668724,-4.694867,1.724101,-0.135746,0.388052,-0.054364,59.255427,188.571630,1219.981284,-65.184071,0
0.037500,137.995313,-177.985067,13.959849,3.154248,-3.417903,4.042493,-0.229283,3.642798,-4.094740,0.272500,-0.113828,0.391449,-0.061832,23.267008,188.496013,1217.271157,-63.184488,0
0.038551,179.213960,-127.426483,-48.393371,1.989318,-4.152810,2.923353,1.528192,4.275027,-2.965829,-1.413919,-0.084604,0.391318,-0.058098,-20.140771,188.496170,1213.236855,-61.467589,0
0.039583,190.046048,-54.892736,-104.492803,0.960108,-4.234467,1.514505,2.819246,4.491896,-1.601904,-2.737438,-0.037115,0.395238,-0.073035,-52.634400,188.496125,1210.456279,-59.529757,0
0.040625,164.536764,8.725305,-164.790152,-0.204822,-3.527961,-0.013399,3.509549,3.793504,-0.078505,-3.377851,-0.044421,0.395107,-0.024490,-91.088400,188.571612,1205.924048,-57.833752,0
0.041667,112.883017,67.535146,-183.526895,-0.600672,-2.367020,-1.743702,3.875224,2.635642,1.654730,-3.790561,-0.069992,0.391057,-0.035692,-104.739569,188.496103,1202.704208,-55.861658,0
0.042708,37.693581,122.080427,-186.653788,-0.657222,-0.904306,-3.358916,3.912537,1.143288,3.312423,-3.783445,-0.055380,0.388052,-0.054364,-110.948759,188.571641,1197.725884,-54.889042,0
0.043750,-28.297087,163.227986,-152.873485,-0.023862,0.661367,-4.204224,3.102830,-0.415230,4.210515,-3.100339,-0.080951,0.391384,-0.065566,-96.404099,188.479810,1193.686896,-52.796217,0
0.044791,-80.824207,191.799324,-79.982387,1.333338,2.432956,-4.474088,1.602819,-2.161212,4.483300,-1.627390,-0.073645,0.388379,-0.043161,-55.575000,188.510472,1188.648091,-50.040463,0
0.045833,-138.410082,179.259346,-12.778788,2.588748,3.320526,-3.894674,0.166242,-3.164691,3.979697,-0.328776,-0.143052,0.388771,-0.061832,-15.718561,188.495694,1185.448651,-47.223558,0
0.046875,-176.430143,129.292727,48.860417,3.742368,4.019930,-2.743785,-1.535263,-3.763839,2.854984,1.325623,-0.135746,0.385047,-0.046895,23.798578,188.646531,1180.383464,-44.375731,0
0.047917,-191.186737,54.342798,104.393561,4.873368,4.129989,-1.386529,-2.815123,-4.065250,1.474272,2.677604,-0.179582,0.385766,-0.065566,57.547617,188.495662,1177.005416,-42.361870,0
0.048969,-163.783255,-10.688708,164.974054,5.993058,3.529992,0.081847,-3.557665,-3.315397,0.013823,3.300228,-0.234377,0.388444,-0.031958,95.277776,188.571062,1171.658110,-39.978352,0
0.050000,-112.469783,-67.988436,183.575379,6.377598,2.404554,1.764526,-3.867369,-2.315593,-1.639674,3.773421,-0.212459,0.354606,-0.020755,109.550996,188.495687,1168.652868,-37.533901,0
0.051041,-37.461827,-121.422274,185.926705,6.456768,0.970241,3.328148,-3.930802,-0.815887,-3.192451,3.744958,-0.212459,0.383937,-0.031958,116.744156,188.693643,1163.108496,-35.280730,0
0.052083,29.164021,-163.246364,153.402084,5.846028,-0.513775,4.205205,-3.210648,0.643386,-4.224837,3.172145,-0.205153,0.388379,-0.050629,100.706576,188.490018,1160.356424,-32.806535,0
0.053125,81.328180,-189.667301,81.052652,4.454898,-2.278263,4.447289,-1.718100,2.370988,-4.434672,1.713428,-0.186888,0.388117,-0.028224,59.436387,188.570685,1154.870342,-29.870991,0
0.054166,137.643695,-179.712636,12.421023,3.142938,-3.151632,3.939310,-0.389732,3.403874,-4.010806,0.418372,-0.135746,0.387203,-0.054364,22.486618,188.584039,1152.351898,-26.753940,0
0.055208,173.973724,-129.359428,-49.846023,1.978008,-3.875888,2.907478,1.237145,4.050806,-2.898682,-1.132850,-0.088257,0.381912,-0.020755,-19.349071,188.663192,1147.587795,-23.861761,0
0.056250,190.953448,-53.974587,-104.542046,0.960108,-4.088905,1.585940,2.591632,4.355893,-1.627084,-2.488389,-0.062686,0.359570,-0.058098,-51.831390,188.495971,1144.494211,-21.310566,0
0.057291,163.618021,9.872991,-163.497538,-0.182202,-3.393051,0.177093,3.211040,3.602365,-0.237979,-3.103897,-0.077298,0.373877,-0.039427,-90.975300,188.571145,1139.303094,-18.732674,0
0.058333,112.542742,68.513699,-183.563826,-0.555432,-2.374121,-1.533367,3.696118,2.687103,1.461682,-3.637574,-0.073645,0.366560,-0.058098,-103.348439,188.495682,1137.083997,-15.722167,0
0.059386,35.856096,122.938171,-185.090341,-0.623292,-0.968211,-3.188267,3.778208,1.246209,3.077408,-3.612669,-0.066339,0.341018,-0.061832,-109.987409,188.721962,1133.251131,-12.527286,0
0.060417,-29.816982,163.566251,-153.575190,-0.001242,0.480303,-4.005795,3.080442,-0.242470,4.055238,-3.111012,-0.084604,0.378188,-0.058098,-94.673669,188.495638,1131.715741,-9.520636,0
0.061458,-82.185307,188.416671,-81.730493,1.367268,2.202188,-4.287564,1.677447,-1.962721,4.298646,-1.670084,-0.077298,0.385766,-0.046895,-55.676790,188.571174,1128.170109,-7.211840,0
0.062500,-137.990409,180.322465,-12.077083,2.713158,3.118160,-3.815303,0.378930,-2.988255,3.857993,-0.435512,-0.135746,0.390469,-0.024490,-16.159651,188.495640,1125.601254,-5.308299,0
0.063541,-173.390353,130.404170,50.325379,3.878088,3.799813,-2.763628,-1.259141,-3.528591,2.817213,1.112152,-0.150358,0.388117,-0.069301,24.149188,188.706163,1121.583193,-2.608231,0
0.064583,-191.266134,55.031410,105.046023,4.873368,4.076735,-1.513524,-2.576315,-3.899841,1.629549,2.478365,-0.164970,0.379429,-0.035692,57.400587,188.513936,1119.107460,0.560196,0
0.065625,-163.794598,-8.671197,163.262879,6.004368,3.427034,-0.140394,-3.247961,-3.219828,0.240444,3.065410,-0.172276,0.385047,-0.054364,95.537906,188.573743,1115.380677,3.190011,0
0.066666,-113.433896,-68.157568,183.378410,6.388908,2.482660,1.570065,-3.747965,-2.286187,-1.455020,3.663128,-0.212459,0.374595,-0.039427,107.911046,188.495262,1113.186170,4.851588,0
0.067708,-38.369227,-121.482679,184.400190,6.377598,1.055448,3.133687,-3.830055,-0.911457,-2.995206,3.641781,-0.227071,0.383545,-0.020755,113.950586,188.721550,1110.431915,7.037068,0
0.068750,28.664951,-163.669195,154.005303,5.812098,-0.336261,4.026619,-3.218110,0.489004,-4.019199,3.150798,-0.197847,0.390796,-0.043161,99.519026,188.570682,1108.029556,9.333254,0
0.069798,82.916130,-187.698113,82.665341,4.522758,-2.075897,4.359980,-1.822578,2.198228,-4.325558,1.763238,-0.175929,0.391188,-0.050629,60.838827,188.570678,1105.938023,11.546457,0
0.070833,138.131423,-180.232115,13.713636,3.210798,-2.938615,3.891687,-0.535256,3.190681,-3.931069,0.525107,-0.121134,0.395042,-0.043161,23.470588,188.495340,1103.573204,13.633286,0
0.071875,171.818649,-131.618557,-50.166099,2.045868,-3.638020,2.915415,1.072965,3.804531,-2.928059,-0.937168,-0.099216,0.393278,-0.054364,-20.152081,188.721453,1100.400738,16.305652,0
0.072916,190.942105,-56.608224,-105.453031,0.937488,-3.989497,1.708966,2.330437,4.230918,-1.761378,-2.306939,-0.073645,0.392494,-0.058098,-53.267760,188.570694,1098.650865,18.728530,0
0.073958,163.708761,7.674266,-162.955872,-0.204822,-3.346897,0.327899,2.998352,3.550904,-0.452010,-2.876194,-0.069992,0.393017,-0.028224,-90.816960,188.550771,1095.724102,21.512900,0
0.075000,114.334857,67.776764,-183.526895,-0.555432,-2.406073,-1.350812,3.546863,2.661373,1.314797,-3.516607,-0.040768,0.391057,-0.031958,-104.535989,188.491500,1093.686229,22.456164,0
0.076041,39.814629,121.428058,-183.773107,-0.566742,-1.064068,-2.858874,3.625222,1.308697,2.783640,-3.495260,-0.069992,0.389032,-0.073035,-108.879029,188.738696,1089.869267,23.971209,0
0.077083,-28.013524,164.472319,-153.858334,-0.001242,0.341842,-3.831177,3.043128,-0.069710,3.857993,-3.075434,-0.066339,0.394389,-0.058098,-97.037459,188.646857,1087.431973,26.136514,0
0.078125,-83.172104,184.937371,-84.758902,1.254168,1.999822,-4.097072,1.696104,-1.709094,4.051041,-1.727010,-0.084604,0.385831,-0.035692,-58.775730,188.571080,1083.048187,28.792190,0
0.079166,-138.829754,181.023158,-12.729545,2.600058,2.887392,-3.731963,0.479677,-2.749332,3.841206,-0.570710,-0.110175,0.390926,-0.061832,-15.910831,188.495662,1081.249368,31.878454,0
0.080217,-171.518841,131.044458,52.221212,3.844158,3.576146,-2.731879,-1.128543,-3.355830,2.800427,0.937817,-0.175929,0.387856,-0.065566,25.291498,188.721875,1078.452448,34.392452,0
0.081250,-191.663122,56.746898,105.661553,4.895988,3.913422,-1.584959,-2.352433,-3.796920,1.671516,2.268452,-0.208806,0.392560,-0.031958,58.463727,188.646572,1076.315329,36.303018,0
0.082291,-163.692515,-7.922181,161.884091,5.970438,3.288573,-0.239609,-2.990497,-3.153664,0.404115,2.798571,-0.194194,0.376163,-0.061832,94.644416,188.571196,1072.650331,38.964494,0
0.083333,-113.751486,-68.133406,183.784660,6.366288,2.461358,1.419259,-3.628561,-2.363378,-1.333316,3.492351,-0.212459,0.391841,-0.039427,109.177766,188.495749,1070.819216,41.118467,0
0.084375,-39.378710,-121.047766,183.169129,6.388908,1.151306,2.871761,-3.669606,-0.995999,-2.755995,3.506583,-0.223418,0.388640,-0.054364,114.832766,188.706605,1067.349460,43.288630,0
0.085416,29.005226,-164.792719,153.906819,5.800788,-0.183599,3.816284,-3.203185,0.308893,-3.821955,3.182819,-0.186888,0.394977,-0.054364,101.453036,188.646974,1065.554432,46.633560,0
0.086458,83.755475,-183.361069,85.644508,4.534068,-1.834478,4.137739,-1.893474,1.929898,-4.065363,1.816605,-0.154011,0.380540,-0.024490,61.845417,188.511718,1060.702388,49.375104,0
0.087500,138.369615,-181.307315,12.211742,3.154248,-2.782403,3.784535,-0.677048,3.017920,-3.859725,0.681652,-0.175929,0.388771,-0.069301,22.249108,188.497513,1058.857399,52.362602,0
0.088541,168.710804,-132.488382,-52.554356,1.989318,-3.449855,2.851918,0.864008,3.591337,-2.852519,-0.766391,-0.124787,0.387856,-0.043161,-20.423521,188.723487,1054.940071,54.450486,0
0.089584,191.214325,-55.400134,-105.957765,0.903558,-3.851036,1.776432,2.199839,4.105942,-1.803345,-2.118373,-0.062686,0.378057,-0.050629,-52.487370,188.647902,1052.338400,56.803211,0
0.090635,162.574511,10.440793,-162.746591,-0.182202,-3.251039,0.454893,2.800589,3.495768,-0.552731,-2.701860,-0.048074,0.364796,-0.058098,-91.427700,188.571871,1049.690194,59.427234,0
0.091668,113.245977,69.166068,-183.625379,-0.532812,-2.406073,-1.188100,3.461042,2.672400,1.104963,-3.349388,-0.084604,0.371133,-0.058098,-103.122239,188.496767,1046.867682,62.485586,0
0.092708,38.612323,121.331411,-182.899054,-0.589362,-1.127973,-2.692194,3.502087,1.363833,2.561215,-3.384967,-0.037115,0.372635,-0.050629,-107.849819,188.721938,1043.695766,64.812287,0
0.093750,-29.329254,164.822666,-153.833713,-0.035172,0.189180,-3.696245,3.091636,0.058942,3.681732,-3.064760,-0.077298,0.374399,-0.054364,-95.589779,188.572850,1041.648125,67.298143,0
0.094791,-84.215614,183.101073,-85.423675,1.299408,1.832959,-4.017701,1.729686,-1.569416,3.954517,-1.791051,-0.091910,0.381389,-0.069301,-57.769140,188.555846,1039.847562,69.389916,0
0.095833,-138.670959,181.530556,-11.473864,2.701848,2.784434,-3.672434,0.614006,-2.613329,3.740486,-0.670329,-0.095563,0.390273,-0.039427,-15.729871,188.495151,1037.741375,71.250485,0
0.096875,-168.864696,132.965322,53.033712,3.900708,3.412833,-2.719974,-0.927049,-3.161016,2.792033,0.781272,-0.157664,0.386811,-0.017021,25.438528,188.666881,1034.839409,73.173642,0
0.097916,-191.538354,56.179096,106.141667,4.918608,3.842416,-1.640519,-2.262880,-3.675621,1.709287,2.193737,-0.186888,0.397720,-0.031958,58.147047,188.571761,1033.056246,74.297576,0
0.098959,-163.386268,-8.586631,161.637879,5.959128,3.242419,-0.342792,-2.826317,-3.058095,0.504836,2.674047,-0.190541,0.364274,-0.058098,95.334326,188.570488,1030.711322,75.777721,0
0.100000,-113.354498,-69.087798,183.452273,6.366288,2.464908,1.272422,-3.516620,-2.300890,-1.161251,3.403405,-0.194194,0.412026,-0.054364,107.990216,188.495220,1028.419873,77.422240,0
0.101042,-39.004407,-121.410193,182.368940,6.388908,1.186808,2.740798,-3.643487,-1.036432,-2.659471,3.431868,-0.197847,0.366299,-0.043161,111.993956,188.721447,1026.779375,78.584921,0
0.102094,29.821886,-164.792719,153.192803,5.823408,-0.116144,3.713101,-3.136020,0.275811,-3.675070,3.125893,-0.201500,0.390861,-0.054364,99.270206,188.570698,1024.542283,79.450660,0
0.103136,85.241343,-183.204017,85.164394,4.556688,-1.731520,4.058368,-1.859892,1.849032,-3.960445,1.834395,-0.168623,0.394977,-0.035692,62.388297,188.570629,1023.042967,80.815493,0
0.104177,139.537893,-180.050901,11.928599,3.199488,-2.643942,3.764692,-0.725555,2.867215,-3.796774,0.777714,-0.106522,0.396871,-0.039427,22.373518,188.495211,1021.043722,83.030408,0
0.105209,168.075624,-133.527340,-52.529735,1.955388,-3.322045,2.840012,0.770724,3.444307,-2.890289,-0.641867,-0.110175,0.392690,-0.046895,-21.045571,188.706512,1019.384241,84.946807,0
0.106250,190.771968,-57.345159,-106.708712,0.892248,-3.740978,1.816118,2.069241,4.014049,-1.874689,-2.029427,-0.095563,0.380997,-0.046895,-54.104700,188.570712,1018.215926,86.089570,0
0.107293,163.481911,7.565538,-161.897160,-0.182202,-3.180034,0.577920,2.628946,3.400198,-0.674435,-2.502621,-0.062686,0.396675,-0.073035,-90.737790,188.513871,1015.331287,87.153820,0
0.108334,114.516337,68.513699,-183.551516,-0.532812,-2.395422,-1.029357,3.330444,2.661373,1.025226,-3.260442,-0.029809,0.389947,-0.065566,-104.637779,188.495644,1014.005379,87.633743,0
0.109376,40.835454,121.403897,-181.975758,-0.532812,-1.174127,-2.557262,3.408802,1.448375,2.473085,-3.352946,-0.069992,0.380670,-0.024490,-107.544449,188.724590,1013.173968,88.737474,0
0.110417,-27.480427,165.704572,-153.525947,-0.046482,0.153677,-3.585125,3.050591,0.132457,3.610388,-3.054087,-0.026156,0.384590,-0.050629,-96.867809,188.574090,1012.335218,89.512832,0
