1-Time,2-VGERA,3-VGERB,4-VGERC,5-VN,6-IGERAN,7-IGERBN,8-IGERCN,9-IGERAT,10-IGERBT,11-IGERCT,12-IN,13-IFD,14-IFAULT,15-VFAULT,16-Speed (rad/s),17-Active Power,18-Reactive Power,19-FAULT 
0.000000,76.147298,64.572657,-196.815612,-3.457597,2.027546,-5.992599,3.493470,-1.379603,5.917160,-3.538734,-0.039809,0.193423,-0.045123,-70.571969,188.721896,1005.541719,-1286.135665,0
0.001042,27.173422,145.131681,-170.166996,-3.052262,4.133823,-6.016736,1.517732,-3.428858,6.115852,-1.653806,-0.076271,0.210096,-0.063706,-23.568463,188.571109,1006.296288,-1286.201524,0
0.002083,-16.896287,188.388554,-107.828920,-1.870035,5.539232,-4.560510,-1.116585,-4.672919,4.674279,1.010830,-0.120025,0.189013,-0.052556,20.372778,188.571134,1007.377775,-1285.650718,0
0.003125,-90.696099,190.126815,-55.868372,-0.755365,6.574023,-2.987626,-3.493526,-5.811797,3.173521,3.490002,-0.189302,0.185361,-0.071140,93.146588,188.571084,1007.747304,-1286.315367,0
0.004167,-156.902362,143.393420,-9.145194,0.111601,6.093322,-0.750992,-5.015071,-5.362049,0.983683,5.094840,-0.243995,0.196799,-0.059989,159.075337,188.721953,1009.167998,-1287.452628,0
0.005208,-202.282862,86.195221,44.054825,1.136198,4.797998,1.763209,-5.961305,-4.092599,-1.535899,6.071368,-0.240349,0.203964,-0.067423,196.025159,188.571131,1009.502711,-1287.403678,0
0.006250,-175.422939,38.052424,123.417393,2.644944,2.904550,3.794684,-6.018079,-2.308115,-3.527045,6.150853,-0.247641,0.209959,-0.063706,169.579354,188.571065,1010.155976,-1288.170308,0
0.007292,-130.381437,-5.732973,188.696173,3.951023,0.816620,4.985410,-4.977221,-0.425702,-4.905205,5.257595,-0.240349,0.229182,-0.071140,124.455989,188.571114,1010.270920,-1288.707385,0
0.008334,-76.774591,-65.139234,196.777035,4.119912,-2.005205,6.071545,-3.258859,2.312683,-5.856390,3.410517,-0.192949,0.210372,-0.059989,71.249147,188.721817,1010.828566,-1289.927665,0
0.009375,-27.766815,-145.522083,170.237784,3.613244,-4.052770,6.011204,-1.275552,4.361938,-6.025489,1.518020,-0.141902,0.198177,-0.030256,24.268158,188.571163,1011.016952,-1290.345651,0
0.010417,17.252087,-188.872916,108.033376,2.419758,-5.465517,4.627388,1.328485,5.602372,-4.575461,-1.146617,-0.109087,0.216642,-0.045123,-20.134674,188.571056,1011.594149,-1290.141673,0
0.011458,91.368298,-189.906476,56.182193,1.327606,-6.562690,3.038412,3.720566,6.730369,-3.091614,-3.625789,-0.058040,0.187153,-0.056273,-92.840935,188.571062,1010.940329,-1290.030130,0
0.012500,157.258162,-143.337511,9.179527,0.426862,-6.063642,0.842006,5.261036,6.255232,-0.872183,-5.170066,-0.032517,0.197488,-0.093440,-159.208758,188.721880,1011.322028,-1289.415184,0
0.013542,202.220565,-85.904412,-43.862520,-0.608994,-4.694928,-1.760695,6.101292,5.025679,1.575531,-6.169305,-0.010640,0.202655,-0.056273,-195.584405,188.571026,1011.545863,-1289.548285,0
0.014583,175.383242,-37.092150,-123.516728,-2.162777,-2.834505,-3.735852,6.192130,3.244822,3.613180,-6.233650,0.007591,0.211199,-0.067423,-169.059792,188.571140,1011.950279,-1289.651600,0
0.015625,129.697644,6.352642,-188.917025,-3.401300,-0.724559,-4.906464,5.173982,1.268107,4.970203,-5.344176,-0.006994,0.236485,-0.056273,-123.103311,188.571216,1011.456591,-1289.880833,0
0.016667,75.808301,65.359573,-196.997887,-3.502634,2.086258,-5.976508,3.474545,-1.401365,5.908705,-3.553874,-0.017932,0.198108,-0.071140,-69.581236,188.721907,1011.823823,-1289.897651,0
0.017708,26.992623,145.613227,-169.778142,-3.007225,4.122815,-6.012713,1.457173,-3.461501,6.086259,-1.612171,-0.087210,0.204653,-0.037689,-22.915480,188.571156,1011.251180,-1290.077723,0
0.018750,-17.393484,188.928824,-106.844634,-1.870035,5.520884,-4.568556,-1.127939,-4.672919,4.640459,1.086530,-0.134610,0.196454,-0.056273,20.901919,188.495673,1010.675067,-1290.238988,0
0.019792,-91.577493,189.703995,-54.920541,-0.777883,6.552006,-2.963489,-3.538945,-5.779154,3.190431,3.539207,-0.178364,0.187635,-0.056273,93.765796,188.495841,1010.885535,-1289.955328,0
0.020833,-157.399558,142.583014,-8.233819,0.122861,6.093322,-0.734901,-5.030210,-5.325779,0.966773,5.053205,-0.207533,0.193285,-0.059989,159.784612,188.721889,1010.812188,-1288.911074,0
0.021875,-202.248962,85.055955,44.577347,1.124939,4.753964,1.783323,-5.949950,-4.107107,-1.540126,6.097863,-0.229410,0.201897,-0.089723,195.867542,188.571152,1011.351887,-1288.788914,0
0.022917,-174.970942,36.525573,123.952066,2.667463,2.904550,3.822843,-6.037004,-2.329877,-3.556637,6.128143,-0.214826,0.206169,-0.086006,169.174054,188.495620,1011.785207,-1288.293679,0
0.023958,-128.844647,-6.519889,189.376666,3.883467,0.790934,5.021615,-4.969651,-0.371297,-4.896750,5.253810,-0.229410,0.195283,-0.082290,123.217573,188.571047,1011.661243,-1287.951025,0
0.025000,-75.113502,-65.761720,196.935006,4.041097,-2.038230,6.115795,-3.292924,2.312683,-5.885982,3.384022,-0.174718,0.234418,-0.082290,70.010731,188.646540,1011.969837,-1287.647450,0
0.026042,-26.478624,-146.121079,169.739565,3.556947,-4.126160,6.067522,-1.267982,4.361938,-6.076219,1.502880,-0.152841,0.213817,-0.048839,23.716500,188.571026,1012.739032,-1287.538309,0
0.027083,17.850984,-189.483656,106.769602,2.352202,-5.472856,4.647501,1.381474,5.671285,-4.575461,-1.188252,-0.101794,0.185568,-0.112023,-20.776399,188.495604,1013.051046,-1288.157886,0
0.028125,92.114093,-189.354461,55.428789,1.383902,-6.533334,3.038412,3.731921,6.773893,-3.095841,-3.648498,-0.025225,0.185981,-0.052556,-93.730342,188.571055,1013.616632,-1288.328981,0
0.029167,158.003957,-142.245225,8.900038,0.460640,-6.056303,0.805802,5.291315,6.276994,-0.863728,-5.196561,-0.032517,0.198521,-0.056273,-160.503466,188.646469,1014.042871,-1288.420358,0
0.030208,202.186665,-85.411122,-44.579469,-0.631512,-4.687589,-1.664150,6.139141,5.036560,1.622034,-6.184445,0.011237,0.204033,-0.041406,-195.134072,188.571046,1014.228310,-1288.759327,0
0.031250,174.852146,-37.068660,-124.962777,-2.162777,-2.874870,-3.755966,6.245120,3.241195,3.689274,-6.271500,0.029468,0.208098,-0.045123,-168.699526,188.495676,1014.750783,-1289.800301,0
0.032292,129.505546,6.552307,-189.038542,-3.401300,-0.731898,-4.966805,5.219401,1.289869,4.932155,-5.366886,0.003945,0.217055,-0.056273,-123.024503,188.646504,1015.227692,-1289.257242,0
0.033333,75.842200,66.569309,-196.706247,-3.547671,2.049563,-6.073054,3.501040,-1.444889,5.993255,-3.538734,-0.054394,0.214782,-0.078573,-69.727594,188.571093,1015.648310,-1290.325537,0
0.034375,27.207322,145.730677,-169.437895,-3.097299,4.155840,-6.020758,1.510162,-3.468755,6.170809,-1.619741,-0.105440,0.210785,-0.052556,-23.174422,188.571170,1016.418776,-1290.878961,0
0.035417,-17.788981,190.197285,-106.054776,-1.824998,5.601613,-4.608783,-1.199853,-4.781729,4.725009,1.082745,-0.156487,0.199968,-0.078573,21.476094,188.495727,1018.200024,-1292.168378,0
0.036458,-92.300689,188.776139,-55.345850,-0.777883,6.629065,-2.991648,-3.584364,-5.855321,3.215796,3.558132,-0.225764,0.187773,-0.074856,94.396262,188.646489,1018.894190,-1292.831241,0
0.037500,-159.501345,141.525963,-8.841402,0.122861,6.185059,-0.730878,-5.147543,-5.434589,0.966773,5.166755,-0.225764,0.195490,-0.052556,162.283960,188.570931,1020.438093,-1294.737033,0
0.038542,-201.909964,85.173405,45.112020,1.091161,4.761303,1.803437,-5.987800,-4.125242,-1.557036,6.128143,-0.265872,0.204033,-0.056273,195.203301,188.571134,1020.753062,-1295.152106,0
0.039583,-174.564145,36.631278,125.969244,2.633685,2.908220,3.887207,-6.146767,-2.377028,-3.662324,6.203843,-0.236703,0.211474,-0.097156,168.948888,188.495738,1022.266564,-1296.803761,0
0.040625,-128.833347,-6.977944,189.085026,3.894726,0.779925,5.073910,-4.984791,-0.389432,-4.892523,5.291660,-0.222118,0.226770,-0.056273,122.812274,188.647654,1022.873819,-1296.647971,0
0.041667,-74.638905,-67.053671,197.287405,4.063616,-2.067586,6.192227,-3.334558,2.356207,-5.957849,3.512712,-0.192949,0.208925,-0.059989,69.110065,188.495770,1025.102498,-1297.609301,0
0.042709,-26.297825,-146.097589,169.375015,3.523169,-4.166524,6.067522,-1.256627,4.452613,-6.046627,1.461245,-0.189302,0.203000,-0.071140,23.119809,188.571109,1024.250158,-1298.393509,0
0.043750,18.336880,-191.362858,105.469373,2.318424,-5.586610,4.707842,1.373905,5.729317,-4.681149,-1.237457,-0.076271,0.194594,-0.071140,-21.418123,188.495653,1025.957392,-1299.542473,0
0.044792,92.645189,-188.544055,54.857661,1.338865,-6.584707,3.030367,3.747061,6.828298,-3.078931,-3.674993,-0.072625,0.185361,-0.041406,-94.023059,188.646545,1026.181611,-1299.864690,0
0.045833,159.981444,-141.129450,8.657005,0.426862,-6.126023,0.821892,5.317810,6.353161,-0.872183,-5.268476,0.007591,0.197074,-0.045123,-162.552481,188.571087,1027.731790,-1300.831220,0
0.046875,201.768568,-84.506756,-45.029081,-0.597734,-4.694928,-1.756673,6.203485,5.036560,1.651626,-6.222295,0.036760,0.203206,-0.033973,-194.492348,188.571102,1027.835719,-1301.018470,0
0.047917,174.626147,-35.706239,-126.263006,-2.151518,-2.874870,-3.820329,6.328388,3.248449,3.714639,-6.362340,0.003945,0.221947,-0.063706,-168.530651,188.495723,1029.355151,-1301.603018,0
0.048958,128.285154,7.480163,-189.074997,-3.412560,-0.717220,-4.990941,5.185337,1.264480,4.999795,-5.355531,-0.021578,0.225599,-0.052556,-121.763571,188.646500,1029.377961,-1301.819037,0
0.050000,74.034212,67.320990,-197.301679,-3.536412,2.104605,-6.073054,3.512394,-1.477532,5.972117,-3.576584,-0.061686,0.214713,-0.033973,-68.173945,188.495673,1030.122217,-1301.415030,0
0.051042,26.043429,146.106517,-168.635885,-3.018484,4.210882,-6.012713,1.472313,-3.486890,6.120079,-1.642451,-0.105440,0.192389,-0.052556,-22.600247,188.571176,1030.239182,-1300.554550,0
0.052083,-18.331377,191.207356,-104.681637,-1.779961,5.612621,-4.608783,-1.188498,-4.749086,4.703871,1.116810,-0.141902,0.194663,-0.037689,22.039010,188.495736,1030.243095,-1300.012293,0
0.053125,-92.956084,188.235868,-54.531688,-0.789143,6.625396,-2.939353,-3.523805,-5.855321,3.148156,3.573272,-0.207533,0.189358,-0.063706,95.071762,188.571091,1029.762222,-1299.804689,0
0.054167,-160.201940,140.680323,-8.391790,0.111601,6.159372,-0.730878,-5.113479,-5.401946,0.924498,5.151615,-0.218472,0.197143,-0.074856,163.274692,188.495669,1029.408944,-1299.341724,0
0.055208,-201.808265,84.527429,45.804665,1.169976,4.731948,1.835618,-5.968875,-4.121615,-1.582401,6.101648,-0.265872,0.204378,-0.048839,194.820518,188.571096,1029.383327,-1298.961695,0
0.056250,-174.372046,36.149733,126.844164,2.757537,2.889872,3.915366,-6.120273,-2.293607,-3.658097,6.226553,-0.276811,0.210992,-0.071140,168.813788,188.495729,1029.095901,-1299.170320,0
0.057292,-128.279651,-7.130629,189.413121,3.939764,0.721214,5.045751,-4.969651,-0.345908,-4.875613,5.231100,-0.236703,0.223739,-0.067423,122.542074,188.646471,1028.178497,-1298.842329,0
0.058333,-74.661505,-67.711391,197.020068,4.131172,-2.067586,6.147977,-3.292924,2.410612,-5.940940,3.429442,-0.200241,0.202380,-0.045123,69.177615,188.495671,1027.002222,-1299.091619,0
0.059375,-26.569023,-146.661349,168.840341,3.545688,-4.115151,6.063500,-1.230133,4.434478,-6.050854,1.419610,-0.167425,0.191769,-0.052556,23.446300,188.571225,1026.728044,-1299.030425,0
0.060417,18.754978,-191.386348,105.165582,2.318424,-5.564593,4.695774,1.442033,5.693047,-4.605054,-1.245027,-0.105440,0.215471,-0.074856,-21.890973,188.495714,1025.930817,-1298.304001,0
0.061458,93.526583,-187.968550,55.149301,1.305087,-6.540673,3.018299,3.784910,6.813790,-3.100069,-3.690133,-0.065333,0.189840,-0.097156,-94.799883,188.646449,1026.164150,-1298.180838,0
0.062500,160.851539,-140.448239,8.778522,0.449381,-6.144370,0.801779,5.332950,6.327772,-0.876411,-5.276046,0.003945,0.197832,-0.063706,-163.396855,188.495698,1026.205875,-1297.969273,0
0.063542,201.519970,-84.495011,-45.709574,-0.642772,-4.669242,-1.788854,6.184561,5.036560,1.668536,-6.199585,0.011237,0.203964,-0.074856,-194.177115,188.571154,1026.185575,-1297.758565,0
0.064583,174.219350,-35.847179,-127.393111,-2.230333,-2.904225,-3.880670,6.301894,3.223060,3.752687,-6.313135,-0.010640,0.201691,-0.052556,-168.091576,188.495673,1025.743882,-1297.824830,0
0.065625,128.115655,7.762043,-188.977783,-3.412560,-0.665847,-4.998987,5.166412,1.213702,5.016705,-5.336606,-0.010640,0.209545,-0.093440,-121.403304,188.646600,1025.168087,-1298.122473,0
0.066667,73.955113,68.425021,-197.046493,-3.615227,2.144969,-6.145463,3.516179,-1.521056,6.052439,-3.546304,-0.047102,0.211268,-0.033973,-67.757387,188.495664,1025.386858,-1299.129226,0
0.067708,25.636632,146.188732,-168.222728,-3.041003,4.280602,-6.040872,1.396614,-3.555803,6.136989,-1.532686,-0.094502,0.208236,-0.048839,-22.014814,188.571138,1024.363735,-1300.215310,0
0.068750,-18.839874,192.405347,-103.648745,-1.723664,5.675002,-4.616828,-1.275552,-4.861523,4.708099,1.200080,-0.116379,0.195490,-0.041406,22.815834,188.495655,1024.653170,-1301.897132,0
0.069792,-93.487181,187.366738,-53.972711,-0.800402,6.662090,-2.919239,-3.637353,-5.873456,3.165066,3.611122,-0.207533,0.182192,-0.067423,95.432028,188.720645,1024.954032,-1301.947585,0
0.070833,-161.976028,139.259176,-8.197364,0.111601,6.232762,-0.702719,-5.177823,-5.405573,0.890678,5.250025,-0.251287,0.194043,-0.074856,164.828341,188.495759,1025.318570,-1302.910817,0
0.071875,-201.220669,83.540848,46.327187,1.158716,4.706261,1.847687,-6.018079,-4.121615,-1.599311,6.124358,-0.251287,0.201828,-0.086006,194.066210,188.495645,1025.432175,-1302.750451,0
0.072917,-173.886149,35.092682,128.314516,2.791315,2.948584,3.943525,-6.131627,-2.318996,-3.679234,6.275758,-0.287749,0.216160,-0.037689,168.307163,188.495830,1026.778607,-1302.926916,0
0.073958,-127.375657,-8.093720,189.048571,3.917245,0.702866,5.098046,-4.988576,-0.306011,-4.993983,5.223530,-0.225764,0.241170,-0.063706,121.269883,188.646558,1026.692041,-1303.835570,0
0.075000,-72.797017,-68.921127,197.506135,4.074875,-2.170331,6.232454,-3.330773,2.461390,-6.004352,3.467292,-0.207533,0.206514,-0.052556,67.725291,188.495703,1027.968996,-1304.326392,0
0.076042,-25.179132,-146.402959,168.014028,3.545688,-4.203219,6.067522,-1.211208,4.467121,-6.033944,1.442320,-0.152841,0.199830,-0.067423,22.624443,188.495709,1028.187327,-1303.716032,0
0.077083,19.455573,-193.359509,103.160556,2.284646,-5.656330,4.731979,1.460958,5.838127,-4.626191,-1.271522,-0.101794,0.199210,-0.086006,-22.645281,188.495758,1029.579702,-1305.094563,0
0.078125,93.876881,-186.899754,54.225774,1.350125,-6.555351,2.953935,3.856824,6.810163,-3.040884,-3.773403,-0.047102,0.189909,-0.059989,-95.374058,188.646545,1028.690899,-1305.370600,0
0.079167,162.749926,-139.050583,8.499033,0.438121,-6.140700,0.801779,5.397293,6.364042,-0.846818,-5.347961,0.011237,0.196454,-0.074856,-165.434612,188.495736,1029.485808,-1306.199818,0
0.080208,200.954974,-83.708095,-46.353613,-0.620253,-4.661903,-1.821036,6.233765,5.040187,1.727721,-6.290425,0.025822,0.205825,-0.059989,-193.253932,188.495711,1029.707491,-1307.199354,0
0.081250,174.015952,-35.400869,-129.057890,-2.264111,-2.882209,-3.864579,6.366238,3.230314,3.769597,-6.396405,-0.006994,0.204791,-0.071140,-168.159126,188.495718,1031.141078,-1307.944936,0
0.082292,127.595858,8.032179,-188.977783,-3.423819,-0.662178,-5.023123,5.105853,1.148416,5.037843,-5.317681,-0.021578,0.220363,-0.052556,-121.054296,188.646578,1030.463844,-1308.276174,0
0.083333,73.469216,69.411601,-197.374589,-3.603968,2.181664,-6.149485,3.535104,-1.539191,6.120079,-3.557659,-0.025225,0.213059,-0.037689,-67.689837,188.495776,1031.374551,-1308.964875,0
0.084375,26.088629,146.588063,-167.481476,-3.018484,4.284272,-6.012713,1.396614,-3.599327,6.162354,-1.532686,-0.076271,0.202862,-0.063706,-22.510181,188.495734,1031.503165,-1309.490228,0
0.085417,-19.303171,193.368438,-103.004706,-1.779961,5.744722,-4.665101,-1.267982,-4.890539,4.729236,1.184940,-0.171072,0.207685,-0.052556,23.311201,188.495691,1032.427560,-1309.621733,0
0.086458,-94.526774,186.591567,-54.312958,-0.811661,6.632734,-2.919239,-3.648708,-5.884337,3.122791,3.652757,-0.214826,0.185568,-0.071140,96.434019,188.721953,1032.041191,-1310.055157,0
0.087500,-163.512818,138.613201,-8.306729,0.066564,6.199737,-0.706742,-5.211887,-5.412827,0.873769,5.242455,-0.233057,0.197074,-0.074856,166.472056,188.495645,1032.446255,-1310.069125,0
0.088542,-200.779972,83.752259,47.189956,1.181235,4.717270,1.912050,-6.040789,-4.107107,-1.633131,6.147068,-0.240349,0.204240,-0.071140,193.559585,188.571029,1032.356266,-1310.481528,0
0.089583,-173.739250,35.268857,129.675503,2.825093,2.944914,3.999843,-6.184616,-2.311742,-3.768012,6.275758,-0.262226,0.213473,-0.067423,168.205838,188.495727,1032.511048,-1311.556405,0
0.090625,-127.149658,-8.222915,189.376666,3.951023,0.611130,5.134251,-4.931802,-0.280622,-4.977073,5.268950,-0.247641,0.227321,-0.097156,120.830808,188.721875,1032.883831,-1311.692843,0
0.091667,-72.763118,-69.813748,197.579045,4.108653,-2.159322,6.284749,-3.342128,2.475898,-6.059309,3.474862,-0.189302,0.193492,-0.078573,67.331250,188.495767,1033.556555,-1312.315123,0
0.092708,-25.348631,-147.048935,167.333534,3.534429,-4.210558,6.119818,-1.146864,4.510645,-6.084674,1.400685,-0.138256,0.211888,-0.030256,22.500601,188.495817,1033.641032,-1313.160151,0
0.093750,19.783271,-194.275620,102.407152,2.329684,-5.711372,4.719910,1.464743,5.838127,-4.626191,-1.358577,-0.083563,0.197212,-0.074856,-23.196938,188.495752,1033.398557,-1313.731150,0
0.094792,94.667876,-186.218543,53.849072,1.338865,-6.639749,2.949913,3.871964,6.879076,-3.053566,-3.780973,-0.068979,0.184397,-0.059989,-95.982007,188.721905,1034.221897,-1314.030204,0
0.095833,164.354515,-137.946552,8.426123,0.393084,-6.188404,0.745461,5.461637,6.407566,-0.766496,-5.385811,-0.014286,0.195765,-0.059989,-167.067069,188.495832,1034.448818,-1314.924253,0
0.096875,200.525576,-82.733259,-46.961196,-0.665290,-4.654564,-1.833104,6.256474,5.043814,1.710811,-6.286640,-0.032517,0.202449,-0.052556,-192.747307,188.495732,1034.790143,-1314.226110,0
0.097917,173.394456,-34.473013,-130.516091,-2.252852,-2.871200,-3.941011,6.426797,3.230314,3.883739,-6.434255,0.014883,0.213610,-0.082290,-167.528660,188.495790,1035.480593,-1315.363755,0
0.098958,126.590165,8.936544,-189.026390,-3.423819,-0.588788,-5.103578,5.120993,1.126654,5.080117,-5.310111,0.000299,0.219742,-0.063706,-119.714555,188.646447,1035.560790,-1315.386799,0
0.100000,71.796827,70.797513,-197.654077,-3.558930,2.244045,-6.209826,3.565384,-1.597223,6.170809,-3.629574,-0.065333,0.225186,-0.052556,-66.181222,188.571176,1037.128994,-1315.812569,0
0.101042,25.060336,146.576318,-166.715921,-2.973447,4.317297,-6.044895,1.381474,-3.613835,6.225766,-1.498621,-0.068979,0.207478,-0.108307,-21.812165,188.495747,1037.506615,-1315.933616,0
0.102083,-20.082866,195.106699,-101.267017,-1.746183,5.829120,-4.681192,-1.313401,-4.955825,4.809558,1.222790,-0.156487,0.190322,-0.041406,24.031733,188.495781,1039.179186,-1316.740081,0
0.103125,-94.605873,185.487536,-53.510947,-0.777883,6.654751,-2.931308,-3.701697,-5.927861,3.101654,3.671682,-0.203887,0.185224,-0.086006,96.771769,188.646509,1039.159110,-1316.726355,0
0.104167,-165.693704,137.180310,-8.294577,0.134120,6.295143,-0.678583,-5.298941,-5.539772,0.907588,5.359789,-0.269518,0.197074,-0.074856,168.532330,188.571120,1041.458461,-1318.303246,0
0.105208,-200.226275,82.718698,47.603113,1.215013,4.746625,1.920096,-6.105133,-4.139750,-1.704998,6.215198,-0.258580,0.205894,-0.097156,192.681436,188.495738,1041.764816,-1319.149042,0
0.106250,-173.242054,34.834292,131.656226,2.847611,2.952253,4.040070,-6.271670,-2.358893,-3.789149,6.389308,-0.258580,0.212232,-0.063706,168.104514,188.646547,1043.949274,-1319.992875,0
0.107292,-126.584662,-8.669226,189.097178,3.917245,0.633146,5.118160,-4.920447,-0.244352,-4.993983,5.227315,-0.218472,0.206376,-0.048839,120.526834,188.646471,1043.250217,-1319.878729,0
0.108333,-72.152922,-71.270129,197.919292,4.108653,-2.185009,6.365204,-3.364838,2.541184,-6.156541,3.531637,-0.192949,0.192251,-0.059989,67.342508,188.571058,1044.791095,-1321.219670,0
0.109375,-25.608529,-147.048935,166.567979,3.500651,-4.280278,6.103727,-1.143079,4.543288,-6.122721,1.396900,-0.123671,0.174820,-0.074856,23.018484,188.495618,1044.913122,-1321.616375,0
