1-Time,2-VGERA,3-VGERB,4-VGERC,5-VN,6-IGERAN,7-IGERBN,8-IGERCN,9-IGERAT,10-IGERBT,11-IGERCT,12-IN,13-IFD,14-IFAULT,15-VFAULT,16-Speed (rad/s),17-Active Power,18-Reactive Power,19-FAULT 
0.000000,136.089773,-181.524771,18.994886,3.256038,-4.181212,5.237037,-0.468091,4.363245,-5.236240,0.635400,-0.117481,0.445865,-0.046895,118.304936,188.495895,1585.311523,16.510731,0
0.001042,183.025040,-132.609191,-43.346023,2.045868,-5.448662,4.090116,1.785657,5.539485,-4.090543,-1.574023,-0.069992,0.441945,-0.054364,152.280175,188.495877,1585.925496,16.333402,0
0.002083,193.108523,-57.767991,-100.713447,0.960108,-5.626176,2.185196,3.655073,5.855599,-2.239801,-3.427661,-0.040768,0.446061,-0.050629,152.404585,188.495930,1585.907895,16.400297,0
0.003125,166.340222,6.369529,-163.423675,-0.216132,-5.171740,0.137407,5.020754,5.318940,-0.221192,-4.751180,-0.015197,0.482055,-0.050629,122.885486,188.495906,1585.525568,16.099494,0
0.004167,116.467247,66.061275,-188.352652,-0.702462,-3.712576,-2.017534,5.479713,3.951561,1.868761,-5.267067,-0.018850,0.505833,-0.073035,76.096017,188.495984,1585.116580,16.434088,0
0.005208,38.873201,124.931520,-196.551516,-0.838182,-1.855780,-3.970078,5.434936,2.117362,3.891567,-5.238605,-0.022503,0.434498,-0.058098,19.285888,188.496024,1585.939886,16.539957,0
0.006250,-26.232752,166.743529,-160.259849,-0.182202,0.324091,-5.041595,4.244629,-0.043979,5.033067,-4.135672,-0.080951,0.460432,-0.046895,-28.849471,188.495949,1585.464970,16.269043,0
0.007292,-76.706879,200.799598,-84.525000,1.231548,2.770232,-5.696412,2.382676,-2.488353,5.696145,-2.353191,-0.095563,0.445799,-0.058098,-69.248790,188.495881,1585.940534,16.662291,0
0.008333,-136.186952,182.146682,-18.810985,2.453028,4.307503,-5.097155,0.371467,-4.113035,5.247099,-0.414164,-0.143052,0.442141,-0.028224,-113.052419,188.495933,1586.128777,16.673783,0
0.009375,-182.838656,132.385438,43.702273,3.674508,5.539449,-3.906580,-1.867355,-5.274572,4.046844,1.731217,-0.194194,0.439528,-0.046895,-147.785428,188.495873,1584.944307,17.759314,0
0.010417,-193.829539,57.520076,100.700379,4.760268,5.734715,-2.049283,-3.699457,-5.572308,2.212890,3.595529,-0.179582,0.445081,-0.024490,-146.552638,188.496073,1583.788705,17.973537,0
0.011458,-166.289948,-6.097964,163.090531,5.981748,5.326433,-0.049117,-5.124841,-5.116515,0.236247,4.936837,-0.256295,0.437960,-0.043161,-118.413359,188.420540,1583.265006,18.511653,0
0.012500,-116.938728,-65.282313,188.413448,6.479388,3.853067,2.101856,-5.609919,-3.752811,-1.916656,5.413589,-0.241683,0.425941,-0.046895,-73.003710,188.495857,1582.586173,19.082485,0
0.013542,-39.832410,-124.430419,196.403031,6.626418,1.953668,4.105991,-5.557679,-1.859800,-3.952052,5.338874,-0.263601,0.456839,-0.035692,-14.972101,188.494672,1581.805438,19.650647,0
0.014583,25.307570,-166.725664,160.529925,5.902578,-0.197800,5.193383,-4.352447,0.268459,-5.089356,4.360466,-0.212459,0.455337,-0.035692,33.061468,188.495919,1581.977905,20.284870,0
0.015625,76.428220,-200.733409,85.016667,4.477518,-2.658143,5.828356,-2.453180,2.767969,-5.727253,2.492596,-0.161317,0.445538,-0.035692,75.451347,188.420479,1581.569455,20.182641,0
0.016667,135.760840,-182.128817,18.748674,3.256038,-4.198964,5.237037,-0.449434,4.370596,-5.278207,0.617611,-0.139399,0.442207,-0.024490,118.169216,188.495975,1582.163362,20.038560,0
0.017708,182.548655,-132.017227,-43.530682,2.091108,-5.374106,4.042493,1.781925,5.561539,-4.124116,-1.545560,-0.095563,0.437111,-0.046895,152.743885,188.496174,1582.310458,20.719791,0
0.018750,193.539538,-57.091460,-100.171781,0.994038,-5.636826,2.165353,3.632685,5.892357,-2.235605,-3.413429,-0.022503,0.452397,-0.050629,152.755195,188.495911,1582.553716,20.923934,0
0.019792,166.056659,6.188315,-163.189773,-0.193512,-5.214343,0.161218,5.035680,5.381428,-0.229586,-4.776085,-0.040768,0.431820,-0.043161,122.772386,188.420537,1583.283438,21.161317,0
0.020833,117.170482,65.457230,-188.451137,-0.702462,-3.765830,-2.001660,5.509564,4.028752,1.914924,-5.327551,-0.044421,0.447171,-0.031958,77.871687,188.495902,1584.897184,20.870336,0
0.021875,40.302356,124.907359,-196.354546,-0.883422,-1.848680,-3.981983,5.472250,2.087956,3.941927,-5.263510,-0.007891,0.453638,-0.043161,20.473438,188.420555,1585.613668,19.725872,0
0.022917,-25.155214,167.057633,-160.469129,-0.193512,0.316990,-5.093187,4.237167,-0.073385,5.100214,-4.199713,-0.029809,0.456970,-0.013287,-28.566721,188.495794,1587.129993,19.151608,0
0.023958,-76.423317,201.198267,-84.180303,1.276788,2.858989,-5.696412,2.304317,-2.576571,5.733915,-2.310497,-0.062686,0.442925,-0.043161,-69.508920,188.420455,1587.844527,17.832514,0
0.025000,-135.971444,182.110439,-18.047727,2.520888,4.357207,-5.116998,0.293109,-4.175523,5.251295,-0.371470,-0.102869,0.440377,-0.050629,-113.301239,188.495864,1588.287514,17.104334,0
0.026042,-182.963424,132.035092,43.763826,3.674508,5.617556,-3.910549,-1.945713,-5.326032,4.030058,1.784585,-0.154011,0.438287,-0.050629,-147.808048,188.420557,1588.835709,16.298578,0
0.027083,-193.693429,57.254296,100.355682,4.748958,5.795069,-2.021503,-3.800204,-5.631120,2.221283,3.620434,-0.234377,0.435870,-0.054364,-147.366958,188.495897,1589.565806,16.221392,0
0.028125,-166.686935,-5.445596,163.262879,5.970438,5.383237,0.022318,-5.195737,-5.160624,0.185887,4.975973,-0.252642,0.443644,-0.024490,-118.503839,188.420368,1590.607292,15.370811,0
0.029167,-117.834786,-64.666187,188.327273,6.388908,3.845967,2.209007,-5.628575,-3.782217,-1.979606,5.523882,-0.241683,0.456513,-0.058098,-74.903790,188.495859,1592.518360,14.315280,0
0.030208,-41.261565,-124.321691,196.550758,6.615108,1.939467,4.197268,-5.524097,-1.826718,-4.010806,5.434936,-0.263601,0.458146,-0.054364,-15.096511,188.428366,1594.204906,13.206329,0
0.031250,24.876555,-166.496127,160.406819,5.936508,-0.251054,5.268786,-4.341253,0.312568,-5.164896,4.299983,-0.197847,0.456709,-0.050629,33.038848,188.496060,1594.385862,11.767376,0
0.032292,75.917808,-201.409939,84.241099,4.454898,-2.736249,5.860105,-2.427060,2.863539,-5.781810,2.503270,-0.179582,0.443448,-0.024490,74.422137,188.420658,1595.658184,10.976614,0
0.033333,135.273113,-181.802632,18.207008,3.233418,-4.198964,5.229100,-0.449434,4.422057,-5.257224,0.557128,-0.150358,0.440116,-0.028224,117.750746,188.496136,1595.534774,9.900464,0
0.034375,182.559997,-132.053470,-43.161364,2.102418,-5.455762,4.062336,1.830433,5.583594,-4.090543,-1.620275,-0.073645,0.439659,-0.058098,152.167075,188.420718,1595.694052,8.556585,0
0.035417,193.142550,-57.671344,-99.888637,1.016658,-5.668779,2.165353,3.651342,5.954845,-2.210425,-3.488144,-0.033462,0.428031,-0.043161,152.483755,188.496159,1596.710275,7.389951,0
0.036458,166.453647,4.738607,-163.325190,-0.193512,-5.285349,0.145344,5.117770,5.403482,-0.237979,-4.804547,0.003068,0.455337,-0.050629,123.575396,188.496205,1597.411159,6.882839,0
0.037500,118.179964,64.635729,-188.426516,-0.679842,-3.726777,-2.017534,5.524489,3.995670,1.948498,-5.348898,-0.044421,0.462327,-0.039427,77.249637,188.496230,1597.704335,5.637517,0
0.038542,40.835454,124.472446,-196.613069,-0.883422,-1.873532,-4.021669,5.475981,2.095307,3.946124,-5.256394,-0.018850,0.456905,-0.054364,19.647808,188.420763,1597.724782,5.341953,0
0.039583,-25.450119,166.622720,-160.469129,-0.204822,0.313440,-5.109061,4.203584,-0.080737,5.087624,-4.167693,-0.040768,0.449000,-0.039427,-28.781611,188.496114,1597.155953,5.131001,0
0.040625,-75.980959,201.355319,-83.934091,1.276788,2.851889,-5.700380,2.378944,-2.536138,5.742308,-2.328286,-0.088257,0.441096,-0.009553,-68.592810,188.496125,1597.087121,5.657958,0
0.041667,-135.086729,182.472866,-18.096970,2.543508,4.343006,-5.140810,0.349079,-4.149792,5.259689,-0.410607,-0.102869,0.437111,-0.039427,-112.633949,188.496239,1596.895505,6.066950,0
0.042708,-182.577779,132.433762,42.988258,3.697128,5.610455,-3.926423,-1.908400,-5.355438,4.042648,1.830837,-0.175929,0.437764,-0.054364,-147.841978,188.420759,1597.349408,5.140992,0
0.043750,-193.897594,58.824814,99.838637,4.771578,5.809271,-2.045314,-3.807667,-5.686256,2.250660,3.627549,-0.248989,0.445865,-0.039427,-146.620498,188.496174,1598.353750,4.809179,0
0.044797,-166.811703,-4.418719,163.730682,5.959128,5.337084,-0.021337,-5.206931,-5.186354,0.198477,4.983089,-0.201500,0.457493,-0.046895,-118.854449,188.420797,1598.883597,4.745979,0
0.045834,-118.424596,-63.977575,188.511932,6.445458,3.885020,2.177259,-5.621113,-3.822651,-1.992197,5.509650,-0.223418,0.462000,-0.058098,-73.399560,188.496232,1599.189227,4.615929,0
0.046875,-40.751152,-123.826374,196.710796,6.660348,1.967870,4.205205,-5.576336,-1.819367,-4.015002,5.434936,-0.281866,0.458015,-0.061832,-14.666731,188.420721,1599.068846,4.530804,0
0.047917,25.409653,-166.484046,160.566857,5.925198,-0.204901,5.260848,-4.389761,0.349326,-5.194273,4.332003,-0.205153,0.438875,-0.065566,33.174568,188.496167,1599.785453,4.357312,0
0.048958,75.713643,-201.422020,84.105682,4.488828,-2.704297,5.879948,-2.468105,2.826781,-5.756630,2.492596,-0.183235,0.442337,-0.020755,74.817987,188.420625,1599.172336,4.599214,0
0.050000,134.932838,-182.455001,18.982576,3.312588,-4.287721,5.284660,-0.468091,4.447787,-5.290797,0.571359,-0.124787,0.439071,-0.035692,117.920396,188.496127,1599.938702,4.295516,0
0.051042,182.684765,-132.524625,-42.385796,2.045868,-5.509016,4.090116,1.834164,5.613000,-4.077953,-1.634506,-0.080951,0.445930,-0.039427,152.970085,188.420779,1600.284272,3.574412,0
0.052083,193.539538,-59.253942,-99.691667,0.982728,-5.704282,2.165353,3.722238,5.980575,-2.269178,-3.520165,-0.040768,0.449523,-0.024490,152.800435,188.496159,1601.403598,3.363938,0
0.053125,166.737209,4.001671,-163.386743,-0.238752,-5.267598,0.093752,5.166278,5.436564,-0.175029,-4.868589,-0.011544,0.459583,-0.061832,123.156926,188.420757,1602.512463,2.117717,0
0.054167,117.851032,64.502839,-188.795834,-0.713772,-3.730327,-2.120717,5.591654,4.050806,1.990465,-5.352456,-0.022503,0.465332,-0.024490,77.419287,188.496138,1603.175802,2.207564,0
0.055208,40.109534,124.279152,-196.883902,-0.883422,-1.834478,-4.065324,5.509564,2.062225,4.051041,-5.341782,-0.011544,0.460367,-0.065566,19.670428,188.420692,1604.874152,1.381954,0
0.056250,-25.665627,166.864338,-160.309091,-0.170892,0.334742,-5.148747,4.293137,-0.088088,5.192542,-4.231734,-0.044421,0.430187,-0.017021,-28.510171,188.496181,1606.674272,1.423675,0
0.057292,-75.731424,201.935203,-83.872538,1.288098,2.894492,-5.807532,2.375213,-2.650086,5.801062,-2.356749,-0.102869,0.441161,-0.028224,-68.966040,188.345368,1608.326548,0.487231,0
0.058333,-135.449689,182.291653,-19.131061,2.464338,4.460165,-5.180496,0.281915,-4.219632,5.322639,-0.382144,-0.124787,0.441357,-0.035692,-113.289929,188.496176,1609.659528,-0.324643,0
0.059375,-183.553234,133.146535,42.261932,3.651888,5.635307,-3.978015,-2.016609,-5.410575,4.130778,1.834395,-0.172276,0.446061,-0.069301,-148.124728,188.420732,1611.464948,-0.116021,0
0.060417,-193.682087,59.561749,99.764773,4.760268,5.887377,-1.965943,-3.889757,-5.748744,2.187710,3.737843,-0.223418,0.448608,-0.031958,-147.423508,188.496136,1612.692671,-2.036973,0
0.061458,-167.208691,-4.467042,163.287500,5.981748,5.411639,0.018349,-5.303946,-5.252517,0.143920,5.118287,-0.234377,0.461216,-0.039427,-118.526459,188.420817,1614.740354,-3.259347,0
0.062500,-117.823443,-64.158789,188.733523,6.479388,3.824665,2.248693,-5.714397,-3.796920,-2.067737,5.566576,-0.245336,0.429991,-0.061832,-74.021610,188.420649,1615.511297,-4.184016,0
0.063542,-39.775697,-123.874698,197.190910,6.626418,1.946568,4.260765,-5.680815,-1.753203,-4.086346,5.509650,-0.263601,0.417579,-0.058098,-14.282191,188.420669,1616.799190,-5.003844,0
0.064583,25.375625,-166.387399,160.320644,5.913888,-0.268806,5.340220,-4.419612,0.411814,-5.278207,4.371139,-0.252642,0.422870,-0.054364,32.620378,188.496179,1618.062445,-5.802177,0
0.065625,75.169203,-201.929418,84.671970,4.500138,-2.828556,5.943445,-2.468105,2.929702,-5.815384,2.492596,-0.186888,0.444820,-0.054364,73.890567,188.420681,1619.507878,-7.211126,0
0.066667,135.159688,-182.020089,19.992046,3.289968,-4.337425,5.348157,-0.374807,4.521302,-5.328567,0.553570,-0.135746,0.444493,-0.013287,117.920396,188.420841,1620.496310,-8.030105,0
0.067708,183.308602,-133.092427,-41.868750,2.102418,-5.537419,4.094085,1.882672,5.690191,-4.145100,-1.687874,-0.084604,0.444166,-0.039427,152.517685,188.420674,1622.379390,-8.585594,0
0.068750,193.369400,-58.758625,-99.346970,0.971418,-5.686530,2.113761,3.796865,5.973223,-2.281768,-3.530838,-0.033462,0.446910,-0.050629,152.619475,188.496145,1622.214819,-8.484581,0
0.069792,166.964059,4.835254,-163.017425,-0.216132,-5.264047,0.081847,5.211054,5.454943,-0.191815,-4.879262,-0.026156,0.445603,-0.039427,123.405746,188.496087,1622.466948,-8.046558,0
0.070833,117.295249,64.575324,-188.882008,-0.691152,-3.787131,-2.088969,5.636430,4.072861,1.969481,-5.384476,-0.040768,0.425679,-0.024490,76.401387,188.420737,1622.815563,-7.495694,0
0.071875,39.451669,123.952967,-197.142425,-0.872112,-1.841579,-4.112947,5.539415,2.043847,4.042648,-5.323993,-0.029809,0.466769,-0.017021,19.681738,188.420842,1622.405032,-7.563956,0
0.072917,-25.132529,166.658963,-160.813826,-0.216132,0.341842,-5.200339,4.274480,-0.132197,5.205132,-4.178366,-0.029809,0.454749,-0.039427,-27.808951,188.496147,1622.136873,-8.849331,0
0.073958,-75.118929,201.729827,-85.165152,1.265478,2.901593,-5.791658,2.386407,-2.591274,5.809455,-2.324728,-0.102869,0.445669,-0.035692,-68.151720,188.496167,1621.742974,-9.182602,0
0.075000,-135.608484,182.654080,-19.857386,2.453028,4.396260,-5.180496,0.308034,-4.219632,5.293262,-0.407049,-0.128440,0.445473,-0.035692,-112.916699,188.420774,1621.652367,-9.281656,0
0.076042,-183.360411,133.170697,42.089583,3.663198,5.656609,-3.942297,-1.994221,-5.373817,4.122385,1.823721,-0.219765,0.440639,-0.054364,-148.124728,188.420810,1621.062510,-9.192138,0
0.077083,-194.124444,58.981866,99.210796,4.737648,5.862525,-2.045314,-3.837518,-5.737716,2.217086,3.702264,-0.227071,0.444885,-0.031958,-146.869318,188.496150,1620.771147,-8.510449,0
0.078125,-166.959156,-4.889874,162.893561,5.936508,5.397438,0.058035,-5.274095,-5.160624,0.152314,5.036457,-0.248989,0.409871,-0.020755,-118.763969,188.420698,1618.789847,-8.284466,0
0.079167,-117.449141,-64.098385,188.832008,6.434148,3.870819,2.220913,-5.706934,-3.807948,-2.021573,5.530997,-0.234377,0.459452,-0.013287,-73.015020,188.420745,1618.180505,-7.532077,0
0.080208,-40.184027,-123.584756,197.117046,6.671658,2.017573,4.264734,-5.650964,-1.848773,-4.056969,5.481188,-0.234377,0.456317,-0.035692,-15.322711,188.420754,1617.876711,-6.511898,0
0.081250,24.161978,-166.496127,161.083902,5.947818,-0.215552,5.356094,-4.389761,0.327271,-5.219453,4.428065,-0.252642,0.454488,-0.005818,31.907848,188.496011,1617.896333,-5.469814,0
0.082292,74.919668,-201.506587,85.730682,4.500138,-2.764651,5.943445,-2.471837,2.823106,-5.853154,2.492596,-0.205153,0.445930,-0.013287,74.399517,188.420703,1617.727275,-4.795937,0
0.083333,135.205058,-182.660376,20.028977,3.267348,-4.305472,5.352126,-0.371075,4.477193,-5.366338,0.528665,-0.154011,0.443056,-0.024490,117.909086,188.420743,1617.922934,-4.682373,0
0.084375,182.877587,-132.766243,-41.819508,2.091108,-5.533868,4.090116,1.893866,5.712245,-4.107330,-1.659411,-0.080951,0.439855,-0.046895,153.037945,188.420770,1617.533141,-4.726764,0
0.085417,193.800415,-58.251227,-98.780682,0.994038,-5.736234,2.149479,3.800596,6.028360,-2.218818,-3.591322,-0.037115,0.432016,-0.039427,152.970085,188.496089,1618.267753,-5.918521,0
0.086458,166.612442,5.233924,-162.832766,-0.182202,-5.292449,0.105658,5.188666,5.502727,-0.183422,-4.911283,0.003068,0.449066,-0.013287,123.055136,188.420746,1618.905125,-5.781735,0
0.087500,117.442702,64.237059,-189.054357,-0.691152,-3.783581,-2.077063,5.636430,4.061833,2.053415,-5.402266,-0.011544,0.451809,-0.054364,78.120507,188.420707,1619.460716,-6.976003,0
0.088542,40.835454,123.783835,-197.007008,-0.894732,-1.887733,-4.112947,5.572997,2.080604,4.063631,-5.352456,-0.026156,0.455010,-0.024490,21.208588,188.420725,1620.168897,-7.172119,0
0.089583,-23.748744,166.912662,-161.096970,-0.216132,0.356043,-5.232087,4.330451,-0.110143,5.238705,-4.231734,-0.051727,0.456251,-0.017021,-27.254761,188.496163,1621.151941,-7.231415,0
0.090625,-74.926106,201.790232,-85.325190,1.220238,2.901593,-5.779752,2.356556,-2.635383,5.796865,-2.360307,-0.110175,0.443252,-0.046895,-68.479710,188.420754,1621.483567,-7.433740,0
0.091667,-135.256867,182.641999,-19.488068,2.486958,4.463715,-5.180496,0.266989,-4.260065,5.305852,-0.353681,-0.135746,0.439071,-0.028224,-112.939319,188.420741,1621.776125,-8.259977,0
0.092708,-183.315041,132.699542,42.249621,3.651888,5.653058,-3.930392,-2.031535,-5.443656,4.030058,1.866415,-0.168623,0.434106,-0.028224,-148.113418,188.422313,1621.783331,-9.588814,0
0.093751,-193.818197,57.773775,99.235417,4.760268,5.873176,-1.961974,-3.874832,-5.726689,2.128956,3.737843,-0.212459,0.447694,-0.020755,-147.457438,188.496449,1621.227593,-10.489915,0
0.094792,-166.993183,-4.756984,162.856629,5.970438,5.404539,0.038192,-5.300215,-5.208408,0.089363,5.082709,-0.227071,0.461608,-0.039427,-118.696109,188.420320,1622.186626,-11.312799,0
0.095834,-117.970896,-63.554744,188.819698,6.434148,3.909872,2.232819,-5.718128,-3.807948,-2.013180,5.552345,-0.241683,0.467030,-0.024490,-75.197850,188.420992,1622.452936,-11.585845,0
0.096875,-41.760635,-123.403542,197.092425,6.637728,1.939467,4.244891,-5.621113,-1.808340,-4.082150,5.456283,-0.245336,0.455206,-0.031958,-15.899521,188.420869,1622.376515,-12.910435,0
0.097917,23.458743,-166.423641,160.985417,5.913888,-0.254605,5.320377,-4.371104,0.389759,-5.198470,4.332003,-0.230724,0.455402,-0.043161,31.907848,188.496369,1621.231314,-14.462163,0
0.098959,74.477310,-201.748205,85.250568,4.534068,-2.835657,5.891853,-2.415866,2.900296,-5.794400,2.485481,-0.212459,0.442141,-0.058098,73.302447,188.421729,1620.859573,-15.320161,0
0.100000,134.637933,-182.394597,19.511932,3.256038,-4.330324,5.288629,-0.363612,4.502923,-5.345354,0.507318,-0.154011,0.436654,-0.054364,117.343586,188.345514,1620.565054,-15.779074,0
0.101042,182.673422,-132.440058,-42.065720,2.102418,-5.519667,4.046462,1.908792,5.627703,-4.069559,-1.698547,-0.095563,0.437177,-0.028224,152.314105,188.420947,1619.293075,-16.121780,0
0.102084,193.630278,-58.021690,-98.719129,1.005348,-5.682980,2.121699,3.796865,5.936466,-2.147474,-3.513049,-0.088257,0.423785,-0.058098,152.698645,188.496606,1617.247077,-16.184587,0
0.103125,166.930032,4.255370,-162.894319,-0.216132,-5.271148,0.117564,5.170009,5.440240,-0.204405,-4.808105,-0.037115,0.455402,-0.031958,123.880766,188.497692,1615.684625,-16.033007,0
0.104168,118.542924,63.608852,-188.869698,-0.747702,-3.719676,-2.088969,5.602848,4.003021,1.982072,-5.395150,-0.000585,0.461086,-0.046895,77.905617,188.344927,1614.970104,-16.289292,0
0.105209,41.856279,123.530136,-196.970076,-0.860802,-1.816727,-4.108978,5.546877,2.047522,4.034254,-5.284857,-0.015197,0.459452,-0.043161,20.620468,188.420320,1613.879114,-17.019903,0
0.106250,-23.998279,166.562316,-161.096970,-0.182202,0.398647,-5.156684,4.270749,-0.106467,5.175755,-4.135672,-0.051727,0.446322,-0.031958,-27.684541,188.495682,1612.159924,-17.326387,0
0.107292,-74.676571,201.524452,-84.955871,1.254168,2.922894,-5.759909,2.278197,-2.602302,5.809455,-2.260687,-0.095563,0.432996,-0.039427,-67.699320,188.495743,1611.318187,-17.971780,0
0.108333,-134.553632,182.992345,-19.057197,2.464338,4.453064,-5.176527,0.270720,-4.271092,5.263885,-0.378586,-0.139399,0.435674,-0.028224,-112.204169,188.344834,1610.917860,-18.015455,0
0.109375,-182.634491,132.687461,42.163447,3.674508,5.631757,-3.926423,-1.968102,-5.421602,4.067828,1.841510,-0.194194,0.434433,-0.046895,-147.898528,188.420251,1610.667738,-17.446841,0
0.110417,-194.317267,59.126836,98.767614,4.782888,5.816371,-1.989754,-3.852443,-5.700959,2.166726,3.734285,-0.208806,0.445081,-0.061832,-146.959798,188.495723,1610.784971,-17.609144,0
0.111458,-167.208691,-3.222709,162.856629,5.959128,5.404539,0.062004,-5.236782,-5.212084,0.177494,5.029341,-0.245336,0.454749,-0.039427,-119.261609,188.495694,1610.364512,-16.805571,0
