1-Time,2-VGERA,3-VGERB,4-VGERC,5-VN,6-IGERAN,7-IGERBN,8-IGERCN,9-IGERAT,10-IGERBT,11-IGERCT,12-IN,13-IFD,14-IFAULT,15-VFAULT,16-Speed (rad/s),17-FAULT 
0.000000,-64.706514,-83.017080,197.941857,6.671658,-2.228559,5.988996,-3.443289,2.668724,-5.864242,3.453619,-0.190541,0.203901,-0.050629,5.928778,188.495441,0
0.001042,-21.105942,-153.134647,158.818750,5.925198,-4.163461,5.566104,-0.978906,4.561735,-5.574167,1.119992,-0.128440,0.215725,-0.039427,6.562138,188.495417,0
0.002083,27.473988,-206.230220,94.914394,4.737648,-5.615525,4.327906,1.693128,6.046738,-4.373577,-1.556256,-0.084604,0.192469,-0.035692,6.777028,188.570798,0
0.003125,101.132186,-180.135468,48.306440,3.866778,-6.254575,2.567759,4.051728,6.752483,-2.625067,-3.886076,-0.033462,0.187766,-0.043161,4.967428,188.495472,0
0.004167,176.832035,-131.703123,3.483523,3.029838,-5.814340,0.674268,5.477857,6.318744,-0.699288,-5.385993,-0.018850,0.199198,-0.061832,3.350098,188.495580,0
0.005208,191.928903,-77.085356,-55.188826,1.864908,-4.248668,-1.866895,6.284953,4.808011,1.814699,-6.177827,-0.022503,0.202986,-0.009553,3.406648,188.495455,0
0.006250,169.867739,-29.945669,-142.126326,0.236268,-2.608439,-3.684189,6.418162,3.131869,3.688102,-6.387207,-0.004238,0.222780,-0.043161,2.592328,188.570778,0
0.007297,118.293389,16.831591,-190.814773,-0.657222,-0.183599,-4.697607,4.839233,0.772037,4.634876,-4.868255,0.014027,0.222388,-0.039427,0.590458,188.503022,0
0.008333,64.495910,83.312806,-198.090342,-0.838182,2.351300,-5.794841,3.389596,-1.815691,5.879783,-3.414021,-0.051727,0.209062,-0.050629,-0.970322,188.495758,0
0.009375,21.076818,153.261240,-158.893372,-0.125652,4.240048,-5.413857,0.905623,-3.719730,5.525247,-1.122270,-0.077298,0.204228,-0.050629,-1.614992,188.495631,0
0.010417,-27.480427,206.441380,-94.582765,1.084518,5.798620,-4.129941,-1.817345,-5.197381,4.397176,1.565399,-0.172276,0.192926,-0.046895,-2.101322,188.571163,0
0.011458,-101.388160,180.419113,-47.987121,1.989318,6.370215,-2.396463,-4.172026,-5.917828,2.616435,3.895219,-0.216112,0.187962,-0.046895,0.115438,188.495667,0
0.012500,-177.394256,131.962607,-3.644318,2.814948,5.954832,-0.442015,-5.578566,-5.517171,0.702743,5.482695,-0.256295,0.200243,-0.043161,1.619668,188.495662,0
0.013542,-192.457097,77.695186,55.225000,3.934638,4.374958,2.053431,-6.401333,-3.943950,-1.803186,6.247881,-0.263601,0.205403,-0.020755,1.370848,188.495553,0
0.014583,-170.123713,30.386366,142.433334,5.585898,2.787984,3.878344,-6.561968,-2.370729,-3.720907,6.445839,-0.234377,0.214549,-0.024490,2.230408,188.571149,0
0.015625,-119.105146,-15.641879,190.567804,6.479388,0.359593,4.884142,-4.924270,-0.003546,-4.703940,4.999219,-0.227071,0.223107,-0.054364,4.175728,188.570960,0
0.016671,-64.593089,-83.766096,198.126516,6.626418,-2.235660,6.019475,-3.486386,2.646670,-5.924674,3.525950,-0.161317,0.217946,-0.035692,5.917468,188.495761,0
0.017708,-21.208024,-153.207132,159.052652,5.891268,-4.142159,5.604202,-1.072936,4.565411,-5.574167,1.169482,-0.154011,0.212132,-0.073035,6.460348,188.495629,0
0.018750,27.473988,-206.447676,95.086743,4.760268,-5.615525,4.388863,1.657867,6.032035,-4.401779,-1.495345,-0.102869,0.196781,-0.046895,6.709168,188.570970,0
0.019792,101.143529,-180.292519,48.454167,3.832848,-6.282977,2.640146,4.008630,6.756158,-2.673413,-3.878462,-0.037115,0.190052,-0.017021,5.012668,188.571152,0
0.020833,177.331105,-131.691042,4.037500,3.007218,-5.885346,0.712367,5.454350,6.421665,-0.763749,-5.378379,-0.022503,0.203248,-0.035692,3.463198,188.495787,0
0.021875,192.201123,-77.302813,-55.053409,1.864908,-4.280620,-1.828797,6.331968,4.859471,1.750238,-6.174020,0.017680,0.206971,-0.050629,3.451888,188.517549,0
0.022917,169.924452,-30.392662,-142.397160,0.236268,-2.746900,-3.733717,6.492603,3.205384,3.655872,-6.478572,0.006721,0.227483,-0.054364,2.603638,188.518391,0
0.023958,119.030652,16.118818,-190.728599,-0.668532,-0.314959,-4.693797,4.901920,0.838201,4.638905,-4.978655,-0.029809,0.225393,-0.005818,0.669628,188.506056,0
0.025000,64.836185,83.312806,-198.250379,-0.804252,2.248342,-5.859608,3.436611,-1.709094,5.903956,-3.516807,-0.080951,0.213830,-0.061832,-1.060802,188.504341,0
0.026042,21.564545,153.635748,-158.930304,-0.069102,4.282651,-5.471005,1.019243,-3.697675,5.597766,-1.171759,-0.102869,0.206057,0.005384,-1.648922,188.504399,0
0.027083,-27.469084,206.646755,-94.878220,1.107138,5.795069,-4.248046,-1.766411,-5.201057,4.409262,1.576820,-0.183235,0.194102,-0.050629,-2.067392,188.578470,0
0.028125,-101.218023,180.358708,-47.864015,1.966698,6.437670,-2.426942,-4.172026,-5.936207,2.684925,3.971357,-0.219765,0.185871,-0.054364,0.036268,188.578510,0
0.029167,-177.643791,132.180063,-3.890530,2.803638,6.040039,-0.495353,-5.613827,-5.601714,0.734974,5.452240,-0.227071,0.200765,-0.061832,1.506568,188.525803,0
0.030208,-192.366357,77.767671,55.188068,3.923328,4.460165,2.019142,-6.467938,-4.079953,-1.791100,6.289757,-0.270907,0.207298,-0.069301,1.336918,188.514295,0
0.031262,-170.282508,29.733997,143.578220,5.597208,2.844788,3.866915,-6.577640,-2.378081,-3.708821,6.533398,-0.259948,0.217031,-0.043161,2.275648,188.583336,0
0.032307,-117.528538,-16.946616,191.786554,6.468078,0.295688,4.948910,-4.994793,0.007481,-4.768402,4.938309,-0.256295,0.228855,-0.024490,4.243588,188.585911,0
0.033346,-64.638459,-84.478870,198.028031,6.660348,-2.207258,6.072813,-3.482468,2.609912,-5.977049,3.571633,-0.186888,0.217358,-0.046895,5.974018,188.498038,0
0.034382,-21.536957,-154.004472,158.043182,5.891268,-4.163461,5.657540,-1.080772,4.591141,-5.586253,1.207551,-0.143052,0.195343,-0.065566,6.596068,188.500287,0
0.035426,28.018428,-206.967155,94.655871,4.715028,-5.672329,4.423152,1.673539,6.098199,-4.429980,-1.548642,-0.099216,0.198152,-0.043161,6.788338,188.647635,0
0.036461,101.086816,-180.026739,48.774243,3.889398,-6.325580,2.670625,4.067399,6.796592,-2.729816,-3.851814,-0.051727,0.193710,-0.073035,4.990048,188.570569,0
0.037504,177.546612,-130.966188,3.458902,3.007218,-5.917298,0.662839,5.470021,6.429016,-0.703317,-5.439290,-0.026156,0.197499,-0.039427,3.304858,188.495298,0
0.038542,192.030985,-77.532350,-54.954924,1.887528,-4.291271,-1.844036,6.331968,4.855795,1.746209,-6.257772,-0.004238,0.206645,-0.065566,3.429268,188.495369,0
0.039583,170.162644,-30.622200,-142.138637,0.247578,-2.729149,-3.665140,6.484767,3.245817,3.651843,-6.436696,0.021333,0.209976,-0.046895,2.569708,188.646056,0
0.040625,119.121392,15.659744,-190.642425,-0.668532,-0.293658,-4.678558,4.901920,0.852904,4.659049,-4.952007,-0.007891,0.225132,-0.065566,0.647008,188.570559,0
0.041667,65.165117,82.914136,-198.385796,-0.838182,2.248342,-5.840559,3.464037,-1.760555,5.839495,-3.547262,-0.062686,0.210891,-0.031958,-0.981632,188.495341,0
0.042708,21.802738,153.128350,-159.188826,-0.136962,4.254249,-5.444336,1.007489,-3.705027,5.557477,-1.183180,-0.102869,0.206906,-0.009553,-1.637612,188.570749,0
0.043750,-26.970014,206.610512,-95.038258,1.073208,5.759567,-4.213757,-1.754658,-5.212084,4.401205,1.538751,-0.154011,0.196585,-0.039427,-2.101322,188.646140,0
0.044792,-100.991173,180.564083,-48.799621,1.921458,6.412818,-2.465040,-4.113257,-5.921504,2.701040,3.910447,-0.190541,0.191163,-0.031958,0.126748,188.570752,0
0.045833,-177.405598,132.180063,-4.198295,2.792328,6.025838,-0.537261,-5.574648,-5.609065,0.722887,5.448433,-0.227071,0.202660,-0.046895,1.630978,188.495390,0
0.046875,-192.581864,77.224031,54.658712,3.945948,4.389159,2.053431,-6.479692,-4.010114,-1.783042,6.247881,-0.267254,0.203509,-0.058098,1.370848,188.495287,0
0.047917,-170.271166,31.099139,142.322538,5.585898,2.805735,3.882154,-6.605066,-2.403811,-3.704792,6.502943,-0.248989,0.210695,-0.043161,2.207788,188.646076,0
0.048958,-119.184543,-15.134481,190.555493,6.513318,0.405747,4.876523,-4.998711,-0.080737,-4.679767,5.041095,-0.219765,0.223564,-0.035692,4.187038,188.570825,0
0.050000,-65.455119,-82.473440,198.385038,6.660348,-2.168205,6.038524,-3.533402,2.573155,-5.872300,3.552599,-0.219765,0.211217,-0.061832,5.894848,188.495195,0
0.051042,-22.024684,-152.953433,159.372728,5.925198,-4.106657,5.588963,-1.076854,4.554384,-5.594311,1.192323,-0.150358,0.215790,-0.046895,6.482968,188.570760,0
0.052083,26.816123,-206.351029,95.480682,4.771578,-5.622625,4.411722,1.626524,6.046738,-4.405807,-1.472504,-0.080951,0.196062,-0.084238,6.743098,188.649180,0
0.053125,100.599089,-180.546218,49.082008,3.878088,-6.247474,2.643956,4.016466,6.803943,-2.729816,-3.825166,-0.048074,0.190509,-0.039427,5.023978,188.571243,0
0.054167,176.990830,-131.968903,4.714583,3.041148,-5.903097,0.704747,5.430842,6.432692,-0.779865,-5.382186,0.021333,0.203378,-0.031958,3.395338,188.495718,0
0.055208,192.314548,-77.834372,-54.585606,1.864908,-4.337425,-1.802128,6.331968,4.866823,1.718007,-6.212089,-0.018850,0.207820,-0.050629,3.440578,188.571214,0
0.056250,170.060562,-30.924222,-141.941667,0.224958,-2.729149,-3.676570,6.469096,3.231114,3.619612,-6.391014,0.006721,0.206449,-0.039427,2.614948,188.646458,0
0.057292,119.325557,15.647663,-190.580872,-0.645912,-0.318510,-4.674748,4.894084,0.904364,4.614732,-4.971041,-0.044421,0.230946,-0.043161,0.692248,188.570991,0
0.058333,65.255857,82.781246,-198.435038,-0.826872,2.234140,-5.863418,3.460119,-1.738500,5.851582,-3.516807,-0.051727,0.216705,-0.028224,-1.026872,188.495644,0
0.059375,21.734683,153.212917,-159.299622,-0.114342,4.240048,-5.467195,1.007489,-3.712378,5.573593,-1.167952,-0.117481,0.201680,-0.035692,-1.626302,188.495731,0
0.060417,-26.935987,206.465542,-95.333712,1.084518,5.805720,-4.228996,-1.719396,-5.215760,4.385089,1.538751,-0.205153,0.193776,-0.050629,-2.067392,188.646453,0
0.061460,-100.821035,180.431193,-48.048674,1.989318,6.458971,-2.426942,-4.179862,-5.969289,2.652694,3.963743,-0.230724,0.186394,-0.065566,0.013648,188.571056,0
0.062500,-177.212776,132.397519,-4.382955,2.814948,6.050689,-0.510592,-5.602073,-5.605389,0.747060,5.475081,-0.227071,0.200831,-0.054364,1.495258,188.495711,0
0.063542,-192.445754,78.154260,54.572538,3.934638,4.428212,2.042001,-6.452266,-3.980708,-1.847503,6.316405,-0.256295,0.204228,-0.031958,1.325608,188.495595,0
0.064583,-170.475331,31.292434,141.977841,5.608518,2.844788,3.897394,-6.569804,-2.370729,-3.704792,6.510557,-0.248989,0.216247,-0.046895,2.207788,188.646534,0
0.065625,-119.275283,-14.832458,190.580114,6.502008,0.380895,4.907001,-5.006547,-0.091764,-4.675739,5.025867,-0.212459,0.225328,-0.043161,4.209658,188.570941,0
0.066667,-65.772709,-82.243902,198.372728,6.660348,-2.228559,6.023285,-3.537320,2.584182,-5.900501,3.544985,-0.219765,0.216705,-0.039427,5.951398,188.495626,0
0.067708,-22.194822,-152.868867,159.237311,5.925198,-4.124408,5.661350,-1.100362,4.594817,-5.598340,1.211358,-0.143052,0.209911,-0.031958,6.562138,188.495716,0
0.068750,26.668670,-206.302706,95.566856,4.760268,-5.604874,4.419342,1.673539,6.057766,-4.385663,-1.506766,-0.113828,0.195866,-0.024490,6.788338,188.646513,0
0.069792,100.474321,-180.413328,49.377462,3.878088,-6.272326,2.640146,4.039974,6.785564,-2.685499,-3.874655,-0.040768,0.191097,-0.039427,4.978738,188.571252,0
0.070833,176.514445,-132.440058,4.714583,3.029838,-5.878245,0.693318,5.477857,6.417989,-0.723461,-5.412641,-0.018850,0.203901,-0.009553,3.372718,188.495743,0
0.071875,192.189780,-77.906858,-54.290152,1.898838,-4.319673,-1.821177,6.324132,4.833741,1.709949,-6.219703,-0.000585,0.206383,-0.058098,3.440578,188.495834,0
0.072917,170.185329,-31.057112,-141.609281,0.236268,-2.722048,-3.691809,6.488685,3.183329,3.667958,-6.413855,0.010374,0.206122,-0.061832,2.603638,188.646618,0
0.073958,119.325557,15.309398,-190.396213,-0.725082,-0.275906,-4.697607,4.905838,0.889661,4.675165,-4.925359,-0.022503,0.222061,-0.054364,0.669628,188.571102,0
0.075000,65.425995,82.346334,-198.385796,-0.826872,2.262543,-5.848179,3.420939,-1.756879,5.851582,-3.493966,-0.073645,0.209323,-0.046895,-0.947702,188.495845,0
0.076042,22.018245,152.753842,-159.533523,-0.148272,4.240048,-5.436716,0.972228,-3.734433,5.561506,-1.118463,-0.091910,0.212001,-0.050629,-1.592372,188.495660,0
0.077083,-26.675109,206.223924,-95.309091,1.073208,5.748916,-4.236616,-1.750740,-5.171651,4.373003,1.576820,-0.172276,0.199002,-0.031958,-2.090012,188.646502,0
0.078125,-100.458075,180.890268,-48.971970,1.955388,6.387966,-2.430752,-4.109339,-5.910477,2.660752,3.895219,-0.205153,0.189791,-0.035692,0.081508,188.495607,0
0.079167,-176.725048,132.361276,-4.493750,2.803638,6.036488,-0.472494,-5.574648,-5.535550,0.726916,5.425591,-0.219765,0.200308,-0.035692,1.619668,188.495747,0
0.080208,-192.752002,78.335474,54.387879,3.912018,4.396260,1.996283,-6.409169,-4.006438,-1.787071,6.270722,-0.259948,0.206057,-0.035692,1.382158,188.495763,0
0.081250,-170.418618,31.364919,141.682387,5.540658,2.812836,3.847866,-6.581558,-2.363378,-3.692705,6.442032,-0.263601,0.218272,-0.005818,2.219098,188.571109,0
0.082292,-119.842408,-14.687487,190.284660,6.502008,0.409297,4.826995,-4.955613,-0.113819,-4.667681,4.976378,-0.238030,0.222061,-0.061832,4.141798,188.571020,0
0.083333,-65.647941,-81.772747,198.360417,6.671658,-2.154004,6.000426,-3.537320,2.562127,-5.892444,3.541178,-0.216112,0.201876,-0.028224,5.883538,188.495607,0
0.084375,-22.036027,-152.506440,159.988258,5.970438,-4.096006,5.608012,-1.041593,4.543357,-5.566109,1.215164,-0.154011,0.197173,-0.024490,6.449038,188.495691,0
0.085417,26.430478,-206.012764,95.763826,4.782888,-5.629726,4.369814,1.642195,6.032035,-4.405807,-1.518187,-0.055380,0.193645,-0.024490,6.743098,188.571087,0
0.086458,100.043306,-181.029454,49.352841,3.889398,-6.247474,2.617287,3.985123,6.734104,-2.661326,-3.825166,-0.062686,0.190313,-0.009553,5.046598,188.571093,0
0.087500,176.072087,-132.367573,4.850000,3.018528,-5.864044,0.719987,5.434760,6.381232,-0.747634,-5.355538,-0.007891,0.201876,-0.002084,3.485818,188.495667,0
0.088542,192.507370,-78.124314,-54.117803,1.887528,-4.241567,-1.859276,6.316296,4.830065,1.738151,-6.189248,-0.007891,0.205599,-0.050629,3.485818,188.495580,0
0.089583,170.015192,-31.045031,-141.190720,0.258888,-2.704297,-3.627042,6.386819,3.194356,3.643785,-6.413855,0.021333,0.213504,-0.020755,2.614948,188.571223,0
0.090625,119.711202,15.285236,-190.211554,-0.691152,-0.286557,-4.629030,4.850987,0.849228,4.606675,-4.921552,-0.029809,0.227679,-0.069301,0.680938,188.495749,0
0.091667,65.403310,81.923502,-198.348864,-0.860802,2.269643,-5.813890,3.397432,-1.749528,5.823380,-3.444476,-0.037115,0.197760,-0.061832,-1.015562,188.495749,0
0.092708,21.870793,152.524305,-160.013637,-0.182202,4.229397,-5.390998,0.980064,-3.660918,5.537333,-1.126077,-0.106522,0.180645,-0.050629,-1.660232,188.495752,0
0.093750,-26.312149,205.776930,-95.727652,1.084518,5.756016,-4.194708,-1.754658,-5.156948,4.348830,1.550171,-0.154011,0.184565,-0.020755,-2.078702,188.571221,0
0.094792,-100.095115,181.276857,-48.479546,1.944078,6.377315,-2.404083,-4.148518,-5.903125,2.636579,3.925674,-0.223418,0.182736,-0.043161,0.002338,188.495736,0
0.095833,-175.965101,132.747865,-4.542992,2.781018,5.976134,-0.442015,-5.566812,-5.542902,0.682599,5.448433,-0.256295,0.194560,-0.035692,1.461328,188.495861,0
0.096875,-192.797372,78.383797,54.018561,3.912018,4.389159,2.003903,-6.385661,-3.966005,-1.779013,6.213619,-0.267254,0.204358,-0.035692,1.336918,188.495653,0
0.097917,-170.429961,31.195786,140.919129,5.574588,2.812836,3.878344,-6.514953,-2.322945,-3.700763,6.453453,-0.245336,0.218403,-0.028224,2.207788,188.571075,0
0.098958,-119.808381,-14.530435,190.013826,6.502008,0.398647,4.811755,-4.920352,-0.021925,-4.659623,4.953536,-0.212459,0.214745,-0.058098,4.164418,188.495707,0
0.100000,-65.477804,-81.265349,198.249622,6.671658,-2.178855,5.954708,-3.466797,2.635642,-5.848127,3.453619,-0.194194,0.185806,-0.046895,5.906158,188.495633,0
0.101042,-21.967972,-152.083608,160.148296,5.959128,-4.081805,5.569914,-1.037675,4.561735,-5.513734,1.131413,-0.164970,0.192600,-0.024490,6.607378,188.495617,0
0.102083,26.010805,-205.481204,96.022349,4.782888,-5.626176,4.339335,1.685293,5.998954,-4.309116,-1.483925,-0.117481,0.197695,-0.035692,6.765718,188.571132,0
0.103125,99.544236,-181.029454,49.488258,3.889398,-6.219072,2.594428,3.985123,6.734104,-2.669384,-3.832779,-0.044421,0.188942,-0.046895,5.035288,188.495763,0
0.104167,175.062604,-132.814567,4.813068,3.041148,-5.839192,0.678078,5.454350,6.337123,-0.707346,-5.405027,-0.015197,0.197303,-0.028224,3.417958,188.495669,0
0.105208,192.484685,-78.293447,-53.453030,1.898838,-4.245117,-1.904994,6.237937,4.756550,1.746209,-6.120724,0.010374,0.201353,-0.039427,3.417958,188.495700,0
0.106250,170.060562,-30.924222,-140.476705,0.270198,-2.594238,-3.684189,6.359393,3.106138,3.663929,-6.299648,-0.004238,0.206971,-0.043161,2.569708,188.495763,0
0.107292,119.881340,14.862404,-189.891478,-0.679842,-0.219102,-4.590931,4.800054,0.808795,4.614732,-4.894903,-0.033462,0.230619,-0.028224,0.647008,188.495640,0
0.108333,65.199145,81.186567,-198.164205,-0.838182,2.305146,-5.718644,3.322991,-1.789961,5.783092,-3.387373,-0.066339,0.197173,-0.024490,-0.947702,188.495633,0
0.109375,21.734683,151.980665,-160.481440,-0.103032,4.225846,-5.314801,0.925212,-3.701351,5.472872,-1.068973,-0.132093,0.181756,-0.013287,-1.558442,188.495794,0
0.110417,-25.847107,205.136642,-95.789205,1.050588,5.709863,-4.099462,-1.750740,-5.112839,4.296455,1.584433,-0.143052,0.197956,-0.031958,-2.067392,188.495718,0
0.111458,-99.562018,181.723850,-49.218182,1.932768,6.270807,-2.362175,-4.046652,-5.833286,2.592262,3.860957,-0.201500,0.183650,-0.024490,0.092818,188.495888,0
0.112500,-174.740111,132.989483,-4.616856,2.803638,5.933530,-0.453444,-5.523715,-5.451008,0.646339,5.376102,-0.263601,0.194755,-0.039427,1.529188,188.495740,0
0.113542,-193.114962,77.924723,53.427652,3.934638,4.279101,2.045811,-6.319056,-3.892490,-1.742754,6.160322,-0.267254,0.197434,-0.028224,1.370848,188.495792,0
0.114583,-170.191768,31.268272,140.082008,5.563278,2.716978,3.870725,-6.444430,-2.260457,-3.688676,6.335439,-0.256295,0.208735,-0.069301,2.207788,188.495674,0
0.115625,-120.182683,-14.276736,189.718372,6.502008,0.352493,4.773657,-4.798896,-0.010898,-4.631422,4.877398,-0.252642,0.228659,-0.020755,4.107868,188.495702,0
0.116667,-65.477804,-80.419686,198.064963,6.649038,-2.214358,5.908990,-3.345341,2.672400,-5.791723,3.369868,-0.208806,0.195278,-0.061832,5.872228,188.495796,0
0.117708,-21.661724,-151.660777,160.800758,5.959128,-4.081805,5.512766,-0.994577,4.539681,-5.505677,1.116185,-0.164970,0.198152,-0.054364,6.471658,188.495799,0
0.118750,25.568448,-204.695945,96.083902,4.737648,-5.569371,4.255519,1.720554,5.965872,-4.224510,-1.590518,-0.121134,0.192861,-0.050629,6.709168,188.495796,0
0.119792,99.294701,-181.814713,49.205114,3.878088,-6.144516,2.522041,3.961615,6.697346,-2.621038,-3.787097,-0.044421,0.183454,-0.020755,5.069218,188.420405,0
0.120833,174.189232,-132.802486,4.776136,3.075078,-5.764636,0.605691,5.391663,6.259932,-0.634827,-5.328890,-0.040768,0.193841,-0.046895,3.564988,188.495727,0
0.121875,193.006440,-78.208880,-53.145265,1.910148,-4.163461,-1.813558,6.190922,4.752874,1.778439,-6.071234,0.006721,0.198348,-0.017021,3.440578,188.495803,0
0.122917,169.879082,-30.743009,-139.762690,0.247578,-2.555185,-3.676570,6.308460,3.025272,3.631699,-6.234931,-0.022503,0.202725,-0.013287,2.558398,188.420345,0
0.123958,120.244300,14.983213,-189.645266,-0.657222,-0.201350,-4.598551,4.733449,0.827173,4.634876,-4.795924,-0.037115,0.211283,-0.035692,0.680938,188.420350,0
0.125000,65.221830,80.679169,-197.942614,-0.872112,2.308696,-5.718644,3.264222,-1.764231,5.738774,-3.341690,-0.099216,0.196715,-0.054364,-0.981632,188.495676,0
0.126042,21.371723,151.714885,-160.998485,-0.159582,4.218746,-5.318611,0.878197,-3.727081,5.432584,-1.065166,-0.128440,0.202333,-0.031958,-1.648922,188.420249,0
0.127083,-25.745024,204.496354,-95.838447,1.073208,5.674360,-4.088032,-1.801673,-5.079757,4.211850,1.618695,-0.154011,0.178947,-0.046895,-2.022152,188.420226,0
0.128125,-99.267113,182.098358,-48.553409,1.966698,6.231754,-2.305027,-4.140682,-5.811231,2.543916,3.906640,-0.219765,0.178163,-0.058098,-0.020282,188.495716,0
