1-Time,2-VGERA,3-VGERB,4-VGERC,5-VN,6-IGERAN,7-IGERBN,8-IGERCN,9-IGERAT,10-IGERBT,11-IGERCT,12-IN,13-IFD,14-IFAULT,15-VFAULT,16-Speed (rad/s),17-Active Power,18-Reactive Power,19-FAULT 
0.000000,75.384710,91.672792,-196.292993,-0.838182,-2.193057,-2.600916,4.479706,2.473909,2.544428,-4.324238,-0.059033,0.375118,-0.087972,-6.738421,188.495776,1212.402091,1.762706,0
0.001042,12.819477,146.616743,-175.155682,-0.408402,-0.609632,-3.470036,3.714775,0.970528,3.400554,-3.634016,-0.077298,0.354018,-0.073035,13.653508,188.495785,1211.912562,2.641340,0
0.002083,-49.019835,187.764302,-125.236175,0.552948,1.254264,-4.287564,2.614021,-0.918808,4.323826,-2.612914,-0.066339,0.376294,-0.058098,35.538358,188.495613,1212.148896,2.764479,0
0.003125,-103.441153,190.953661,-50.129167,1.921458,2.809285,-4.228035,1.005800,-2.532462,4.315433,-1.075924,-0.106522,0.392233,-0.069301,54.844527,188.495685,1212.414593,2.698758,0
0.004167,-161.333275,162.599779,15.104735,3.154248,3.948925,-3.628779,-0.643465,-3.668269,3.748879,0.550012,-0.161317,0.391057,-0.058098,71.685117,188.495662,1213.355632,2.260344,0
0.005208,-178.868781,104.116123,75.143561,4.319178,4.396260,-2.211995,-2.300193,-4.146117,2.431118,2.140370,-0.168623,0.391057,-0.080503,71.051757,188.420316,1213.304505,2.034437,0
0.006250,-185.776364,27.486949,132.867993,5.393628,4.424662,-0.819022,-3.580053,-4.171847,0.928702,3.431868,-0.201500,0.396348,-0.058098,63.700257,188.495645,1213.547253,1.834013,0
0.007292,-149.627815,-40.154033,168.421023,6.106158,3.583246,0.796192,-4.184535,-3.388912,-0.619878,4.001123,-0.212459,0.402162,-0.043161,41.589208,188.495781,1213.426912,1.214976,0
0.008333,-74.960134,-91.389147,196.587690,6.592488,2.273193,2.677300,-4.609911,-2.076669,-2.533570,4.488548,-0.205153,0.388640,-0.069301,11.301028,188.495738,1213.493280,1.143510,0
0.009375,-12.678464,-146.465988,174.822538,6.219258,0.757225,3.605949,-3.863637,-0.540206,-3.490416,3.780537,-0.234377,0.392952,-0.065566,-11.680891,188.420283,1213.439137,0.665628,0
0.010417,48.865944,-187.746437,125.370834,5.303148,-1.131523,4.431414,-2.762883,1.341778,-4.287787,2.748761,-0.194194,0.393343,-0.065566,-29.403661,188.495644,1214.033891,0.169758,0
0.011458,103.343974,-190.247184,50.448485,3.912018,-2.679445,4.312357,-1.143469,2.914999,-4.296181,1.233119,-0.168623,0.395565,-0.080503,-50.112270,188.495693,1213.743313,0.341995,0
0.012500,161.122671,-162.485267,-15.031629,2.633988,-3.819084,3.693258,0.479677,4.036103,-3.733824,-0.399933,-0.113828,0.390273,-0.050629,-66.534390,188.495689,1214.070688,-0.244586,0
0.013542,178.170450,-103.445889,-75.144318,1.491678,-4.241567,2.328065,2.136405,4.510275,-2.395079,-1.926249,-0.110175,0.388705,-0.050629,-65.245050,188.420426,1213.437911,-0.352641,0
0.014583,185.236827,-26.720068,-132.708713,0.439848,-4.287721,0.943029,3.457310,4.524978,-0.989187,-3.260442,-0.055380,0.394323,-0.050629,-59.182890,188.495761,1213.153493,0.047758,0
0.015625,149.258416,41.005480,-168.200190,-0.272682,-3.442755,-0.656310,3.998359,3.782476,0.588770,-3.822582,-0.069992,0.384133,-0.061832,-35.092591,188.420193,1212.394903,0.599717,0
0.016667,74.738188,91.962733,-196.477652,-0.860802,-2.185956,-2.577105,4.483437,2.415097,2.502461,-4.281544,-0.033462,0.404841,-0.065566,-5.392531,188.495667,1211.305666,0.612123,0
0.017708,12.785450,146.556339,-174.860228,-0.431022,-0.584781,-3.426382,3.662536,0.933770,3.434127,-3.609111,-0.062686,0.392560,-0.050629,15.304768,188.420341,1211.240653,-0.113460,0
0.018750,-48.827013,187.957597,-125.113069,0.473778,1.211660,-4.259784,2.576707,-0.959241,4.248286,-2.545315,-0.088257,0.398374,-0.076769,35.753248,188.495430,1209.996012,-0.976958,0
0.019792,-103.781428,190.530829,-50.264583,1.921458,2.780883,-4.140727,0.998338,-2.532462,4.252482,-1.051019,-0.095563,0.395499,-0.039427,55.036797,188.495635,1209.128688,-1.327122,0
0.020833,-161.458043,162.406485,15.449432,3.131628,3.927623,-3.585125,-0.621077,-3.646215,3.656552,0.521549,-0.161317,0.389359,-0.043161,73.381617,188.495712,1207.981366,-1.332233,0
0.021875,-178.641931,103.705372,75.500568,4.285248,4.325254,-2.184215,-2.270343,-4.102008,2.363971,2.111907,-0.190541,0.388901,-0.043161,70.972587,188.420195,1206.814942,-1.464556,0
0.022917,-185.549514,26.484234,133.077273,5.427558,4.392710,-0.811085,-3.535277,-4.127738,0.945488,3.392732,-0.248989,0.390992,-0.035692,63.666327,188.495653,1205.956247,-0.793495,0
0.023958,-149.423650,-40.927211,168.187122,6.049608,3.551294,0.776349,-4.094982,-3.374209,-0.598895,3.961987,-0.223418,0.373942,-0.073035,41.849338,188.495825,1205.281063,-0.283146,0
0.025000,-74.506434,-91.642846,196.476895,6.660348,2.262543,2.673332,-4.583792,-2.010506,-2.508390,4.463643,-0.216112,0.359636,-0.050629,11.074828,188.495682,1204.411401,-0.544540,0
0.026042,-12.939341,-146.526393,174.797917,6.287118,0.778526,3.574200,-3.841249,-0.547557,-3.452646,3.752074,-0.216112,0.378188,-0.058098,-10.176661,188.420274,1203.773440,-0.415773,0
0.027083,48.741176,-187.746437,125.210796,5.325768,-1.088920,4.348074,-2.785272,1.286642,-4.291984,2.730972,-0.227071,0.396610,-0.061832,-30.828721,188.495700,1203.471800,0.022049,0
0.028125,103.536796,-190.331750,50.436174,3.889398,-2.636841,4.324263,-1.113618,2.900296,-4.262607,1.197540,-0.132093,0.395238,-0.084238,-50.768250,188.495707,1202.897176,-0.270445,0
0.029167,161.213411,-162.243649,-15.388636,2.633988,-3.811983,3.725006,0.509528,4.021400,-3.725431,-0.360797,-0.121134,0.390535,-0.054364,-67.936830,188.495749,1202.619578,0.352345,0
0.030208,178.261190,-103.047219,-75.525947,1.480368,-4.227366,2.316159,2.158794,4.536005,-2.424456,-1.972501,-0.102869,0.388575,-0.058098,-66.636180,188.420235,1203.348876,0.300647,0
0.031250,185.089375,-25.838162,-132.930303,0.428538,-4.287721,0.895406,3.438653,4.528654,-0.959810,-3.249768,-0.069992,0.391645,-0.087972,-59.771010,188.495801,1203.181220,0.337980,0
0.032292,149.065593,41.343746,-168.347917,-0.261372,-3.464056,-0.648373,3.994628,3.778801,0.567786,-3.840371,-0.033462,0.398243,-0.073035,-38.157601,188.495720,1203.307943,0.617635,0
0.033333,74.261803,92.131866,-196.502273,-0.849492,-2.185956,-2.569167,4.490900,2.440828,2.523445,-4.313565,-0.069992,0.411439,-0.046895,-6.806281,188.495743,1203.919504,0.842242,0
0.034375,13.103040,147.039575,-174.724811,-0.363162,-0.606082,-3.474005,3.681193,0.919067,3.442521,-3.619784,-0.113828,0.393409,-0.065566,13.529098,188.420273,1204.183417,0.679733,0
0.035417,-48.736273,187.957597,-125.346970,0.496398,1.232962,-4.279627,2.628946,-0.951890,4.252482,-2.584451,-0.088257,0.396414,-0.009553,35.730628,188.495589,1204.544282,1.017329,0
0.036458,-103.985593,190.470425,-49.993750,1.955388,2.834137,-4.192318,0.994606,-2.543490,4.294449,-1.022556,-0.132093,0.394454,-0.065566,55.070727,188.495694,1204.993929,0.817053,0
0.037500,-161.458043,162.454808,16.249621,3.165558,3.970226,-3.608936,-0.632271,-3.682972,3.732092,0.528665,-0.168623,0.389620,-0.039427,71.594637,188.495682,1206.138578,1.224668,0
0.038542,-178.675959,102.702657,75.808334,4.330488,4.392710,-2.204058,-2.371090,-4.138765,2.338790,2.172390,-0.146705,0.387007,-0.080503,71.085687,188.344905,1206.587801,0.596499,0
0.039583,-185.742336,25.952674,133.151137,5.382318,4.424662,-0.799179,-3.591247,-4.120386,0.911915,3.417637,-0.205153,0.365254,-0.043161,63.440127,188.495711,1206.681292,0.134432,0
0.040625,-148.845182,-41.132586,168.630304,6.083538,3.533542,0.764443,-4.143490,-3.374209,-0.598895,4.061607,-0.223418,0.379625,-0.058098,41.419558,188.495803,1207.770720,-0.064137,0
0.041667,-74.347639,-91.727412,196.661554,6.615108,2.276744,2.713018,-4.639762,-2.061966,-2.596520,4.467201,-0.238030,0.390339,-0.065566,11.515918,188.495821,1208.701018,-0.356014,0
0.042708,-13.472439,-146.985467,174.342425,6.241878,0.732373,3.613886,-3.844981,-0.547557,-3.473629,3.791210,-0.223418,0.392625,-0.073035,-11.579101,188.495720,1209.333133,-0.312030,0
0.043750,48.729834,-187.939731,125.333902,5.257908,-1.110222,4.423477,-2.766615,1.327075,-4.308771,2.770108,-0.230724,0.403142,-0.054364,-29.584621,188.495761,1210.029926,-0.470140,0
0.044792,103.877071,-190.029728,49.943750,3.866778,-2.661693,4.256797,-1.083767,2.900296,-4.266804,1.229561,-0.143052,0.395173,-0.087972,-50.361090,188.495629,1210.140376,0.107715,0
0.045833,161.236096,-162.364458,-16.385796,2.611368,-3.875888,3.697226,0.516991,4.021400,-3.691857,-0.396375,-0.132093,0.389293,-0.065566,-66.364740,188.495747,1209.898944,-0.273730,0
0.046875,177.977627,-102.141151,-75.858334,1.480368,-4.241567,2.332034,2.151331,4.524978,-2.390882,-1.972501,-0.069992,0.391122,-0.046895,-65.312910,188.344925,1209.378296,-0.317945,0
0.047917,185.395622,-25.427411,-132.967235,0.428538,-4.277070,0.923186,3.401340,4.554384,-0.980794,-3.296020,-0.073645,0.400268,-0.043161,-59.001930,188.495723,1210.177246,-0.258710,0
0.048958,148.645921,41.585364,-168.323296,-0.261372,-3.464056,-0.652341,3.979702,3.727340,0.622343,-3.858160,-0.069992,0.420388,-0.058098,-35.058661,188.420359,1209.950989,-1.188444,0
0.050000,74.522680,92.228513,-196.416099,-0.781632,-2.196607,-2.545356,4.453586,2.451855,2.502461,-4.349143,-0.055380,0.403534,-0.091706,-5.686591,188.495662,1210.317505,-0.887212,0
0.051042,13.602110,147.039575,-174.392425,-0.408402,-0.623834,-3.458130,3.718506,0.911716,3.417341,-3.637574,-0.073645,0.401378,-0.065566,15.293458,188.420341,1210.192499,-0.810171,0
0.052083,-48.792985,188.114648,-124.965341,0.507708,1.225861,-4.263753,2.584170,-0.907781,4.286056,-2.573777,-0.066339,0.400268,-0.065566,35.934208,188.495671,1210.335903,-0.394791,0
0.053125,-104.235128,190.361697,-49.242803,1.955388,2.759582,-4.140727,0.953561,-2.517759,4.231499,-1.047461,-0.106522,0.392560,-0.087972,55.104657,188.495741,1209.480718,0.219437,0
0.054167,-161.503413,162.189028,16.975947,3.199488,3.931173,-3.608936,-0.636003,-3.587403,3.635569,0.550012,-0.146705,0.387791,-0.050629,73.313757,188.495781,1207.570622,0.106540,0
0.055208,-178.415081,102.400635,76.177652,4.341798,4.328805,-2.208026,-2.303925,-4.076277,2.384954,2.097675,-0.183235,0.385504,-0.043161,70.972587,188.420327,1206.713835,1.556842,0
0.056250,-185.481459,25.566085,133.298864,5.404938,4.374958,-0.819022,-3.561397,-4.076277,0.949685,3.389174,-0.190541,0.372635,-0.084238,63.632397,188.495671,1206.009756,2.213451,0
0.057292,-149.174115,-41.192991,168.445644,6.083538,3.572595,0.760474,-4.087520,-3.385236,-0.577911,3.954871,-0.234377,0.387987,-0.073035,41.973748,188.495734,1204.914313,2.887541,0
0.058333,-74.937449,-91.969030,196.341478,6.649038,2.315797,2.665395,-4.602449,-2.091372,-2.483210,4.452970,-0.252642,0.390926,-0.091706,11.425438,188.495698,1204.209851,4.200360,0
0.059375,-13.801371,-147.033791,174.293182,6.185328,0.732373,3.514672,-3.833787,-0.613721,-3.398089,3.773421,-0.194194,0.402489,-0.058098,-10.278451,188.495658,1203.383333,5.275772,0
0.060417,49.002054,-188.012217,124.853788,5.269218,-1.110222,4.356011,-2.744227,1.282966,-4.275197,2.755877,-0.205153,0.399288,-0.054364,-30.975751,188.495691,1202.704465,5.888527,0
0.061458,103.979154,-190.307589,49.143561,3.844158,-2.654593,4.236954,-1.143469,2.867215,-4.203854,1.226003,-0.190541,0.389685,-0.054364,-50.836110,188.495727,1201.762722,6.214832,0
0.062500,161.326836,-161.844979,-17.075189,2.622678,-3.751629,3.740881,0.479677,3.988318,-3.670874,-0.375028,-0.161317,0.388967,-0.076769,-67.914210,188.495716,1201.135850,6.777600,0
0.063542,178.079710,-101.778724,-76.227652,1.491678,-4.241567,2.339971,2.151331,4.466166,-2.403472,-1.954712,-0.102869,0.373746,-0.046895,-66.579630,188.495700,1200.480055,7.328208,0
0.064583,184.930580,-25.004579,-133.336553,0.417228,-4.280620,0.943029,3.356563,4.524978,-0.980794,-3.185727,-0.062686,0.366626,-0.069301,-59.680530,188.495749,1199.123884,8.287773,0
0.065625,148.702633,41.331665,-168.483334,-0.250062,-3.460506,-0.608687,3.975971,3.712637,0.567786,-3.808350,-0.022503,0.396610,-0.043161,-38.248081,188.495790,1198.363200,8.933258,0
0.066667,74.999065,92.337241,-196.194508,-0.838182,-2.178855,-2.549325,4.401347,2.440828,2.531838,-4.281544,-0.088257,0.398765,-0.061832,-7.032481,188.495741,1197.733314,8.407125,0
0.067708,13.715535,147.353678,-174.072349,-0.431022,-0.591881,-3.422413,3.658804,0.919067,3.421537,-3.616227,-0.073645,0.404449,-0.087972,13.743988,188.495863,1197.559585,8.412217,0
0.068750,-49.224000,188.018001,-124.546781,0.519018,1.243613,-4.283596,2.528199,-0.911457,4.235696,-2.523968,-0.095563,0.394062,-0.050629,35.888968,188.495579,1196.543403,8.249327,0
0.069792,-104.405265,190.373777,-48.578030,1.955388,2.787984,-4.128821,0.968487,-2.543490,4.252482,-1.058135,-0.121134,0.389163,-0.039427,55.093347,188.495705,1196.990248,8.391244,0
0.070833,-161.469385,162.068219,17.665341,3.199488,3.945375,-3.577188,-0.628540,-3.602106,3.660749,0.532223,-0.168623,0.384982,-0.054364,71.492847,188.495676,1197.353578,8.873947,0
0.071875,-178.483136,101.663699,76.473106,4.330488,4.339455,-2.196121,-2.307656,-4.094656,2.363971,2.119022,-0.190541,0.386746,-0.046895,71.051757,188.495687,1197.475929,8.657752,0
0.072917,-185.458774,25.650651,133.582008,5.416248,4.389159,-0.803148,-3.553934,-4.116711,0.916112,3.403405,-0.197847,0.402162,-0.046895,63.349647,188.495803,1198.022155,8.318682,0
0.073958,-148.799812,-40.842644,168.925758,6.083538,3.540643,0.780317,-4.132296,-3.374209,-0.624075,3.951314,-0.259948,0.407715,-0.043161,41.600518,188.495731,1198.011703,7.727527,0
0.075000,-75.198326,-92.101920,196.476895,6.603798,2.276744,2.693175,-4.572598,-2.091372,-2.533570,4.460086,-0.194194,0.397982,-0.065566,11.606398,188.495682,1198.512955,7.206924,0
0.076042,-13.801371,-147.263328,173.886932,6.196638,0.700420,3.582137,-3.811398,-0.551233,-3.410679,3.744958,-0.252642,0.407911,-0.084238,-11.884471,188.495694,1198.218034,6.358158,0
0.077083,49.467096,-187.927651,124.632197,5.291838,-1.110222,4.399666,-2.695719,1.312372,-4.250017,2.688278,-0.183235,0.394193,-0.013287,-29.720341,188.495788,1197.475630,5.669503,0
0.078125,104.240031,-189.957242,48.700379,3.855468,-2.633291,4.240922,-1.102424,2.852512,-4.199657,1.147730,-0.175929,0.388183,-0.076769,-50.327160,188.495740,1196.945336,5.114946,0
0.079167,161.213411,-161.893302,-17.739962,2.622678,-3.787131,3.689289,0.475946,3.977291,-3.683464,-0.382144,-0.102869,0.385374,-0.039427,-66.308190,188.495644,1196.966565,5.324866,0
0.080208,177.898230,-101.428378,-76.547728,1.536918,-4.206064,2.328065,2.140137,4.469842,-2.357309,-1.944039,-0.110175,0.387530,-0.050629,-65.233740,188.495673,1196.589978,5.126872,0
0.081250,184.987292,-25.354925,-133.693561,0.405918,-4.252218,0.958904,3.349101,4.477193,-0.955613,-3.185727,-0.044421,0.390730,-0.073035,-58.854900,188.495685,1196.118528,4.647482,0
0.082292,148.793373,41.247098,-168.655682,-0.272682,-3.428553,-0.632499,3.934926,3.708961,0.513229,-3.797677,-0.048074,0.402750,-0.054364,-35.262241,188.495788,1195.904348,5.262679,0
0.083333,75.123833,92.675507,-196.145266,-0.792942,-2.164654,-2.509639,4.438661,2.437152,2.481478,-4.238850,-0.015197,0.394911,-0.043161,-5.528251,188.495644,1195.115383,5.732923,0
0.084375,13.227807,147.402002,-174.023107,-0.419712,-0.602532,-3.438287,3.628953,0.911716,3.345997,-3.580648,-0.048074,0.405037,-0.043161,15.689308,188.571089,1193.980113,6.105570,0
0.085417,-49.745755,188.018001,-124.189773,0.519018,1.204560,-4.196287,2.550587,-0.893078,4.193729,-2.566662,-0.110175,0.396022,-0.076769,36.126478,188.495725,1193.744184,6.988950,0
0.086458,-104.688828,190.265049,-48.134849,1.978008,2.752481,-4.108978,0.975949,-2.481002,4.218909,-1.051019,-0.121134,0.389816,-0.080503,55.104657,188.495783,1192.870637,7.568281,0
0.087500,-161.424015,161.802440,17.923864,3.222108,3.888570,-3.589093,-0.606152,-3.591078,3.639765,0.525107,-0.143052,0.388509,-0.050629,73.245897,188.495830,1192.487490,7.674111,0
0.088542,-178.301656,102.001965,76.867046,4.353108,4.307503,-2.215963,-2.214372,-4.061574,2.376561,2.072770,-0.175929,0.388183,-0.039427,70.882107,188.571132,1192.009252,8.328516,0
0.089583,-185.220581,26.000998,133.975947,5.427558,4.360757,-0.822991,-3.471844,-4.098332,0.953882,3.353595,-0.197847,0.386615,-0.046895,63.541917,188.495606,1191.496852,9.073932,0
0.090625,-149.219485,-40.890968,168.704167,6.072228,3.526442,0.760474,-4.046475,-3.370533,-0.535944,3.940640,-0.201500,0.400268,-0.054364,42.052918,188.495736,1191.186276,10.027095,0
0.091667,-75.311751,-92.512671,196.292235,6.626418,2.255442,2.605866,-4.561404,-2.095048,-2.487406,4.381813,-0.212459,0.401444,-0.050629,11.108758,188.495712,1190.024386,10.525475,0
0.092708,-12.848601,-147.287490,173.923864,6.207948,0.743024,3.498797,-3.766622,-0.573288,-3.364515,3.723611,-0.186888,0.409348,-0.054364,-10.708231,188.646462,1189.354212,11.224333,0
0.093750,50.102276,-188.012217,124.201326,5.280528,-1.088920,4.308388,-2.680793,1.242533,-4.216444,2.695394,-0.201500,0.394389,-0.043161,-31.201951,188.495799,1188.791957,12.389486,0
0.094792,104.353456,-190.186780,48.232576,3.832848,-2.615540,4.193299,-1.128543,2.819430,-4.195460,1.197540,-0.168623,0.388248,-0.065566,-50.847420,188.495756,1188.737590,13.354336,0
0.095833,161.304151,-161.579199,-17.752273,2.588748,-3.758729,3.705164,0.438632,3.944209,-3.662480,-0.332334,-0.135746,0.386746,-0.031958,-67.823730,188.495680,1188.114628,14.037331,0
0.096875,177.932257,-101.790805,-76.867803,1.491678,-4.127958,2.371719,2.095360,4.451463,-2.403472,-1.879997,-0.088257,0.389359,-0.069301,-66.455220,188.646531,1187.982387,15.172451,0
0.097917,184.760442,-25.801919,-133.989016,0.383298,-4.248668,0.966841,3.356563,4.473517,-1.005974,-3.171496,-0.066339,0.408630,-0.076769,-59.646600,188.495790,1187.959826,15.794641,0
0.098958,148.906798,41.126289,-168.778788,-0.261372,-3.410802,-0.612656,3.942388,3.719989,0.513229,-3.765656,-0.015197,0.405690,-0.065566,-38.202841,188.495611,1187.755177,15.952100,0
0.100000,74.806243,92.989610,-196.145266,-0.804252,-2.196607,-2.501702,4.408810,2.459206,2.418528,-4.267312,-0.051727,0.406670,-0.028224,-6.580081,188.495604,1187.796573,16.953693,0
0.101042,12.411147,147.679863,-173.887690,-0.408402,-0.563479,-3.426382,3.658804,0.922743,3.408947,-3.566417,-0.055380,0.401313,-0.080503,14.185078,188.646485,1188.268224,16.876464,0
0.102083,-50.483018,188.078406,-123.955872,0.530328,1.247163,-4.224067,2.580438,-0.904105,4.227302,-2.523968,-0.095563,0.377274,-0.065566,36.137788,188.495680,1188.387217,16.552598,0
0.103125,-104.938363,190.337535,-47.691667,1.978008,2.770232,-4.108978,1.009532,-2.499381,4.223106,-1.036788,-0.113828,0.389424,-0.076769,55.217757,188.495734,1188.541101,16.405407,0
0.104167,-161.526098,161.971572,18.059280,3.210798,3.913422,-3.585125,-0.576301,-3.605781,3.673339,0.521549,-0.139399,0.387922,-0.046895,71.413677,188.495703,1189.078914,16.610430,0
0.105208,-178.347026,101.929479,77.002462,4.364418,4.321704,-2.200089,-2.303925,-4.090980,2.359774,2.047866,-0.157664,0.391906,-0.050629,70.972587,188.571096,1189.192219,16.720696,0
0.106250,-185.345349,26.556719,134.296023,5.416248,4.371408,-0.838865,-3.516620,-4.127738,0.953882,3.360711,-0.183235,0.391318,-0.073035,63.270477,188.493686,1189.707686,16.661001,0
0.107292,-148.731757,-40.927211,169.159660,6.117468,3.522891,0.812066,-4.109908,-3.363182,-0.590501,3.944198,-0.212459,0.406931,-0.054364,41.351698,188.495115,1189.812490,16.090692,0
0.108333,-74.415694,-92.718046,196.476895,6.660348,2.276744,2.685238,-4.561404,-2.069318,-2.483210,4.413834,-0.219765,0.397067,-0.005818,10.984348,188.494954,1189.966706,16.150988,0
0.109375,-12.156709,-147.589512,173.554546,6.207948,0.707521,3.566263,-3.762890,-0.554909,-3.427465,3.716496,-0.234377,0.403208,-0.073035,-12.348181,188.645803,1190.435581,15.776309,0
0.110417,50.533292,-188.072621,123.905872,5.257908,-1.085370,4.328231,-2.714376,1.290318,-4.224837,2.723856,-0.161317,0.405102,-0.061832,-29.957851,188.495016,1190.901140,15.663340,0
0.111458,104.773129,-189.824353,47.937121,3.821538,-2.619090,4.209174,-1.158394,2.878242,-4.187067,1.193982,-0.179582,0.388117,-0.084238,-50.609910,188.495074,1191.165113,15.268190,0
