1-Time,2-VGERA,3-VGERB,4-VGERC,5-VN,6-IGERAN,7-IGERBN,8-IGERCN,9-IGERAT,10-IGERBT,11-IGERCT,12-IN,13-IFD,14-IFAULT,15-VFAULT,16-Speed (rad/s),17-FAULT 
0.000000,-151.261135,177.737152,-6.020265,2.792328,0.593912,-4.716656,4.090907,-0.569612,4.759770,-4.011704,-0.059033,0.570178,-0.002084,30.075628,188.495761,0
0.001042,-165.892960,137.676874,70.502462,4.251318,2.429406,-4.709036,2.128020,-2.315593,4.820202,-2.153938,-0.066339,0.552214,-0.024490,35.911588,188.420314,0
0.002083,-186.593024,55.466322,123.856629,5.257908,4.232947,-4.259475,-0.132631,-4.219632,4.352859,0.099744,-0.113828,0.561947,-0.058098,40.876678,188.495741,0
0.003125,-159.336995,-18.070140,163.718372,6.060918,4.964304,-3.284156,-1.809509,-4.918024,3.434286,1.710061,-0.186888,0.560706,-0.020755,41.249908,188.269527,0
0.004167,-110.439476,-87.631986,179.020455,6.309738,5.088564,-1.184934,-3.991800,-5.031972,1.383614,3.872378,-0.223418,0.544636,-0.054364,36.839008,188.495665,0
0.005208,-33.310472,-138.927504,181.753410,6.377598,4.506318,0.586642,-5.073152,-4.506340,-0.405184,5.029674,-0.194194,0.571811,-0.013287,22.927708,188.420334,0
0.006250,42.230581,-175.254782,151.235417,5.857338,3.324076,2.358218,-5.621663,-3.385236,-2.181896,5.562640,-0.230724,0.577560,-0.005818,3.655468,188.495689,0
0.007292,109.502952,-175.303106,93.744887,4.726338,1.314618,3.889774,-5.057480,-1.385628,-3.732994,5.121040,-0.252642,0.566912,-0.024490,-13.400011,188.269510,0
0.008333,150.914421,-177.683044,6.425758,3.075078,-0.503124,4.880333,-4.160272,0.455923,-4.687825,4.176929,-0.219765,0.572726,-0.054364,-25.671361,188.495698,0
0.009375,165.342082,-137.344906,-70.367803,1.729188,-2.324417,4.834614,-2.181713,2.279095,-4.824805,2.319164,-0.161317,0.553390,-0.031958,-30.659071,188.420247,0
0.010417,186.178255,-55.279325,-123.931250,0.586878,-4.110207,4.442201,0.035840,4.109618,-4.429980,0.137813,-0.132093,0.554304,-0.050629,-36.902191,188.495550,0
0.011458,159.126391,18.329624,-163.386743,-0.170892,-4.841564,3.447832,1.747980,4.844768,-3.495293,-1.491539,-0.080951,0.563319,-0.039427,-36.811711,188.344943,0
0.012500,109.922624,88.084763,-178.762690,-0.464952,-5.001327,1.363850,3.871502,5.021204,-1.468794,-3.691924,-0.044421,0.548752,-0.043161,-31.360291,188.495685,0
0.013542,33.372088,139.102421,-181.667993,-0.544122,-4.422631,-0.388677,4.988115,4.495572,0.275688,-4.792117,-0.000585,0.569133,-0.005818,-17.924011,188.420320,0
0.014583,-42.146280,175.538427,-151.026894,0.021378,-3.258140,-2.164063,5.556216,3.315656,2.112832,-5.397414,-0.029809,0.570636,-0.058098,3.214378,188.495642,0
0.015625,-109.758926,175.320971,-93.573296,1.174998,-1.273534,-3.710858,5.003787,1.378536,3.732420,-4.921552,-0.029809,0.566781,-0.017021,17.397118,188.269583,0
0.016667,-151.397245,177.773395,-6.340341,2.769708,0.547758,-4.693797,4.106579,-0.499773,4.707395,-4.034545,-0.040768,0.569656,-0.024490,29.283928,188.495785,0
0.017708,-165.495973,138.075544,70.330114,4.194768,2.386802,-4.697607,2.206378,-2.289863,4.767828,-2.249111,-0.095563,0.555349,-0.028224,35.809798,188.420358,0
0.018750,-186.309461,55.417999,124.078220,5.291838,4.225846,-4.263285,-0.097369,-4.127738,4.356887,0.065482,-0.113828,0.553259,-0.046895,40.412968,188.495734,0
0.019792,-159.597873,-17.804360,163.509091,6.038298,4.900399,-3.307015,-1.754658,-4.906997,3.470546,1.637730,-0.146705,0.562470,-0.009553,40.808818,188.269496,0
0.020833,-110.348736,-87.656147,178.934281,6.377598,5.028209,-1.226842,-3.940867,-5.028297,1.431960,3.826695,-0.183235,0.565671,-0.009553,36.940798,188.495703,0
0.021875,-33.548665,-138.722129,181.827273,6.445458,4.492117,0.525685,-5.037890,-4.495313,-0.376982,4.961150,-0.201500,0.572269,-0.039427,21.231208,188.420356,0
0.022917,41.844936,-175.508481,151.026137,5.857338,3.334727,2.312500,-5.590319,-3.363182,-2.141608,5.566446,-0.238030,0.572334,0.005384,3.361408,188.495723,0
0.023958,109.491609,-175.194378,93.941856,4.715028,1.367873,3.882154,-5.088823,-1.422386,-3.692705,5.094391,-0.252642,0.566716,-0.061832,-12.563071,188.269566,0
0.025000,150.925763,-177.586397,6.708902,3.109008,-0.488923,4.830805,-4.121092,0.444895,-4.703940,4.173123,-0.216112,0.572595,-0.039427,-25.060621,188.495781,0
0.026042,165.205972,-137.719414,-70.121591,1.672638,-2.296015,4.868903,-2.240482,2.260716,-4.812719,2.364847,-0.175929,0.555415,-0.043161,-30.749551,188.420206,0
0.027083,185.974090,-55.098111,-124.251326,0.564258,-4.135059,4.400293,-0.007257,4.094915,-4.417894,0.130199,-0.121134,0.553847,-0.028224,-36.856951,188.495653,0
0.028125,159.262501,18.136329,-163.792993,-0.170892,-4.816712,3.440213,1.677457,4.837417,-3.495293,-1.491539,-0.106522,0.566324,-0.039427,-35.782501,188.344974,0
0.029167,109.616377,88.217653,-179.033523,-0.464952,-4.983575,1.371469,3.875420,4.999150,-1.444621,-3.631014,-0.051727,0.556068,-0.031958,-30.319771,188.495647,0
0.030208,33.247321,138.957450,-181.544887,-0.578052,-4.390679,-0.419156,4.937182,4.447787,0.324033,-4.826379,-0.037115,0.569068,-0.020755,-18.263311,188.420254,0
0.031250,-41.964800,175.514266,-150.842235,0.043998,-3.258140,-2.175492,5.489611,3.315656,2.096716,-5.374572,-0.015197,0.567173,-0.031958,2.592328,188.495575,0
0.032292,-109.656843,175.671317,-92.896212,1.163688,-1.252233,-3.718478,4.976361,1.352806,3.704218,-4.906324,-0.051727,0.564103,-0.002084,17.917378,188.344921,0
0.033333,-151.408587,177.676747,-5.749432,2.758398,0.569060,-4.705227,4.067399,-0.543882,4.711424,-4.026931,-0.033462,0.573249,-0.039427,30.098248,188.495725,0
0.034375,-165.711480,137.894330,70.896402,4.228698,2.386802,-4.705227,2.128020,-2.293539,4.771856,-2.153938,-0.066339,0.551234,-0.043161,35.956828,188.420314,0
0.035417,-186.207379,55.430080,124.127462,5.269218,4.176143,-4.263285,-0.058190,-4.146117,4.320628,0.012185,-0.124787,0.552149,-0.020755,40.887988,188.495635,0
0.036458,-159.405050,-17.719794,163.866099,6.026988,4.896849,-3.310825,-1.817345,-4.918024,3.410114,1.702447,-0.164970,0.564299,-0.020755,41.215978,188.344929,0
0.037500,-110.223968,-87.668228,179.131251,6.354978,5.049511,-1.238272,-3.933031,-5.024621,1.403759,3.830502,-0.223418,0.569656,-0.039427,36.793768,188.423384,0
0.038542,-33.355842,-138.782533,181.408713,6.400218,4.460165,0.544734,-5.010465,-4.521043,-0.360867,4.934502,-0.234377,0.570440,-0.017021,22.848538,188.420021,0
0.039585,41.776881,-175.230620,150.804546,5.891268,3.292123,2.289641,-5.602073,-3.399939,-2.137579,5.532184,-0.252642,0.571093,-0.005818,3.802498,188.495607,0
0.040626,109.695774,-175.182297,93.018561,4.726338,1.325269,3.866915,-5.069234,-1.400331,-3.716878,5.067743,-0.208806,0.563384,-0.013287,-13.479181,188.420350,0
0.041667,150.948448,-177.598478,6.191856,3.018528,-0.478272,4.823185,-4.132846,0.426517,-4.732142,4.154088,-0.205153,0.570832,-0.035692,-25.660051,188.420329,0
0.042708,165.228657,-137.634847,-70.724811,1.627398,-2.292464,4.846044,-2.193467,2.242337,-4.784517,2.357233,-0.179582,0.552475,-0.054364,-30.647761,188.420350,0
0.043750,185.962747,-55.025626,-124.140531,0.620808,-4.078254,4.392673,0.004497,4.054482,-4.373577,0.160654,-0.139399,0.552279,0.016587,-36.856951,188.495785,0
0.044792,159.126391,18.015520,-163.780682,-0.159582,-4.788310,3.424973,1.650031,4.804335,-3.519466,-1.476311,-0.106522,0.563254,-0.013287,-36.766471,188.420287,0
0.045833,109.933967,88.072682,-179.058144,-0.487572,-4.990676,1.360040,3.808815,5.028556,-1.509082,-3.608173,-0.048074,0.530134,-0.054364,-31.315051,188.495770,0
0.046875,33.428801,138.921207,-181.409470,-0.487572,-4.387129,-0.331529,4.909756,4.458814,0.283745,-4.769276,-0.051727,0.568153,-0.002084,-17.890081,188.420329,0
0.047917,-41.488415,175.683398,-150.756061,0.077928,-3.258140,-2.129774,5.493529,3.286250,2.072544,-5.397414,-0.022503,0.568676,-0.031958,3.078658,188.495691,0
0.048958,-109.906378,175.369295,-92.945455,1.152378,-1.309037,-3.695619,4.948935,1.338103,3.627670,-4.913938,-0.022503,0.563515,-0.024490,17.431048,188.420327,0
0.050000,-151.351875,177.543857,-5.971023,2.814948,0.522906,-4.693797,4.043892,-0.466691,4.715453,-3.992669,-0.037115,0.565214,-0.065566,29.216068,188.495750,0
0.051042,-165.484630,138.196353,70.957955,4.251318,2.347749,-4.659508,2.155445,-2.256781,4.755741,-2.214849,-0.110175,0.551038,-0.024490,35.900278,188.420347,0
0.052083,-186.162009,55.248866,124.496781,5.235288,4.172592,-4.274715,-0.069944,-4.098332,4.316599,0.057868,-0.121134,0.552214,-0.028224,40.412968,188.495816,0
0.053125,-159.631900,-17.466095,163.853788,6.026988,4.861346,-3.314635,-1.719396,-4.837158,3.446373,1.637730,-0.135746,0.563580,-0.028224,40.763578,188.420339,0
0.054167,-110.269338,-87.619905,179.168182,6.321048,5.042410,-1.291609,-3.929113,-4.943754,1.440018,3.788626,-0.201500,0.541631,-0.017021,36.986038,188.495696,0
0.055208,-33.321815,-138.879180,181.531819,6.377598,4.421112,0.487586,-4.975203,-4.473258,-0.312521,4.930695,-0.205153,0.568153,-0.005818,21.163348,188.420376,0
0.056250,41.266469,-175.629290,150.853788,5.868648,3.316975,2.282021,-5.562894,-3.392588,-2.097291,5.520764,-0.234377,0.573510,-0.035692,3.474508,188.495673,0
0.057292,109.468924,-175.073569,93.326326,4.681098,1.374973,3.885964,-5.053562,-1.426062,-3.700763,5.052515,-0.230724,0.561817,-0.028224,-12.597001,188.420327,0
0.058333,151.118586,-177.393102,6.154924,3.075078,-0.517325,4.846044,-4.128928,0.496356,-4.711998,4.161702,-0.201500,0.569786,0.005384,-25.071931,188.495685,0
0.059375,165.239999,-137.888546,-70.761743,1.683948,-2.296015,4.826995,-2.220892,2.293798,-4.792575,2.399109,-0.168623,0.554304,-0.043161,-30.783481,188.420341,0
0.060417,185.849322,-54.747765,-124.288258,0.586878,-4.088905,4.411722,0.012333,4.094915,-4.397750,0.130199,-0.146705,0.550189,-0.031958,-36.868261,188.495665,0
0.061458,159.330556,17.773902,-163.965341,-0.227442,-4.820262,3.463072,1.681375,4.808011,-3.503351,-1.453470,-0.051727,0.564560,-0.046895,-35.748571,188.420251,0
0.062500,109.820542,88.338462,-179.107387,-0.431022,-4.969374,1.417187,3.871502,4.988122,-1.472823,-3.669083,-0.059033,0.545485,-0.039427,-30.308461,188.495636,0
0.063542,33.156581,139.066178,-181.507955,-0.498882,-4.369377,-0.369628,4.905838,4.396327,0.299860,-4.769276,-0.000585,0.571811,-0.046895,-18.218071,188.420330,0
0.064583,-41.397675,175.550508,-150.817614,0.010068,-3.233288,-2.209781,5.470021,3.278899,2.096716,-5.370765,-0.033462,0.571877,-0.046895,2.445298,188.495816,0
0.065625,-109.690871,175.695479,-92.526894,1.197618,-1.259333,-3.718478,4.937182,1.338103,3.659901,-4.932972,-0.022503,0.560510,-0.043161,17.939998,188.420253,0
0.066667,-151.363217,177.604262,-5.737121,2.814948,0.590362,-4.678558,4.059563,-0.540206,4.687251,-3.977442,-0.044421,0.571223,-0.024490,30.075628,188.420341,0
0.067708,-165.813563,138.015140,70.847159,4.206078,2.376152,-4.701417,2.131938,-2.319269,4.723511,-2.180587,-0.077298,0.554696,-0.005818,36.002068,188.420282,0
0.068750,-186.298119,55.019329,124.275190,5.269218,4.190344,-4.244236,-0.097369,-4.105683,4.316599,0.054061,-0.143052,0.549013,-0.054364,40.831438,188.495709,0
0.069792,-159.484448,-17.454014,164.026137,6.004368,4.882648,-3.249867,-1.754658,-4.888618,3.422200,1.694833,-0.135746,0.565279,-0.039427,41.204668,188.420468,0
0.070833,-110.360078,-87.619905,179.278978,6.321048,5.042410,-1.261131,-3.901688,-4.951106,1.395701,3.822888,-0.212459,0.541109,-0.039427,36.839008,188.420202,0
0.071875,-33.163020,-138.975828,181.408713,6.400218,4.438863,0.518065,-4.975203,-4.491637,-0.336694,4.926888,-0.186888,0.569460,-0.050629,22.837228,188.420381,0
0.072917,41.016934,-175.484319,150.964584,5.834718,3.327626,2.278211,-5.562894,-3.326424,-2.145636,5.543605,-0.197847,0.575470,-0.054364,3.938218,188.495776,0
0.073958,109.593692,-175.158135,92.920076,4.692408,1.328819,3.836436,-5.045726,-1.407683,-3.644359,5.044902,-0.245336,0.561490,-0.043161,-13.479181,188.495658,0
0.075000,151.118586,-177.405183,6.019508,3.097698,-0.425018,4.807946,-4.144600,0.430192,-4.703940,4.165509,-0.238030,0.570897,-0.017021,-25.671361,188.420350,0
0.076042,165.330739,-137.828142,-70.638637,1.695258,-2.303115,4.853664,-2.260072,2.201904,-4.780488,2.410530,-0.179582,0.553912,-0.020755,-30.715621,188.495776,0
0.077083,185.803952,-54.626956,-124.460606,0.575568,-4.071154,4.411722,-0.015093,4.058158,-4.421923,0.156847,-0.157664,0.552214,-0.005818,-36.868261,188.495759,0
0.078125,159.262501,17.943035,-163.989963,-0.170892,-4.816712,3.493551,1.622606,4.808011,-3.563783,-1.468697,-0.077298,0.566520,-0.031958,-36.755161,188.495727,0
0.079167,109.933967,88.133087,-179.156629,-0.408402,-4.983575,1.440046,3.816651,5.013853,-1.521169,-3.592945,-0.084604,0.545224,-0.054364,-31.315051,188.420352,0
0.080208,33.077183,138.981612,-181.483334,-0.521502,-4.362277,-0.339149,4.890166,4.462490,0.231370,-4.776890,-0.018850,0.568937,-0.031958,-17.867461,188.420318,0
0.081250,-41.000687,175.695479,-150.645266,0.043998,-3.251039,-2.125964,5.501365,3.315656,2.048371,-5.351731,-0.026156,0.578083,-0.002084,2.954248,188.495803,0
0.082292,-109.974433,175.296809,-92.785417,1.174998,-1.323238,-3.657520,4.960689,1.378536,3.631699,-4.906324,-0.037115,0.561882,-0.050629,17.487598,188.495765,0
0.083333,-151.374560,177.423048,-6.032576,2.792328,0.526457,-4.648079,4.043892,-0.463015,4.675165,-4.007897,-0.048074,0.571942,-0.020755,29.238688,188.420381,0
0.084375,-165.530000,138.522537,70.921023,4.262628,2.347749,-4.667128,2.229886,-2.249430,4.759770,-2.275759,-0.099216,0.557375,-0.035692,35.911588,188.420251,0
0.085417,-185.969186,54.971005,124.706061,5.269218,4.158391,-4.255665,-0.042518,-4.065250,4.356887,0.008378,-0.124787,0.550385,-0.054364,40.424278,188.495714,0
0.086458,-159.813380,-17.429852,164.013826,5.993058,4.854246,-3.348923,-1.719396,-4.866564,3.458459,1.580626,-0.164970,0.567565,-0.031958,40.763578,188.495759,0
0.087500,-110.292023,-87.607824,179.045076,6.321048,5.038860,-1.276370,-3.905606,-4.947430,1.411816,3.773398,-0.190541,0.550711,-0.035692,36.974728,188.420211,0
0.088542,-33.197047,-138.830857,181.728788,6.377598,4.492117,0.476157,-4.990875,-4.487961,-0.288348,4.904047,-0.241683,0.568937,-0.054364,21.118108,188.495797,0
0.089583,40.846796,-175.822585,150.816857,5.834718,3.380880,2.251542,-5.562894,-3.418318,-2.048945,5.551219,-0.230724,0.580108,-0.024490,3.576298,188.495698,0
0.090625,109.809199,-175.146054,93.141667,4.748958,1.374973,3.847866,-5.069234,-1.426062,-3.688676,5.067743,-0.270907,0.562731,-0.054364,-12.619621,188.495664,0
0.091667,151.288723,-177.417264,6.228788,3.086388,-0.432119,4.830805,-4.175944,0.400786,-4.703940,4.199771,-0.201500,0.567827,-0.050629,-25.071931,188.420300,0
0.092708,165.353424,-138.093922,-70.601705,1.638708,-2.292464,4.849854,-2.287497,2.220283,-4.816748,2.418144,-0.154011,0.557244,-0.028224,-30.794791,188.420303,0
0.093750,185.633815,-54.518228,-124.596023,0.598188,-4.088905,4.423152,-0.019011,4.069185,-4.421923,0.168268,-0.135746,0.550711,-0.065566,-36.856951,188.495759,0
0.094792,159.466666,17.785983,-164.125379,-0.136962,-4.795411,3.463072,1.677457,4.830065,-3.547668,-1.445856,-0.084604,0.567761,-0.013287,-35.771191,188.495787,0
0.095833,109.854569,88.169330,-178.984281,-0.442332,-4.980025,1.413378,3.836241,5.032231,-1.533255,-3.623400,-0.055380,0.553259,-0.031958,-30.285841,188.419057,0
0.096875,32.770936,139.102421,-181.606440,-0.498882,-4.376478,-0.369628,4.921510,4.458814,0.295832,-4.773083,-0.059033,0.568414,-0.058098,-18.195451,188.419800,0
0.097917,-41.125455,175.719641,-150.805303,0.066618,-3.261690,-2.141204,5.544462,3.278899,2.056428,-5.408834,-0.018850,0.578083,-0.043161,2.332198,188.495959,0
0.098958,-109.883693,175.683398,-92.576137,1.208928,-1.284185,-3.699429,4.992033,1.389563,3.671987,-4.913938,-0.018850,0.566847,-0.050629,17.973928,188.495253,0
0.100000,-151.363217,177.640505,-5.835606,2.769708,0.561959,-4.651889,4.067399,-0.510800,4.683222,-3.981248,-0.084604,0.566585,-0.061832,30.041698,188.344180,0
0.101042,-165.802220,138.135949,70.797917,4.285248,2.393903,-4.758564,2.171117,-2.293539,4.743655,-2.218656,-0.069992,0.556395,-0.039427,36.069928,188.495170,0
0.102083,-186.082611,54.801873,124.509091,5.257908,4.161941,-4.270905,-0.089534,-4.131414,4.348830,0.042641,-0.106522,0.561882,-0.061832,40.854058,188.495305,0
0.103125,-159.620558,-17.309043,164.198485,6.083538,4.896849,-3.265107,-1.762493,-4.895970,3.430258,1.649151,-0.197847,0.567565,-0.024490,41.193358,188.495146,0
0.104167,-110.530216,-87.474934,179.131251,6.332358,5.088564,-1.249701,-3.933031,-5.002566,1.411816,3.822888,-0.205153,0.562601,-0.046895,36.827698,188.344256,0
0.105208,-32.607237,-138.963747,181.482576,6.366288,4.456615,0.499016,-4.990875,-4.480610,-0.352809,4.915467,-0.230724,0.560445,-0.039427,22.814608,188.494918,0
0.106250,40.722029,-175.689695,150.878410,5.834718,3.395081,2.259162,-5.578566,-3.425670,-2.101319,5.577867,-0.248989,0.580108,-0.013287,4.028698,188.495282,0
0.107292,109.797857,-175.158135,92.907765,4.726338,1.389174,3.828817,-5.100577,-1.462819,-3.680619,5.071550,-0.230724,0.563254,-0.020755,-13.479181,188.495873,0
0.108333,150.959791,-177.538073,6.068750,3.029838,-0.442769,4.819375,-4.172026,0.415489,-4.687825,4.188350,-0.208806,0.571811,-0.035692,-25.671361,188.344236,0
0.109375,165.296712,-138.057679,-70.650947,1.650018,-2.256962,4.849854,-2.287497,2.231310,-4.824805,2.402916,-0.168623,0.558681,-0.013287,-30.749551,188.494187,0
0.110417,185.565760,-54.385338,-124.534470,0.632118,-4.042752,4.415532,-0.089534,4.080212,-4.417894,0.213951,-0.106522,0.541239,-0.028224,-36.800401,188.494098,0
0.111458,159.523379,17.592688,-163.965341,-0.193512,-4.770559,3.497360,1.642195,4.822714,-3.571841,-1.468697,-0.066339,0.572465,-0.013287,-36.743851,188.495691,0
0.112500,109.831884,87.649851,-179.033523,-0.487572,-4.965824,1.432427,3.800979,4.944013,-1.541313,-3.570104,-0.084604,0.535164,-0.039427,-31.213261,188.345021,0
0.113542,32.691538,139.054097,-181.224811,-0.487572,-4.401330,-0.331529,4.862741,4.425733,0.279716,-4.723593,-0.022503,0.559661,-0.043161,-17.788291,188.495928,0
0.114583,-40.592357,175.852531,-150.349811,0.077928,-3.293643,-2.053577,5.454350,3.337711,2.000025,-5.340310,-0.026156,0.574032,-0.002084,2.852458,188.495984,0
0.115625,-110.031146,175.212243,-92.699243,1.197618,-1.351641,-3.615612,4.960689,1.426321,3.567238,-4.902517,-0.040768,0.559400,-0.035692,17.487598,188.495861,0
0.116667,-151.419930,177.326401,-6.020265,2.814948,0.487404,-4.606171,4.106579,-0.433609,4.626819,-4.061193,-0.055380,0.568480,-0.024490,29.159518,188.345013,0
0.117708,-165.575370,138.558780,70.871781,4.228698,2.301596,-4.712846,2.253394,-2.179590,4.739626,-2.313828,-0.091910,0.556591,-0.009553,35.922898,188.495910,0
0.118750,-185.594884,54.910601,124.718372,5.314458,4.098036,-4.255665,0.012333,-3.995411,4.360916,-0.037304,-0.102869,0.540651,-0.050629,40.345108,188.495884,0
0.119792,-159.904120,-17.115749,163.767614,6.026988,4.776140,-3.326064,-1.656709,-4.822455,3.474575,1.565399,-0.139399,0.561163,-0.013287,40.740958,188.495776,0
0.120833,-110.223968,-87.064183,178.835796,6.332358,4.974955,-1.253511,-3.842919,-4.892294,1.431960,3.708681,-0.186888,0.549732,-0.002084,36.850318,188.344990,0
0.121875,-32.561867,-138.685886,181.445644,6.445458,4.392710,0.476157,-4.873337,-4.414446,-0.312521,4.831716,-0.212459,0.558942,-0.005818,21.016318,188.495893,0
0.122917,40.234301,-175.810504,150.484470,5.800788,3.352478,2.182965,-5.511961,-3.370533,-2.040887,5.459853,-0.227071,0.574294,-0.024490,3.689398,188.495902,0
0.123958,109.684432,-175.013164,93.067803,4.771578,1.403375,3.752620,-4.986957,-1.455468,-3.600042,5.018253,-0.227071,0.557636,-0.024490,-12.585691,188.495816,0
0.125000,151.039188,-177.211889,6.154924,3.086388,-0.393065,4.731749,-4.077995,0.393435,-4.603220,4.123633,-0.219765,0.562143,-0.024490,-25.015381,188.269655,0
0.126042,165.319397,-138.178488,-70.466288,1.650018,-2.193057,4.781277,-2.318841,2.165146,-4.772430,2.406723,-0.172276,0.554696,-0.031958,-30.817411,188.495843,0
0.127083,185.248170,-54.288690,-124.719129,0.598188,-4.017900,4.362194,-0.116959,3.999346,-4.361490,0.164461,-0.117481,0.540717,-0.017021,-36.800401,188.495877,0
