1-Time,2-VGERA,3-VGERB,4-VGERC,5-VN,6-IGERAN,7-IGERBN,8-IGERCN,9-IGERAT,10-IGERBT,11-IGERCT,12-IN,13-IFD,14-IFAULT,15-VFAULT,16-Speed (rad/s),17-Active Power,18-Reactive Power,19-FAULT 
0.000000,-119.646508,189.786210,-35.988237,-0.417586,3.737576,-5.342969,1.174016,-3.693218,5.334465,-1.133830,-0.035656,0.455794,-0.018440,-22.420114,188.420226,1573.989472,10.696249,0
0.001042,-162.755723,154.328024,32.158338,0.933530,5.087942,-4.631634,-0.805441,-4.988304,4.428575,0.899558,0.000805,0.461513,-0.014723,-22.645281,188.495591,1573.782681,11.341986,0
0.002083,-193.028223,82.718698,84.604953,1.946867,5.605338,-2.820591,-3.020731,-5.633948,2.677188,3.153800,0.048206,0.461581,-0.018440,-23.320780,188.495734,1573.574481,11.638963,0
0.003125,-180.462706,16.324156,142.082360,3.084057,5.447551,-1.034077,-4.397072,-5.398478,0.886977,4.398964,0.048206,0.468196,0.000144,-13.897562,188.495718,1572.969677,12.539630,0
0.004167,-134.166912,-46.100573,185.633952,3.951023,4.442115,1.136721,-5.514383,-4.422416,-1.313041,5.503239,0.113837,0.483078,-0.011006,-6.174352,188.420251,1572.133374,12.987603,0
0.005208,-64.186474,-99.164528,196.096541,4.142431,2.658751,3.299343,-5.580107,-2.546251,-3.426784,5.430890,0.113837,0.476395,-0.014723,3.474033,188.495541,1572.313022,12.874732,0
0.006250,0.347399,-159.169785,166.774557,3.601985,0.655219,4.787423,-4.965393,-0.518169,-4.936601,4.840674,0.091960,0.479358,0.003860,8.258821,188.495615,1572.446862,13.442786,0
0.007292,62.847286,-185.173237,116.551698,2.622425,-1.432711,5.384290,-3.395746,1.658031,-5.389546,3.146184,0.055498,0.470883,-0.018440,15.948256,188.495631,1572.782794,14.214045,0
0.008333,120.092708,-189.941711,36.496485,1.068642,-3.509633,5.376114,-1.284841,3.788656,-5.385232,1.093758,-0.028364,0.464406,-0.003573,22.838351,188.344997,1573.212672,14.406445,0
0.009375,162.942025,-154.330841,-31.637938,-0.226178,-4.834312,4.627986,0.741010,5.072348,-4.496597,-0.943438,-0.050241,0.462684,-0.022156,23.547625,188.495671,1573.154679,14.904506,0
0.010417,193.180625,-82.721514,-84.376193,-1.262033,-5.458123,2.796503,2.960166,5.767365,-2.732269,-3.193872,-0.093995,0.468265,-0.007290,24.256900,188.495817,1573.594227,14.949243,0
0.011458,180.310010,-16.456167,-142.096634,-2.410482,-5.256302,1.018165,4.382901,5.482522,-0.937744,-4.553272,-0.112226,0.470952,-0.014723,13.696591,188.495669,1574.232252,14.921052,0
0.012500,133.935116,46.144736,-185.842652,-3.277448,-4.327925,-1.242572,5.496345,4.521651,1.296785,-5.630891,-0.115872,0.481425,-0.014723,6.434972,188.344874,1575.015282,14.910278,0
0.013542,64.191977,99.373122,-195.977146,-3.502634,-2.482180,-3.372489,5.507944,2.599911,3.388959,-5.520464,-0.130457,0.479495,-0.048173,-2.290230,188.495633,1575.437636,14.530221,0
0.014583,-0.262797,159.401869,-166.582253,-2.939669,-0.412597,-4.905539,4.900962,0.579425,4.928972,-4.926440,-0.119518,0.477980,-0.018440,-8.347208,188.495700,1575.670281,14.427339,0
0.015625,-62.954783,184.935521,-116.019147,-1.948850,1.715697,-5.477877,3.277189,-1.634754,5.429368,-3.190064,-0.093995,0.473570,0.000144,-15.361145,188.495573,1576.509653,14.317456,0
0.016667,-120.369703,189.868425,-36.182664,-0.417586,3.796288,-5.453349,1.204945,-3.738793,5.420741,-1.130022,-0.017425,0.463373,-0.018440,-22.386339,188.345001,1578.038118,14.272151,0
0.017708,-162.857422,153.869969,31.988215,0.899753,5.150323,-4.619370,-0.875031,-5.003496,4.480341,0.918597,-0.024718,0.467162,0.000144,-23.196938,188.495778,1578.601527,14.395126,0
0.018750,-193.898317,82.190172,84.690015,1.913090,5.708083,-2.800151,-3.063259,-5.694715,2.720326,3.188071,0.044560,0.464406,0.003860,-23.309522,188.420242,1579.992586,14.672303,0
0.019792,-179.852510,16.065766,142.592730,3.084057,5.454890,-0.997284,-4.478261,-5.421265,0.852467,4.497968,0.048206,0.474535,-0.022156,-13.672396,188.495618,1581.043012,13.917546,0
0.020833,-133.579316,-46.077083,186.411659,3.973542,4.522844,1.222572,-5.560777,-4.502172,-1.420885,5.556548,0.106545,0.479564,-0.018440,-5.566402,188.344822,1582.742468,13.366788,0
0.021875,-63.338980,-99.552114,195.719839,4.108653,2.655082,3.344312,-5.591706,-2.527261,-3.418157,5.476584,0.110191,0.478117,0.003860,3.102508,188.495633,1582.938448,13.720338,0
0.022917,1.183594,-159.757036,166.944681,3.590725,0.600177,4.881450,-5.019519,-0.442211,-5.018562,4.913023,0.088314,0.483009,-0.011006,8.202529,188.420312,1584.681399,13.166422,0
0.023958,63.480082,-184.809142,116.029176,2.667463,-1.487753,5.437436,-3.391880,1.661829,-5.428370,3.138569,0.026329,0.473708,-0.018440,16.072098,188.495671,1584.926075,13.344508,0
0.025000,120.386506,-190.399767,36.010418,1.113679,-3.557336,5.355673,-1.304171,3.853220,-5.415428,1.078526,-0.013779,0.458688,0.000144,22.748284,188.344800,1585.921453,12.930113,0
0.026042,162.625627,-153.567415,-32.148309,-0.237437,-4.867337,4.583016,0.741010,5.133114,-4.500911,-0.981516,-0.028364,0.463097,-0.014723,23.288684,188.495714,1586.383168,12.517607,0
0.027083,193.915120,-81.640973,-84.497710,-1.273292,-5.469131,2.784238,3.018158,5.786354,-2.702072,-3.247182,-0.101287,0.465371,-0.014723,24.617166,188.420142,1586.839737,12.050142,0
0.028125,179.688514,-15.563547,-142.327516,-2.410482,-5.234285,0.993636,4.379035,5.497713,-0.898920,-4.507578,-0.090349,0.467093,0.003860,12.897250,188.495588,1586.323149,12.417211,0
0.029167,133.211921,46.591047,-186.328719,-3.288707,-4.302239,-1.226220,5.434487,4.563428,1.357177,-5.608044,-0.130457,0.478600,-0.018440,5.444239,188.420301,1586.597312,12.496407,0
0.030208,62.994185,99.713727,-195.600445,-3.457597,-2.456494,-3.368401,5.511810,2.626497,3.367390,-5.505232,-0.104934,0.482872,-0.011006,-1.806122,188.495622,1586.131132,13.453390,0
0.031250,-1.539688,159.519319,-166.606556,-2.928410,-0.408928,-4.913715,4.924159,0.545244,4.937599,-4.956903,-0.086703,0.478255,-0.044457,-7.941909,188.420367,1586.523507,13.665395,0
0.032292,-63.587578,184.712365,-115.350805,-1.948850,1.690010,-5.490142,3.284921,-1.608168,5.399172,-3.201488,-0.068472,0.479151,0.022444,-15.090945,188.495930,1586.002744,14.506953,0
0.033333,-120.414903,190.150305,-35.125468,-0.395067,3.766932,-5.392027,1.212677,-3.791964,5.356034,-1.141445,-0.079410,0.459652,-0.014723,-22.453889,188.420334,1585.763815,14.356648,0
0.034375,-162.631424,153.505874,32.960348,0.944790,5.084273,-4.615281,-0.820905,-5.033879,4.424262,0.930021,0.004452,0.462684,-0.007290,-22.634022,188.495783,1585.475095,14.065140,0
0.035417,-193.762718,80.862986,85.115323,1.980645,5.711753,-2.808327,-3.063259,-5.702310,2.677188,3.184263,0.029975,0.462822,-0.014723,-23.343297,188.420423,1585.089021,14.191298,0
0.036458,-179.502212,14.797304,142.665640,3.095316,5.480576,-1.021813,-4.424135,-5.425063,0.865408,4.486545,0.073729,0.469505,0.003860,-13.818754,188.495698,1584.883003,14.928409,0
0.037500,-132.652722,-47.075409,186.484569,3.973542,4.478810,1.210307,-5.525981,-4.475587,-1.356179,5.548933,0.081021,0.470401,0.000144,-5.881635,188.344804,1584.238587,16.020249,0
0.038542,-61.937789,-99.857484,195.853507,4.164950,2.618387,3.336136,-5.587839,-2.557645,-3.431098,5.453737,0.091960,0.491208,-0.003573,3.597874,188.495575,1584.079414,16.709504,0
0.039583,2.629984,-159.733545,166.653040,3.568207,0.618524,4.873274,-4.976991,-0.464999,-4.996993,4.909215,0.066437,0.466818,-0.003573,8.405179,188.420245,1583.688929,17.646036,0
0.040625,64.045078,-185.079277,115.166407,2.633685,-1.509770,5.425172,-3.330022,1.673222,-5.441311,3.157608,0.070083,0.467438,-0.018440,16.049581,188.495808,1584.002928,18.142686,0
0.041667,120.556005,-190.341042,34.807403,1.057383,-3.561005,5.380202,-1.257778,3.857018,-5.424056,1.086142,-0.017425,0.457447,0.000144,22.950934,188.344896,1584.082752,18.692660,0
0.042708,162.670826,-153.156340,-33.120442,-0.271215,-4.878346,4.570752,0.760340,5.140710,-4.496597,-0.951053,-0.028364,0.460341,-0.022156,23.536367,188.495752,1584.035257,19.416854,0
0.043750,194.084619,-80.090632,-84.801502,-1.273292,-5.425097,2.735181,3.041355,5.797748,-2.697759,-3.266221,-0.086703,0.458619,0.000144,24.358225,188.420235,1584.102833,19.739409,0
0.044792,179.406016,-14.177635,-142.436881,-2.421741,-5.252632,0.956843,4.394499,5.528096,-0.885979,-4.522809,-0.104934,0.454347,-0.048173,13.527716,188.495794,1584.422398,20.142112,0
0.045833,132.081929,47.471923,-186.681117,-3.288707,-4.298569,-1.271189,5.473149,4.552035,1.361491,-5.661354,-0.119518,0.465233,-0.014723,6.052189,188.344858,1584.839606,20.430358,0
0.046875,61.355696,100.030843,-195.734113,-3.480115,-2.408791,-3.421547,5.515676,2.596113,3.440724,-5.566158,-0.126811,0.471916,-0.003573,-2.436588,188.495693,1585.775125,20.141382,0
0.047917,-2.952179,159.848179,-166.545797,-2.905891,-0.335539,-4.979125,4.885497,0.503467,4.980737,-4.945479,-0.097641,0.450764,-0.014723,-8.493567,188.420338,1586.122940,19.920312,0
0.048958,-64.175174,184.935521,-114.099182,-1.903813,1.770739,-5.490142,3.261724,-1.634754,5.455251,-3.167217,-0.053887,0.469918,-0.007290,-15.361145,188.495872,1586.526932,19.806817,0
0.050000,-120.833000,190.338225,-33.861694,-0.350030,3.902703,-5.420643,1.131488,-3.753985,5.425054,-1.118598,-0.061180,0.456207,-0.022156,-22.408856,188.344856,1586.994305,20.604814,0
0.051042,-162.461925,152.531038,33.750207,0.956049,5.128307,-4.586664,-0.898228,-5.060464,4.463086,0.964291,-0.002841,0.460272,-0.007290,-23.219455,188.495721,1587.414477,20.812012,0
0.052083,-194.678012,79.488820,85.176082,1.980645,5.737439,-2.816503,-3.159912,-5.706108,2.625423,3.233765,0.026329,0.457034,-0.037023,-23.343297,188.420231,1587.558093,20.249101,0
0.053125,-178.914616,13.658038,142.920826,3.117835,5.506262,-0.989108,-4.478261,-5.406074,0.813643,4.520815,0.095606,0.445803,-0.007290,-13.379679,188.495629,1587.423578,19.840357,0
0.054167,-131.873027,-47.580444,187.080001,3.951023,4.515505,1.259365,-5.576241,-4.460395,-1.403630,5.564164,0.088314,0.439947,-0.029590,-5.048519,188.420329,1587.655303,19.538991,0
0.055208,-61.090295,-100.280304,195.586171,4.142431,2.596370,3.372929,-5.572375,-2.496878,-3.482863,5.411850,0.113837,0.447595,-0.063040,3.316416,188.420386,1587.113046,18.757806,0
0.056250,3.488778,-160.132876,166.774557,3.590725,0.618524,4.905979,-4.969259,-0.408030,-5.031504,4.871137,0.088314,0.440705,-0.040740,8.337629,188.420254,1587.196798,18.028966,0
0.057292,64.734374,-184.715182,114.182122,2.543610,-1.535456,5.441524,-3.353218,1.760574,-5.428370,3.108106,0.026329,0.475499,-0.014723,16.072098,188.495569,1586.823720,17.153360,0
0.058333,120.996702,-190.716882,33.859572,1.046123,-3.597700,5.404731,-1.199786,3.898795,-5.471507,1.067103,0.008098,0.455243,0.003860,22.680734,188.420325,1587.796551,17.152363,0
0.059375,162.467428,-152.392914,-33.703723,-0.316252,-4.874676,4.574840,0.802868,5.148306,-4.479342,-1.015787,-0.024718,0.459239,-0.011006,23.322459,188.420301,1587.589674,16.570157,0
0.060417,194.762614,-79.397676,-84.850109,-1.250774,-5.509495,2.710652,3.076150,5.831929,-2.663248,-3.270029,-0.072118,0.472261,0.000144,24.707233,188.420367,1587.940851,16.424252,0
0.061458,178.829720,-13.684345,-142.655611,-2.410482,-5.241624,0.944579,4.417696,5.520501,-0.847155,-4.568503,-0.123164,0.460892,-0.022156,12.683342,188.495676,1588.080928,15.900999,0
0.062500,131.923730,47.695078,-187.033516,-3.367522,-4.228849,-1.287542,5.500211,4.510258,1.374432,-5.627083,-0.141395,0.441876,-0.037023,4.971390,188.420222,1587.483074,15.657490,0
0.063542,61.423496,100.512388,-195.418169,-3.491375,-2.397782,-3.364313,5.523408,2.588518,3.406214,-5.509040,-0.119518,0.476946,0.003860,-2.121355,188.420305,1586.538345,15.928122,0
0.064583,-3.279877,160.071334,-166.387826,-2.950928,-0.342877,-4.946420,4.889363,0.507265,4.989364,-4.953095,-0.101287,0.460203,-0.011006,-8.178333,188.420191,1586.714812,16.156199,0
0.065625,-64.514172,184.688875,-113.843997,-1.870035,1.726705,-5.486054,3.277189,-1.638551,5.390544,-3.174833,-0.064826,0.467507,-0.014723,-15.079686,188.495687,1585.941934,16.460438,0
0.066667,-121.194598,190.396950,-33.509296,-0.327511,3.818305,-5.412467,1.181748,-3.761581,5.373289,-1.126214,-0.021072,0.453796,-0.014723,-22.442631,188.420383,1585.526041,16.542067,0
0.067708,-162.563624,152.484058,34.163364,0.978568,5.165001,-4.574400,-0.863433,-5.060464,4.454458,0.983330,-0.006487,0.457999,0.007577,-22.645281,188.420321,1585.526772,16.428218,0
0.068750,-194.700612,79.406605,85.504177,1.958127,5.711753,-2.779710,-3.132849,-5.683321,2.668561,3.210918,0.015390,0.459997,-0.025873,-23.332038,188.420287,1585.430179,17.220467,0
0.069792,-178.937216,13.869449,143.139556,3.084057,5.528279,-0.976844,-4.474395,-5.402276,0.830898,4.501776,0.088314,0.443599,-0.003573,-13.627363,188.495660,1585.314901,17.504871,0
0.070833,-131.952127,-47.650914,187.323034,3.962282,4.475140,1.251189,-5.553044,-4.437608,-1.386375,5.529893,0.088314,0.474121,-0.029590,-5.453819,188.420359,1584.793342,17.635976,0
0.071875,-61.417993,-100.609165,195.610474,4.153690,2.600040,3.332048,-5.568509,-2.477889,-3.456981,5.446121,0.077375,0.483561,-0.007290,3.744232,188.420191,1585.056758,17.714500,0
0.072917,3.409679,-160.391266,166.592282,3.624503,0.570821,4.897803,-4.984724,-0.392838,-5.001307,4.886368,0.055498,0.474604,-0.014723,8.495245,188.420099,1584.931773,17.856746,0
0.073958,64.587475,-184.950082,114.121364,2.577388,-1.506100,5.433348,-3.326155,1.745382,-5.471507,3.089067,0.044560,0.469229,-0.007290,16.072098,188.495703,1585.281214,17.754902,0
0.075000,121.550398,-190.493727,33.944634,1.023605,-3.612378,5.416995,-1.250045,3.841826,-5.419742,1.032832,-0.010133,0.457999,-0.022156,22.995967,188.420036,1584.204401,17.813483,0
0.076042,162.942025,-152.228484,-33.813088,-0.282474,-4.907702,4.562576,0.795135,5.136912,-4.449146,-1.031018,-0.035656,0.460548,-0.048173,23.547625,188.495698,1583.947593,17.622258,0
0.077083,195.056412,-79.468147,-85.166052,-1.273292,-5.502156,2.739269,3.080016,5.801546,-2.663248,-3.315723,-0.090349,0.459239,0.000144,24.482066,188.420367,1584.053868,17.242070,0
0.078125,178.728020,-14.142400,-143.202436,-2.387963,-5.252632,0.944579,4.425428,5.482522,-0.791076,-4.606581,-0.090349,0.471641,-0.022156,13.358842,188.495826,1584.075458,16.125794,0
0.079167,131.855930,47.507158,-187.483128,-3.311226,-4.316917,-1.295718,5.511810,4.548237,1.413256,-5.668969,-0.134103,0.485283,-0.011006,5.759472,188.420533,1585.109139,15.861846,0
0.080208,61.954592,100.794268,-195.272349,-3.423819,-2.408791,-3.429723,5.550471,2.565730,3.457979,-5.562350,-0.104934,0.476739,-0.007290,-2.549171,188.420332,1586.095865,15.156065,0
0.081250,-3.031279,160.658585,-166.485039,-2.962187,-0.317191,-5.036359,4.931891,0.446499,5.084267,-4.922632,-0.115872,0.476946,0.007577,-8.696216,188.420086,1586.950182,13.720917,0
0.082292,-64.536772,184.794580,-113.637419,-1.870035,1.770739,-5.563728,3.253992,-1.718307,5.472506,-3.110100,-0.061180,0.471641,-0.003573,-15.484986,188.495707,1587.777406,12.208569,0
0.083333,-122.155091,190.443930,-33.679419,-0.361289,3.935728,-5.469701,1.112158,-3.875518,5.403486,-1.072904,-0.046595,0.456069,0.007577,-22.476406,188.420356,1589.133869,10.950106,0
0.084375,-163.083421,151.826337,33.871724,0.944790,5.190688,-4.623458,-0.948488,-5.098443,4.437203,1.055679,-0.002841,0.463511,-0.025873,-23.275747,188.420312,1589.468884,9.932175,0
0.085417,-195.830604,79.371370,85.589239,1.980645,5.759456,-2.755181,-3.186975,-5.782066,2.625423,3.317537,0.015390,0.462133,-0.029590,-23.399588,188.420191,1591.427212,8.468302,0
0.086458,-178.089722,14.327504,143.953718,3.117835,5.484245,-0.944139,-4.547851,-5.436457,0.770506,4.581741,0.077375,0.475844,-0.018440,-13.244580,188.495546,1592.436477,7.452922,0
0.087500,-131.929527,-47.122389,188.197954,3.962282,4.530182,1.312511,-5.641965,-4.483183,-1.468337,5.670784,0.102898,0.479220,-0.007290,-4.879644,188.420291,1594.933827,6.385058,0
0.088542,-62.039489,-100.996750,194.990739,4.119912,2.600040,3.475133,-5.595572,-2.474091,-3.526001,5.480392,0.099252,0.474604,-0.037023,3.226349,188.420361,1595.778694,5.722206,0
0.089583,3.296680,-161.025497,166.847467,3.601985,0.508440,4.975477,-5.011787,-0.389040,-5.117779,4.886368,0.059144,0.477084,-0.003573,8.427695,188.420265,1597.226101,5.029446,0
0.090625,64.666574,-184.468537,113.951240,2.543610,-1.579490,5.470141,-3.302959,1.817543,-5.488762,3.077643,0.055498,0.473777,-0.025873,16.229714,188.495575,1597.462009,4.180967,0
0.091667,122.386593,-190.799097,34.272729,1.034864,-3.685767,5.437436,-1.184321,3.929178,-5.441311,1.006177,-0.021072,0.459859,-0.011006,22.770801,188.420224,1598.656552,3.306583,0
0.092708,163.190623,-151.547273,-33.484992,-0.293733,-4.915041,4.558488,0.826064,5.216668,-4.457773,-1.069096,-0.050241,0.463786,-0.018440,23.367492,188.420204,1599.517611,2.634843,0
0.093750,195.937807,-79.515127,-85.275417,-1.295811,-5.524173,2.763798,3.110945,5.847121,-2.645993,-3.319531,-0.072118,0.462270,-0.025873,24.797299,188.420173,1600.318045,2.457905,0
0.094792,178.038725,-14.682671,-143.882930,-2.466778,-5.241624,0.870992,4.433161,5.493915,-0.765193,-4.629429,-0.108580,0.475499,-0.051890,12.615792,188.495703,1600.607655,2.072386,0
0.095833,131.901130,47.072592,-188.212228,-3.345004,-4.291230,-1.361128,5.550471,4.533045,1.456394,-5.718471,-0.112226,0.481907,-0.011006,4.881323,188.495776,1601.411190,1.216058,0
0.096875,62.406589,101.193599,-194.701221,-3.468856,-2.394113,-3.437899,5.527274,2.550538,3.470920,-5.543311,-0.126811,0.480047,0.007577,-1.963738,188.344862,1601.171882,0.907175,0
0.097917,-2.850480,161.034425,-166.485039,-2.917150,-0.339208,-5.011830,4.955088,0.457892,5.101522,-4.949287,-0.112226,0.480116,-0.029590,-8.290917,188.495788,1601.738604,1.101359,0
0.098958,-64.661071,184.395250,-113.734632,-1.881295,1.796425,-5.498318,3.257858,-1.748691,5.446623,-3.113907,-0.057533,0.473363,-0.025873,-15.316111,188.495711,1601.492600,0.846420,0
0.100000,-122.584488,190.443930,-34.007514,-0.361289,3.921050,-5.469701,1.119890,-3.833741,5.399172,-1.065289,-0.046595,0.464544,0.018727,-22.566472,188.495691,1601.209140,1.092997,0
0.101042,-163.275520,151.661907,33.871724,0.978568,5.135645,-4.598929,-0.898228,-5.109837,4.450144,1.021409,0.004452,0.467645,-0.007290,-22.701572,188.420285,1601.406455,1.602789,0
0.102083,-196.022703,79.383115,85.893030,1.958127,5.748447,-2.804239,-3.190841,-5.774471,2.625423,3.275651,0.048206,0.465095,0.003860,-23.433363,188.420396,1601.195922,2.121368,0
0.103125,-178.010622,14.574149,144.403330,3.140353,5.487915,-0.976844,-4.520788,-5.406074,0.792074,4.555086,0.066437,0.474879,-0.018440,-13.559813,188.495636,1600.763912,2.438566,0
0.104167,-131.635729,-47.063664,188.635415,4.029838,4.541191,1.267541,-5.626501,-4.433810,-1.455395,5.621282,0.102898,0.476671,-0.003573,-5.318719,188.495611,1599.814241,2.406862,0
0.105208,-61.768290,-101.337355,194.772009,4.131172,2.618387,3.377017,-5.591706,-2.477889,-3.469922,5.480392,0.081021,0.482045,-0.033307,3.564099,188.420283,1599.385456,3.157932,0
0.106250,3.646977,-161.389592,166.665192,3.613244,0.563482,4.934596,-4.965393,-0.404232,-5.109151,4.939678,0.081021,0.480667,-0.033307,8.641604,188.420166,1599.891246,3.933490,0
0.107292,64.982972,-184.656457,113.829724,2.554870,-1.597837,5.486494,-3.353218,1.771968,-5.462880,3.050988,0.037267,0.477497,-0.014723,16.263489,188.495741,1599.285437,4.357893,0
0.108333,122.872489,-190.599432,34.102606,1.057383,-3.656411,5.474229,-1.184321,3.917784,-5.441311,1.048064,0.022683,0.461444,-0.018440,23.119809,188.495665,1599.350012,5.145478,0
0.109375,163.416622,-151.359353,-33.618661,-0.248696,-4.951735,4.607545,0.833797,5.216668,-4.496597,-1.061481,-0.035656,0.471365,-0.037023,23.525109,188.420292,1599.722577,5.636024,0
0.110417,196.288104,-78.916131,-85.579209,-1.295811,-5.560868,2.739269,3.126410,5.869908,-2.710700,-3.349994,-0.115872,0.468816,0.022444,24.572133,188.420249,1600.625406,6.259626,0
0.111458,177.699727,-14.212870,-144.320390,-2.466778,-5.300335,0.866904,4.529814,5.512905,-0.812645,-4.694162,-0.093995,0.470401,0.011294,13.302550,188.495676,1601.506302,6.720371,0
