1-Time,2-VGERA,3-VGERB,4-VGERC,5-VN,6-IGERAN,7-IGERBN,8-IGERCN,9-IGERAT,10-IGERBT,11-IGERCT,12-IN,13-IFD,14-IFAULT,15-VFAULT,16-Speed (rad/s),17-Active Power,18-Reactive Power,19-FAULT 
0.000000,112.871674,85.728987,-182.751326,-0.544122,-4.767008,1.280359,3.606565,4.771253,-1.354299,-3.420545,-0.033462,0.550254,-0.009553,80.642637,188.702949,1052.617799,967.156985,0
0.001042,34.381571,135.429826,-180.166099,-0.521502,-3.985947,-0.747587,4.602841,4.102267,0.676900,-4.438089,0.010374,0.547576,-0.020755,31.319728,188.714650,1051.319955,967.174497,0
0.002083,-39.129175,174.825654,-152.073296,-0.035172,-2.757551,-2.680288,5.128964,2.867215,2.615772,-4.971766,-0.004238,0.569198,-0.035692,-16.691221,188.634651,1049.682185,967.940792,0
0.003135,-108.692730,176.806922,-88.870644,1.197618,-0.801347,-4.160570,4.584184,0.882310,4.143368,-4.470110,-0.007891,0.557701,-0.028224,-61.218690,188.552253,1048.467966,967.933038,0
0.004167,-151.533355,180.805702,-2.487121,2.860188,0.853082,-4.970161,3.692387,-0.808536,4.961723,-3.598437,-0.051727,0.557701,-0.050629,-87.548370,188.717514,1046.445753,968.502204,0
0.005208,-165.575370,139.621900,72.004356,4.330488,2.585618,-4.894758,1.882672,-2.506732,4.894576,-1.944039,-0.062686,0.553128,0.001650,-100.939409,188.708460,1044.093561,968.750492,0
0.006250,-188.498564,56.046206,125.284659,5.303148,4.275550,-4.458213,-0.143462,-4.171847,4.546251,0.083934,-0.139399,0.529873,-0.017021,-115.054289,188.551916,1041.870439,969.473079,0
0.007292,-164.055475,-17.224477,167.153031,6.128778,4.662531,-3.331136,-1.531531,-4.634991,3.488684,1.411011,-0.179582,0.515175,-0.028224,-101.538839,188.562458,1039.917806,969.672958,0
0.008333,-112.628578,-85.771526,182.775190,6.456768,4.818743,-1.203975,-3.665875,-4.789373,1.327387,3.410521,-0.212459,0.528370,-0.020755,-76.362780,188.704989,1037.770014,970.249168,0
0.009375,-34.875737,-135.061615,179.857576,6.343668,4.144190,0.784286,-4.699464,-4.149792,-0.666042,4.499222,-0.245336,0.542938,0.005384,-26.700571,188.702080,1035.575794,971.087615,0
0.010417,37.795663,-174.892355,151.850947,5.868648,2.898042,2.772546,-5.259170,-2.944146,-2.625897,5.068477,-0.230724,0.554762,-0.009553,19.116238,188.542178,1033.269957,972.245097,0
0.011458,106.939546,-176.185012,92.846212,4.669788,1.041247,4.272671,-4.684539,-1.076865,-4.132510,4.577495,-0.208806,0.562274,-0.028224,65.984877,188.550579,1031.582645,972.405365,0
0.012500,151.549601,-180.099225,5.010038,3.018528,-0.684188,5.117979,-3.751696,0.680143,-5.038995,3.695149,-0.223418,0.563254,-0.050629,94.418216,188.698334,1029.182881,973.302983,0
0.013550,165.920549,-138.734209,-71.586553,1.582158,-2.491280,5.082262,-1.968102,2.444503,-5.055782,2.026518,-0.168623,0.555807,-0.031958,105.603806,188.712320,1027.244616,973.831102,0
0.014583,187.675465,-58.178742,-125.359281,0.575568,-4.113757,4.637781,-0.001670,4.113294,-4.657096,0.091050,-0.102869,0.557048,-0.043161,120.329426,188.573073,1024.901329,974.624547,0
0.015630,163.890241,16.674540,-167.670834,-0.272682,-4.529140,3.490860,1.386400,4.605844,-3.607923,-1.239585,-0.069992,0.562405,-0.031958,106.010966,188.481306,1022.996533,975.730762,0
0.016667,113.234634,85.644421,-182.394319,-0.600672,-4.731506,1.371636,3.502087,4.723468,-1.467610,-3.296020,-0.051727,0.559596,-0.013287,79.997967,188.641705,1020.666044,976.441218,0
0.017708,35.164203,135.176127,-180.190720,-0.510192,-4.042752,-0.636467,4.546870,4.120645,0.559393,-4.409626,-0.022503,0.554435,-0.043161,31.342348,188.703574,1019.561449,977.262897,0
0.018750,-38.357885,175.006868,-151.359281,-0.001242,-2.825006,-2.596948,5.147621,2.903972,2.548625,-4.975324,-0.015197,0.548817,-0.013287,-16.962661,188.566471,1018.717585,977.830299,0
0.019791,-107.547138,176.770680,-91.345076,1.174998,-0.950459,-4.045481,4.595378,1.051394,4.009074,-4.484341,-0.029809,0.556133,-0.046895,-61.456200,188.566216,1016.924350,978.955290,0
0.020833,-151.465300,180.286223,-2.991856,2.837568,0.732373,-4.890789,3.722238,-0.694587,4.898773,-3.630458,-0.029809,0.553128,-0.013287,-88.747230,188.642007,1015.133901,979.602849,0
0.021875,-165.677453,139.766871,72.127462,4.262628,2.482660,-4.859040,1.942374,-2.400135,4.961723,-1.997406,-0.069992,0.546269,-0.031958,-100.701899,188.774125,1014.289363,981.111198,0
0.022916,-187.659219,56.674413,125.653978,5.303148,4.151291,-4.493931,-0.035252,-4.153468,4.550448,-0.061938,-0.150358,0.566781,-0.043161,-114.420929,188.561810,1012.910105,982.286914,0
0.023969,-163.374925,-18.577538,167.805493,6.117468,4.612827,-3.406539,-1.490486,-4.576179,3.471898,1.314949,-0.154011,0.523798,-0.031958,-102.251369,188.567295,1010.902811,982.703058,0
0.025002,-112.617236,-86.327248,182.307387,6.388908,4.825844,-1.243660,-3.509157,-4.675425,1.398731,3.332248,-0.179582,0.500803,-0.043161,-77.143170,188.645888,1008.702411,982.496017,0
0.026042,-34.365325,-135.097857,179.906819,6.366288,4.105137,0.720789,-4.647225,-4.149792,-0.540141,4.442296,-0.201500,0.558550,-0.028224,-27.514891,188.585916,1006.841082,983.366339,0
0.027083,37.772978,-174.928598,151.309281,5.846028,2.983249,2.669363,-5.206931,-2.980904,-2.504193,5.050688,-0.238030,0.566455,-0.031958,20.473438,188.566907,1005.098277,984.122407,0
0.028125,107.597411,-175.882989,92.686175,4.737648,1.147755,4.201237,-4.751704,-1.176111,-4.069559,4.613073,-0.175929,0.565606,-0.009553,65.668197,188.570139,1003.747194,985.584244,0
0.029167,151.492888,-179.809283,5.145455,3.063768,-0.602532,5.062419,-3.837518,0.610304,-4.950865,3.776979,-0.179582,0.564887,-0.002084,94.044986,188.645663,1002.136901,986.503077,0
0.030208,165.557589,-140.413455,-70.749432,1.604778,-2.317316,5.078294,-2.091237,2.290122,-5.030602,2.161717,-0.146705,0.561490,-0.039427,105.852626,188.718755,1000.251484,987.808802,0
0.031250,186.790750,-58.915677,-125.950190,0.530328,-4.046302,4.701278,-0.121073,4.039779,-4.690670,0.190669,-0.150358,0.550973,-0.031958,119.707376,188.570374,998.740494,988.826671,0
0.032292,164.446024,15.599339,-167.289205,-0.250062,-4.497187,3.633729,1.270728,4.572763,-3.670874,-1.107945,-0.124787,0.560706,-0.017021,108.193796,188.472703,997.313578,989.707400,0
0.033333,113.858472,85.294074,-182.185038,-0.566742,-4.735056,1.526411,3.386414,4.716117,-1.589314,-3.185727,-0.022503,0.552802,-0.009553,80.812287,188.638275,995.513909,990.829306,0
0.034382,35.164203,136.070114,-179.181251,-0.521502,-4.028550,-0.521378,4.479706,4.127997,0.454475,-4.334912,-0.069992,0.562339,-0.028224,31.432828,188.720496,993.523287,991.605735,0
0.035417,-36.803962,175.272647,-150.817614,-0.001242,-2.874710,-2.426298,5.076725,2.948081,2.380757,-4.921956,-0.000585,0.559008,-0.024490,-15.277471,188.567336,991.245460,992.045357,0
0.036458,-107.581165,176.094149,-92.206818,1.141068,-1.074719,-3.938329,4.610304,1.176370,3.895763,-4.516362,-0.026156,0.559530,-0.031958,-61.286550,188.506111,989.368424,993.330498,0
0.037500,-151.714835,179.658016,-3.619697,2.837568,0.593912,-4.831260,3.759551,-0.580639,4.856806,-3.694499,-0.044421,0.557048,-0.005818,-87.322170,188.645274,987.838061,994.524136,0
0.038542,-165.325835,140.926637,72.139773,4.228698,2.361950,-4.882852,2.065509,-2.304566,4.949133,-2.125489,-0.084604,0.550515,-0.017021,-100.520939,188.718666,986.472436,995.973658,0
0.039583,-186.638394,57.713371,126.404925,5.291838,4.098036,-4.509805,0.128928,-3.929247,4.571431,-0.168673,-0.117481,0.509949,-0.020755,-114.567959,188.565952,983.182498,996.583901,0
0.040625,-164.962875,-17.393610,166.586743,6.083538,4.563123,-3.477973,-1.300186,-4.510016,3.597798,1.137057,-0.146705,0.531963,-0.035692,-101.504909,188.492070,981.146476,998.055736,0
0.041667,-112.730661,-86.375572,181.913448,6.400218,4.786790,-1.378592,-3.423336,-4.704831,1.549812,3.221955,-0.183235,0.569525,-0.043161,-75.819900,188.644620,979.220263,999.947821,0
0.042708,-34.138475,-134.989129,180.177652,6.366288,4.190344,0.566014,-4.565135,-4.190226,-0.456207,4.324887,-0.216112,0.538365,-0.031958,-26.383891,188.645815,977.276670,1000.653908,0
0.043750,37.682238,-175.085650,150.632197,5.857338,3.043604,2.542369,-5.177080,-3.054419,-2.353112,4.993763,-0.205153,0.538430,0.009119,18.743008,188.553087,974.774210,1001.655741,0
0.044800,108.380044,-175.629290,91.750568,4.703718,1.229412,4.074242,-4.736778,-1.245950,-3.981429,4.634420,-0.278213,0.562797,-0.031958,67.228977,188.495707,973.013571,1002.777784,0
0.045847,152.434316,-179.036105,3.458902,3.041148,-0.488923,5.026702,-3.889757,0.496356,-4.896308,3.837462,-0.175929,0.565736,-0.002084,95.277776,188.646614,970.791235,1004.510788,0
0.046883,165.444164,-139.736925,-71.795834,1.616088,-2.267612,5.070356,-2.165864,2.220283,-5.059979,2.257778,-0.175929,0.565018,0.012853,105.185336,188.511493,969.472430,1006.289282,0
0.047917,185.769925,-59.338508,-126.578031,0.519018,-3.946894,4.721121,-0.210626,3.933182,-4.732637,0.325868,-0.124787,0.553194,-0.009553,119.707376,188.571406,967.211728,1007.677513,0
0.048958,164.922409,15.393964,-167.067614,-0.250062,-4.507838,3.709132,1.143861,4.547032,-3.788381,-1.015441,-0.084604,0.546139,-0.035692,106.406816,188.495776,966.061103,1009.302586,0
0.050000,114.130692,85.499450,-181.680304,-0.555432,-4.735056,1.554191,3.356563,4.741847,-1.706821,-3.143033,-0.029809,0.554500,-0.009553,80.201547,188.646612,965.094091,1010.766518,0
0.051042,36.842893,135.031156,-180.030682,-0.498882,-4.113757,-0.390415,4.434929,4.205188,0.307591,-4.299333,0.028639,0.557636,-0.028224,32.326318,188.571136,964.246491,1012.206782,0
0.052083,-36.066700,175.369295,-150.251326,-0.001242,-2.938615,-2.366770,5.099113,3.028948,2.342987,-4.907725,-0.011544,0.565540,-0.035692,-15.424501,188.571172,963.513947,1013.010593,0
0.053125,-107.229548,176.239120,-92.920834,1.141068,-1.152825,-3.910549,4.662543,1.220479,3.878977,-4.573287,-0.007891,0.564560,-0.017021,-61.705020,188.495767,963.605377,1013.909689,0
0.054167,-151.953027,179.090213,-4.555303,2.781018,0.526457,-4.795543,3.811790,-0.485070,4.806446,-3.726520,-0.026156,0.562666,-0.013287,-88.611510,188.700875,962.230301,1014.503391,0
0.055218,-165.654768,139.356120,73.173864,4.273938,2.351300,-4.870946,2.058047,-2.238402,4.936543,-2.146836,-0.066339,0.555088,-0.069301,-100.769759,188.567901,960.687290,1015.194474,0
0.056250,-185.935159,58.764409,126.626516,5.291838,4.009280,-4.585208,0.177436,-3.936599,4.621791,-0.239830,-0.113828,0.538561,-0.020755,-113.821499,188.569349,960.542744,1016.187561,0
0.057292,-165.178383,-17.055344,166.574432,6.094848,4.527620,-3.541470,-1.240484,-4.495313,3.677535,1.094363,-0.164970,0.530983,-0.028224,-102.805559,188.575191,960.028853,1017.186833,0
0.058333,-113.263758,-86.266843,181.519508,6.388908,4.808092,-1.446058,-3.359903,-4.660722,1.591779,3.140124,-0.194194,0.518963,-0.035692,-76.860420,188.723904,958.644904,1017.124923,0
0.059375,-34.274585,-134.977048,180.103788,6.388908,4.215196,0.538234,-4.539015,-4.204929,-0.431027,4.346235,-0.223418,0.524843,0.001650,-27.232141,188.570845,958.717854,1017.540887,0
0.060417,37.568813,-175.158135,150.312122,5.834718,3.082657,2.490777,-5.225588,-3.072798,-2.365702,4.965300,-0.219765,0.545355,-0.002084,20.292478,188.570812,958.501304,1017.461349,0
0.061458,107.812919,-175.786342,92.833902,4.726338,1.328819,4.050430,-4.777823,-1.345195,-3.876512,4.613073,-0.205153,0.560314,-0.005818,66.278937,188.495564,956.932700,1017.922359,0
0.062500,151.368121,-179.060267,4.936174,3.041148,-0.421468,4.971142,-3.968116,0.371380,-4.875324,3.887272,-0.201500,0.564495,-0.013287,93.762236,188.721713,955.869973,1018.643350,0
0.063542,164.979122,-141.041662,-71.549621,1.650018,-2.161104,5.074325,-2.300193,2.117362,-5.068372,2.353840,-0.183235,0.562405,-0.043161,105.592496,188.571000,954.783244,1019.843752,0
0.064592,186.019460,-57.707586,-127.390531,0.507708,-3.925592,4.748901,-0.318836,3.933182,-4.715850,0.361446,-0.102869,0.558354,-0.005818,119.458556,188.547555,953.992072,1020.497140,0
0.065625,164.956437,15.671825,-166.624432,-0.283992,-4.447483,3.756755,1.110279,4.455139,-3.826151,-0.965631,-0.099216,0.566389,-0.017021,108.216416,188.490619,952.446180,1020.566070,0
0.066667,114.051294,85.487369,-181.310985,-0.532812,-4.724405,1.697060,3.267010,4.727144,-1.778165,-3.039855,-0.022503,0.552736,-0.024490,80.936697,188.721378,950.669162,1021.170410,0
0.067708,36.774838,135.151965,-179.673675,-0.498882,-4.156360,-0.315012,4.434929,4.249297,0.257231,-4.270870,-0.029809,0.555349,-0.017021,33.197188,188.570720,949.908981,1021.956637,0
0.068750,-35.306752,175.574670,-149.992803,0.032688,-3.016721,-2.283429,5.084188,3.106138,2.217086,-4.932630,-0.022503,0.551887,-0.031958,-13.886341,188.512119,948.671034,1023.414120,0
0.069792,-107.433713,175.792126,-93.647159,1.095828,-1.259333,-3.827209,4.718513,1.316048,3.795043,-4.608866,-0.026156,0.569721,-0.039427,-61.410960,188.495823,947.356411,1024.583700,0
0.070833,-152.168535,178.667382,-5.293939,2.781018,0.459001,-4.799512,3.890149,-0.451988,4.793856,-3.819024,-0.033462,0.570440,-0.020755,-87.254310,188.721947,947.024957,1025.717880,0
0.071875,-165.609398,141.953514,71.992046,4.240008,2.227040,-4.910632,2.214764,-2.139157,5.020477,-2.267803,-0.066339,0.560314,-0.009553,-100.441769,188.495835,947.097880,1027.692016,0
0.072917,-185.265951,59.730882,127.069697,5.314458,3.984428,-4.569334,0.229675,-3.914544,4.638578,-0.325218,-0.110175,0.570570,-0.054364,-114.251279,188.571107,946.352027,1028.467970,0
0.073958,-165.756850,-16.402975,166.525190,6.106158,4.524070,-3.597031,-1.180783,-4.528395,3.736289,1.023206,-0.146705,0.554958,-0.017021,-101.731109,188.495653,946.185438,1029.617838,0
0.075011,-112.299646,-87.583662,181.679546,6.400218,4.811642,-1.386529,-3.359903,-4.723209,1.545616,3.161472,-0.208806,0.540063,-0.039427,-75.084750,188.721730,946.686952,1030.173925,0
0.076043,-34.535462,-135.146181,180.153031,6.377598,4.240048,0.458862,-4.494239,-4.252713,-0.334503,4.342677,-0.234377,0.533858,-0.031958,-26.010661,188.558767,946.008676,1031.494623,0
0.077083,37.047058,-175.230620,149.992046,5.823408,3.114609,2.455060,-5.177080,-3.146313,-2.281768,4.990205,-0.223418,0.549993,-0.017021,18.776938,188.571616,945.162106,1032.758273,0
0.078125,107.960372,-176.027960,92.870834,4.726338,1.378523,4.026619,-4.826331,-1.407683,-3.901692,4.712693,-0.234377,0.564038,-0.050629,67.025397,188.496214,945.642840,1034.543862,0
0.079167,151.560943,-178.722002,4.259091,3.018528,-0.357563,4.979079,-4.031549,0.356677,-4.858538,3.908619,-0.190541,0.564495,-0.005818,94.463456,188.584115,945.078935,1034.960199,0
0.080208,165.047177,-141.355766,-71.882008,1.593468,-2.136252,5.149728,-2.352433,2.146768,-5.043192,2.371630,-0.201500,0.562666,-0.039427,104.710316,188.571857,945.205893,1034.969108,0
0.081250,184.635675,-59.193537,-127.205872,0.530328,-3.914942,4.816367,-0.326299,3.881722,-4.820767,0.397025,-0.146705,0.558420,-0.002084,119.356766,188.571543,944.878269,1035.821101,0
0.082292,165.319397,16.251708,-166.661364,-0.227442,-4.490087,3.820252,1.065502,4.513951,-3.889102,-0.937168,-0.077298,0.569264,-0.024490,106.542536,188.496134,945.095067,1037.261730,0
0.083333,113.847129,86.067252,-181.150948,-0.544122,-4.731506,1.720872,3.237159,4.734496,-1.782362,-3.032740,-0.062686,0.559530,-0.046895,80.303337,188.722306,944.882454,1037.526036,0
0.084375,36.468591,135.200289,-180.104546,-0.476262,-4.184763,-0.263420,4.412541,4.256648,0.257231,-4.281544,-0.015197,0.559269,-0.031958,32.744788,188.571567,945.055315,1037.773835,0
0.085424,-36.406975,175.550508,-149.918940,0.032688,-3.027372,-2.291367,5.099113,3.117166,2.246463,-4.957535,-0.022503,0.566847,-0.039427,-15.673321,188.496203,945.344205,1038.223991,0
0.086458,-107.467740,176.009583,-93.745644,1.141068,-1.305487,-3.874832,4.722245,1.330751,3.845403,-4.623097,-0.018850,0.571093,-0.054364,-61.784190,188.571489,945.998271,1038.597864,0
0.087500,-152.293302,178.498249,-5.540152,2.803638,0.444800,-4.799512,3.908806,-0.385824,4.785462,-3.843929,-0.044421,0.566781,-0.050629,-88.724610,188.696534,945.305988,1039.263649,0
0.088541,-165.836248,141.893110,71.487311,4.206078,2.248342,-4.942381,2.267003,-2.172239,5.028871,-2.285592,-0.088257,0.561751,-0.017021,-100.803689,188.552597,945.766912,1039.381104,0
0.089583,-185.299979,60.310765,127.069697,5.257908,3.970226,-4.585208,0.203556,-3.921896,4.663758,-0.321660,-0.117481,0.558942,-0.024490,-113.685779,188.523146,946.158678,1039.570818,0
0.090625,-165.575370,-16.149277,166.845266,6.083538,4.570223,-3.597031,-1.218096,-4.535746,3.782453,1.090805,-0.146705,0.563123,-0.031958,-102.975209,188.592529,946.959397,1039.826034,0
0.091666,-113.864911,-86.158115,181.359470,6.366288,4.776140,-1.469870,-3.307663,-4.741588,1.650533,3.133009,-0.194194,0.550646,0.009119,-76.860420,188.585377,946.784098,1040.587052,0
0.092708,-35.318095,-134.989129,180.214584,6.377598,4.197444,0.470768,-4.497970,-4.274768,-0.313519,4.310656,-0.186888,0.566847,-0.013287,-27.254761,188.571594,946.518729,1040.728825,0
0.093750,36.763496,-175.266863,150.115152,5.778168,3.139461,2.455060,-5.199468,-3.135285,-2.281768,5.007994,-0.227071,0.560575,-0.039427,20.382958,188.496067,946.796747,1040.692436,0
0.094791,107.926344,-175.774261,92.784659,4.669788,1.346571,3.990902,-4.796480,-1.367250,-3.901692,4.694903,-0.208806,0.561425,-0.024490,66.572997,188.571493,946.873944,1040.046551,0
0.095842,152.025986,-178.842811,2.806439,3.041148,-0.385965,4.990985,-4.024086,0.415489,-4.883718,3.862367,-0.205153,0.561686,-0.061832,94.542626,188.722224,947.372446,1039.659268,0
0.096875,164.854354,-140.969177,-72.362121,1.627398,-2.093649,5.125917,-2.356164,2.098983,-5.034799,2.417882,-0.172276,0.561229,-0.058098,105.377606,188.571446,946.357695,1040.308732,0
0.097917,184.964607,-58.674059,-127.119697,0.530328,-3.872338,4.808430,-0.363612,3.892749,-4.774604,0.429045,-0.132093,0.529611,-0.039427,119.006156,188.474134,945.971518,1040.212180,0
0.098958,164.933752,17.036967,-166.562879,-0.261372,-4.454584,3.832158,1.046845,4.473517,-3.872315,-0.933610,-0.102869,0.535752,-0.028224,108.284276,188.638354,945.253687,1039.904514,0
0.100000,113.382087,86.441760,-181.224811,-0.510192,-4.731506,1.744683,3.244622,4.741847,-1.744592,-3.014950,-0.048074,0.558158,-0.020755,80.800977,188.516863,945.113893,1039.729147,0
0.101042,35.742671,135.441907,-179.772160,-0.442332,-4.188313,-0.267389,4.405078,4.271351,0.194280,-4.277986,-0.015197,0.558028,-0.039427,33.310288,188.577554,944.282700,1040.512875,0
0.102083,-35.783137,175.598832,-149.758902,0.055308,-3.048674,-2.247712,5.121501,3.183329,2.170923,-4.882820,-0.015197,0.543526,-0.046895,-13.547041,188.496035,942.721874,1040.846377,0
0.103136,-108.772128,175.429699,-92.268371,1.118448,-1.273534,-3.886737,4.688662,1.316048,3.837010,-4.591077,-0.015197,0.566063,-0.020755,-62.078250,188.646562,941.859678,1040.723523,0
0.104167,-152.225247,178.462006,-5.971023,2.792328,0.437700,-4.751889,3.912537,-0.360094,4.785462,-3.822582,-0.029809,0.570505,-0.046895,-87.322170,188.514655,941.689372,1040.535396,0
0.105208,-165.768193,142.086404,71.327273,4.273938,2.170235,-4.938412,2.240884,-2.139157,5.020477,-2.310497,-0.080951,0.565279,-0.020755,-100.577489,188.578432,941.226572,1040.761634,0
0.106250,-184.891649,60.818163,127.389773,5.348388,3.927623,-4.628862,0.304303,-3.841029,4.709922,-0.371470,-0.110175,0.560706,-0.043161,-114.104249,188.507600,940.134728,1041.501052,0
0.107292,-165.722823,-15.315694,166.746781,6.117468,4.481467,-3.668465,-1.128543,-4.491637,3.727896,1.008974,-0.132093,0.559204,-0.028224,-101.663249,188.665392,939.074072,1040.791332,0
0.108333,-114.182501,-85.928578,181.187122,6.354978,4.776140,-1.513524,-3.315126,-4.745264,1.700893,3.090315,-0.179582,0.557048,-0.024490,-75.808590,188.515616,938.427129,1041.274221,0
0.109375,-35.386150,-135.049534,180.017614,6.354978,4.243598,0.446956,-4.505433,-4.289471,-0.267356,4.307098,-0.234377,0.561555,0.020321,-26.338651,188.572306,937.987992,1041.775049,0
0.110417,36.604701,-175.363510,149.819697,5.766858,3.182065,2.383625,-5.162154,-3.194097,-2.264982,5.007994,-0.194194,0.572203,-0.028224,18.743008,188.514101,937.636112,1042.497411,0
