1-Time,2-VGERA,3-VGERB,4-VGERC,5-VN,6-IGERAN,7-IGERBN,8-IGERCN,9-IGERAT,10-IGERBT,11-IGERCT,12-IN,13-IFD,14-IFAULT,15-VFAULT,16-Speed (rad/s),17-FAULT 
0.000000,70.813682,67.305608,-198.028788,-0.838182,2.042425,-6.136924,3.513281,-1.525307,6.107421,-3.445450,-0.073645,0.200635,-0.046895,39.847468,188.495734,0
0.001042,29.663091,144.260967,-166.907576,-0.272682,4.129989,-5.918652,1.244608,-3.616809,6.048667,-1.399688,-0.121134,0.202790,-0.065566,14.908918,188.420287,0
0.002083,-13.086794,198.564630,-101.993750,0.960108,5.667259,-4.652674,-1.427053,-5.043000,4.806446,1.226003,-0.164970,0.182670,-0.050629,-17.652571,188.495792,0
0.003125,-88.038037,186.834073,-56.813826,1.808358,6.501575,-2.831094,-3.785279,-6.017073,3.152949,3.499467,-0.190541,0.178620,-0.043161,-60.913320,188.495584,0
0.004167,-162.524238,139.211149,-15.930303,2.588748,6.221103,-0.695996,-5.442007,-5.734041,0.895128,5.150308,-0.238030,0.186851,-0.013287,-104.411579,188.495674,0
0.005208,-195.859847,84.835000,39.689015,3.685818,4.726436,1.899458,-6.218132,-4.318877,-1.643871,5.972170,-0.252642,0.193514,-0.024490,-111.819629,188.495723,0
0.006250,-171.428101,39.120859,124.804546,5.235288,3.015202,3.986933,-6.464402,-2.580247,-3.729627,6.206988,-0.278213,0.213112,-0.054364,-92.332500,188.495792,0
0.007292,-124.855794,-2.304561,186.813069,6.377598,0.753674,5.125917,-5.132303,-0.444636,-4.938275,5.079151,-0.256295,0.218795,-0.069301,-59.476950,188.495685,0
0.008333,-72.226591,-66.587051,197.843372,6.603798,-1.891283,6.280774,-3.662144,2.341582,-6.088169,3.549277,-0.186888,0.186655,-0.024490,-35.092591,188.495747,0
0.009375,-30.644985,-144.170616,167.386932,6.083538,-3.961095,6.026785,-1.371082,4.436760,-6.075579,1.489284,-0.150358,0.191228,-0.050629,-10.572511,188.344985,0
0.010417,12.796792,-197.870235,102.842425,4.884678,-5.548069,4.804461,1.270728,5.940142,-4.762014,-1.079482,-0.099216,0.184761,-0.073035,22.373518,188.495763,0
0.011458,87.679981,-187.009502,57.527084,4.002498,-6.403687,3.050347,3.628953,6.903188,-3.137894,-3.424103,-0.051727,0.179535,-0.043161,66.143217,188.495635,0
0.012500,161.973359,-139.410740,16.274242,3.210798,-6.119664,0.847783,5.263293,6.576047,-0.884270,-5.018018,-0.026156,0.188550,-0.024490,108.623576,188.495796,0
0.013542,195.637900,-84.527193,-38.951136,2.170278,-4.585944,-1.747671,6.114046,5.168234,1.667320,-5.896806,-0.029809,0.192077,-0.031958,119.775236,188.571163,0
0.014583,170.979304,-39.296289,-124.509849,0.552948,-2.931514,-3.799428,6.341659,3.418577,3.765666,-6.099604,-0.015197,0.200047,-0.061832,97.109996,188.495620,0
0.015625,125.166945,2.382830,-186.542993,-0.600672,-0.627384,-4.978098,5.043143,1.235182,4.982707,-5.025134,-0.037115,0.215529,-0.035692,66.425967,188.495687,0
0.016667,72.242837,66.701563,-197.696402,-0.894732,2.053076,-6.160736,3.531938,-1.506928,6.111617,-3.473913,-0.066339,0.201680,-0.020755,41.102878,188.495644,0
0.017708,30.581833,144.188481,-167.498485,-0.283992,4.122888,-5.906746,1.255802,-3.565348,6.090634,-1.396130,-0.132093,0.197238,-0.058098,15.395248,188.344921,0
0.018750,-12.712491,198.129718,-102.670834,0.892248,5.688561,-4.664580,-1.412127,-5.098136,4.806446,1.208214,-0.146705,0.187831,-0.031958,-16.826941,188.495627,0
0.019792,-87.629707,187.172338,-57.257008,1.774428,6.522877,-2.878717,-3.777816,-6.079561,3.161342,3.520814,-0.183235,0.177902,-0.031958,-62.247900,188.495723,0
0.020833,-162.490210,139.597738,-16.225758,2.588748,6.238854,-0.684090,-5.456932,-5.726689,0.949685,5.182328,-0.230724,0.184499,-0.028224,-103.857389,188.495738,0
0.021875,-195.995957,84.931647,38.962690,3.606648,4.740637,1.903427,-6.262908,-4.359310,-1.631281,6.021980,-0.267254,0.192404,-0.061832,-113.957219,188.420150,0
0.022917,-171.507498,39.567853,124.324432,5.235288,3.029403,3.990902,-6.497985,-2.598626,-3.792578,6.253240,-0.270907,0.202399,-0.031958,-93.961139,188.495749,0
0.023958,-125.116671,-1.821324,186.419129,6.400218,0.746574,5.133854,-5.162154,-0.426258,-4.971848,5.146750,-0.248989,0.215790,-0.061832,-60.913320,188.495707,0
0.025000,-72.305989,-66.031329,198.015720,6.592488,-1.948087,6.300617,-3.643487,2.326879,-6.125939,3.556393,-0.241683,0.200700,-0.028224,-34.968181,188.495759,0
0.026042,-30.633642,-143.663218,167.608523,6.072228,-4.014349,6.098220,-1.386008,4.458814,-6.067185,1.492841,-0.157664,0.197434,-0.069301,-10.289761,188.420370,0
0.027083,12.501887,-197.991044,102.793182,4.873368,-5.562271,4.856053,1.274459,6.002629,-4.808177,-1.129292,-0.161317,0.186982,-0.024490,21.921118,188.495651,0
0.028125,87.010773,-187.106149,57.342424,4.002498,-6.403687,3.030504,3.643879,6.943622,-3.112713,-3.427661,-0.059033,0.177575,-0.035692,65.928327,188.495673,0
0.029167,161.428919,-139.640277,16.138826,3.188178,-6.105463,0.879532,5.322995,6.601777,-0.943023,-5.060712,-0.026156,0.184957,-0.046895,108.883706,188.495645,0
0.030208,195.637900,-84.527193,-38.520265,2.158968,-4.632098,-1.731796,6.084195,5.175586,1.625353,-5.896806,-0.015197,0.192534,-0.054364,118.621616,188.420318,0
0.031250,171.172127,-38.825133,-123.389584,0.541638,-2.920864,-3.787523,6.352853,3.433280,3.761469,-6.135182,-0.000585,0.201419,-0.050629,97.358816,188.495664,0
0.032292,124.747272,2.092889,-186.419887,-0.589362,-0.659336,-4.978098,5.061799,1.271939,4.978510,-5.028692,-0.011544,0.214745,-0.028224,63.790737,188.495749,0
0.033333,71.936590,65.541796,-197.979546,-0.872112,2.021124,-6.140893,3.535669,-1.448116,6.124207,-3.488144,-0.051727,0.199590,-0.039427,40.039738,188.495640,0
0.034375,30.298271,143.777731,-167.806251,-0.295302,4.101587,-5.930558,1.319235,-3.543294,6.078044,-1.453056,-0.113828,0.197434,-0.058098,14.988088,188.420236,0
0.035417,-11.963886,197.441106,-102.843182,0.903558,5.699212,-4.632831,-1.382276,-5.009918,4.764479,1.176193,-0.168623,0.189334,-0.020755,-16.770391,188.495698,0
0.036458,-86.813047,187.933435,-57.220076,1.797048,6.512226,-2.894591,-3.789010,-6.035452,3.148752,3.574182,-0.223418,0.174047,-0.039427,-60.246030,188.495763,0
0.037500,-160.720780,140.056812,-16.275000,2.588748,6.242405,-0.668216,-5.434544,-5.723013,0.911915,5.139634,-0.223418,0.182082,-0.043161,-103.495469,188.495665,0
0.038542,-196.642479,85.088699,38.421023,3.595338,4.712235,1.879615,-6.221863,-4.381365,-1.656461,6.029096,-0.267254,0.191816,-0.039427,-112.373819,188.420401,0
0.039583,-171.484813,39.012131,122.933334,5.223978,3.036503,3.923436,-6.468134,-2.587599,-3.733824,6.199873,-0.289172,0.199655,-0.039427,-92.196780,188.495607,0
0.040625,-124.878479,-1.543464,186.640720,6.388908,0.796278,5.098136,-5.177080,-0.466691,-4.984438,5.146750,-0.252642,0.228855,-0.039427,-59.409090,188.495716,0
0.041667,-72.453441,-64.702430,197.855682,6.592488,-1.877082,6.268869,-3.647218,2.308501,-6.096562,3.538603,-0.208806,0.187439,-0.024490,-35.092591,188.495743,0
0.042708,-30.520217,-143.554490,168.137879,6.060918,-3.982397,6.114094,-1.438247,4.422057,-6.125939,1.524862,-0.172276,0.175681,-0.046895,-10.629061,188.420188,0
0.043750,11.639857,-196.698387,103.334849,4.862058,-5.537419,4.848116,1.252071,5.899708,-4.787194,-1.047461,-0.088257,0.190313,-0.046895,21.502648,188.495712,0
0.044792,86.262168,-188.060541,57.465530,3.991188,-6.378835,3.074159,3.614028,6.932594,-3.142090,-3.409871,-0.080951,0.178947,-0.024490,65.543787,188.495662,0
0.045833,159.863654,-140.135594,16.569697,3.222108,-6.119664,0.871595,5.233442,6.594425,-0.930433,-5.046481,-0.029809,0.185087,-0.031958,107.549126,188.495635,0
0.046875,196.307108,-84.805054,-37.818561,2.170278,-4.649849,-1.696079,6.087926,5.219695,1.604369,-5.879017,-0.004238,0.193906,-0.039427,120.408596,188.495689,0
0.047917,171.058702,-39.030509,-122.404735,0.575568,-2.952816,-3.791491,6.345391,3.436956,3.706912,-6.138740,0.010374,0.173068,-0.035692,97.279646,188.495738,0
0.048958,125.166945,1.875432,-186.395266,-0.589362,-0.709040,-4.930475,5.058068,1.305021,4.978510,-5.110522,-0.011544,0.198348,-0.024490,66.844437,188.495731,0
0.050000,72.401632,64.973994,-197.696402,-0.826872,1.957219,-6.109144,3.550595,-1.418710,6.103224,-3.502375,-0.080951,0.187831,-0.039427,41.770168,188.495651,0
0.051042,30.298271,143.536113,-168.323296,-0.283992,4.058983,-5.950401,1.349086,-3.502860,6.153584,-1.477961,-0.091910,0.170912,-0.028224,15.904198,188.344836,0
0.052083,-11.782406,196.885385,-103.557197,0.892248,5.653058,-4.716171,-1.348694,-5.087109,4.793856,1.169077,-0.146705,0.202007,-0.050629,-16.046551,188.494372,0
0.053125,-86.189209,188.344186,-57.983334,1.797048,6.540628,-2.954120,-3.777816,-6.075885,3.241079,3.506583,-0.241683,0.177706,-0.043161,-61.591920,188.494994,0
0.054167,-160.346478,140.624615,-16.939773,2.532198,6.281458,-0.711870,-5.430813,-5.763447,0.928702,5.185886,-0.267254,0.186916,-0.054364,-102.907349,188.495193,0
0.055208,-196.721877,86.103495,37.682386,3.629268,4.811642,1.871678,-6.300222,-4.403419,-1.597707,6.004191,-0.285519,0.192926,-0.031958,-114.534029,188.420260,0
0.056250,-171.711663,40.268545,122.551705,5.235288,3.100408,3.982964,-6.550224,-2.642735,-3.708644,6.260356,-0.241683,0.190509,-0.050629,-94.232579,188.495694,0
0.057292,-126.069441,-0.794448,186.332955,6.411528,0.835331,5.082262,-5.203199,-0.448312,-5.013815,5.164539,-0.230724,0.204750,-0.058098,-61.840740,188.420320,0
0.058333,-73.553664,-64.340003,197.880304,6.682968,-1.869981,6.280774,-3.699457,2.271743,-6.079775,3.595529,-0.208806,0.200635,-0.009553,-35.884291,188.495703,0
0.059375,-31.404932,-143.228306,168.507197,6.117468,-3.950444,6.114094,-1.434516,4.429408,-6.117546,1.567556,-0.146705,0.200308,-0.069301,-10.821331,188.420388,0
0.060417,11.254212,-196.625901,104.208902,4.907298,-5.491265,4.828273,1.218488,5.892357,-4.816571,-1.022556,-0.117481,0.192404,-0.031958,21.242518,188.496042,0
0.061458,85.899208,-188.120945,58.573485,4.002498,-6.375284,3.125750,3.636416,6.954649,-3.179861,-3.388524,-0.055380,0.179796,-0.046895,65.374137,188.420363,0
0.062500,159.546064,-141.138309,17.148296,3.233418,-6.123215,0.899375,5.248368,6.609128,-0.968203,-5.000229,-0.051727,0.188876,-0.035692,107.956286,188.495759,0
0.063542,196.352478,-86.037306,-37.264583,2.147658,-4.642749,-1.660362,6.121508,5.212343,1.566599,-5.911038,0.003068,0.193514,-0.054364,119.153186,188.495678,0
0.064583,171.659854,-40.359408,-121.666099,0.609498,-2.917313,-3.775617,6.323002,3.433280,3.664945,-6.131624,-0.000585,0.207102,-0.065566,97.596326,188.495767,0
0.065625,126.210455,0.703585,-186.284470,-0.623292,-0.712591,-4.942381,5.072993,1.312372,5.020477,-5.071386,0.003068,0.218860,-0.046895,64.661607,188.495656,0
0.066667,73.932870,63.910874,-197.782576,-0.815562,1.967870,-6.125019,3.572983,-1.429737,6.069650,-3.516607,-0.044421,0.202725,-0.076769,40.978468,188.494773,0
0.067708,31.375808,143.342818,-168.766478,-0.283992,4.073185,-5.938495,1.356549,-3.532266,6.140994,-1.463729,-0.102869,0.197499,-0.028224,15.644068,188.419325,0
0.068750,-10.806951,195.991398,-104.406629,0.869628,5.571402,-4.700297,-1.341231,-5.028297,4.798052,1.122825,-0.139399,0.188615,-0.054364,-16.103101,188.495763,0
0.069792,-85.894304,189.020716,-58.426515,1.763118,6.558379,-2.950152,-3.714383,-6.061182,3.232686,3.499467,-0.216112,0.177967,-0.065566,-59.691840,188.495123,0
0.070833,-158.792555,141.482359,-17.013636,2.554818,6.224653,-0.707902,-5.389768,-5.737716,0.970669,5.143192,-0.238030,0.185349,-0.020755,-102.534119,188.493961,0
0.071875,-197.232289,86.562569,37.165341,3.572718,4.811642,1.812149,-6.233057,-4.418122,-1.580921,6.032654,-0.256295,0.193384,-0.035692,-112.984559,188.419513,0
0.072917,-171.961198,40.546406,120.840531,5.178738,3.093308,3.959153,-6.460671,-2.620680,-3.658284,6.210546,-0.248989,0.202007,-0.061832,-92.332500,188.495030,0
0.073958,-126.489114,-0.129998,186.542235,6.411528,0.849532,5.058451,-5.236782,-0.510800,-4.967652,5.164539,-0.212459,0.215855,-0.024490,-60.302580,188.494516,0
0.075000,-74.030049,-62.950699,197.658713,6.581178,-1.862881,6.256963,-3.706920,2.231310,-6.025218,3.570624,-0.234377,0.203182,-0.050629,-35.839051,188.495678,0
0.076042,-31.586412,-143.167901,169.159660,6.072228,-3.914942,6.145843,-1.490486,4.392651,-6.117546,1.599577,-0.190541,0.198348,-0.031958,-11.058841,188.420336,0
0.077083,10.539635,-195.345326,104.836743,4.884678,-5.484164,4.860021,1.173712,5.892357,-4.795587,-1.022556,-0.095563,0.186329,-0.054364,20.767498,188.495394,0
0.078125,85.388796,-189.196146,58.524243,4.013808,-6.385935,3.137656,3.569251,6.947297,-3.167270,-3.356504,-0.044421,0.177379,-0.073035,65.012217,188.495629,0
0.079167,158.082881,-141.500736,17.135985,3.256038,-6.084162,0.927155,5.229711,6.568695,-0.934630,-4.996671,-0.033462,0.184957,-0.050629,106.395506,188.495698,0
0.080208,197.078398,-85.916497,-36.624432,2.215518,-4.642749,-1.644487,6.080463,5.238073,1.579189,-5.918153,-0.015197,0.192338,-0.058098,121.064576,188.495702,0
0.081250,171.546429,-40.093628,-120.459659,0.632118,-2.963467,-3.763711,6.323002,3.425929,3.685929,-6.124509,-0.011544,0.200635,-0.046895,97.358816,188.495665,0
0.082292,126.233140,0.655261,-186.259849,-0.600672,-0.769395,-4.958255,5.110307,1.301345,5.007887,-5.096291,-0.015197,0.217097,-0.073035,67.059327,188.495588,0
0.083333,73.569910,63.222263,-197.634849,-0.804252,1.967870,-6.085333,3.561789,-1.415034,6.052864,-3.505933,-0.044421,0.197173,-0.043161,42.041608,188.495879,0
0.084375,31.182986,142.859582,-169.258902,-0.306612,4.073185,-6.017867,1.371475,-3.546969,6.145191,-1.488634,-0.121134,0.193710,-0.069301,16.198258,188.344910,0
0.085417,-10.421306,195.484000,-104.591288,0.858318,5.670810,-4.676485,-1.330037,-4.991539,4.856806,1.144172,-0.197847,0.185349,-0.031958,-15.277471,188.495770,0
0.086458,-84.975562,189.455629,-58.352652,1.751808,6.600983,-2.922371,-3.706920,-6.101616,3.224293,3.506583,-0.186888,0.174374,-0.073035,-60.924630,188.495669,0
0.087500,-158.134690,141.591087,-17.272159,2.532198,6.288558,-0.739650,-5.386036,-5.770798,0.949685,5.164539,-0.238030,0.181233,-0.054364,-101.844209,188.495761,0
0.088542,-197.345714,86.320951,36.439015,3.584028,4.840045,1.847866,-6.244251,-4.432825,-1.559937,6.046885,-0.245336,0.189856,-0.043161,-115.088219,188.420345,0
0.089583,-171.938513,40.401435,120.348106,5.190048,3.093308,3.975027,-6.520373,-2.558193,-3.712841,6.253240,-0.296478,0.174243,-0.039427,-94.255199,188.495680,0
0.090625,-126.466429,-0.142079,186.123675,6.377598,0.856632,5.090199,-5.262901,-0.525503,-4.984438,5.260601,-0.223418,0.217097,-0.054364,-61.852050,188.420276,0
0.091667,-73.859911,-62.503705,197.831061,6.603798,-1.841579,6.245057,-3.714383,2.249689,-6.079775,3.599087,-0.223418,0.202986,-0.069301,-35.872981,188.495750,0
0.092708,-31.575070,-142.503452,169.405872,6.083538,-3.932693,6.133937,-1.527800,4.440436,-6.113349,1.606693,-0.154011,0.171434,-0.050629,-11.081461,188.420336,0
0.093750,10.074592,-195.381568,104.972159,4.873368,-5.526768,4.848116,1.177443,5.881330,-4.812374,-1.047461,-0.091910,0.176726,-0.073035,20.315098,188.495696,0
0.094792,84.447368,-189.292793,58.524243,4.013808,-6.439189,3.117813,3.576714,6.980379,-3.196647,-3.370735,-0.066339,0.176660,-0.054364,64.718157,188.420226,0
0.095833,157.345619,-141.887325,17.431439,3.244728,-6.098363,0.931123,5.259562,6.616480,-0.930433,-5.000229,-0.007891,0.182082,-0.054364,106.870526,188.495703,0
0.096875,197.146453,-86.158115,-36.119697,2.238138,-4.664050,-1.624645,6.099120,5.260128,1.574992,-5.896806,0.003068,0.191359,-0.050629,119.809166,188.495658,0
0.097917,171.818649,-40.069466,-119.634849,0.643428,-2.991869,-3.743868,6.326734,3.447983,3.685929,-6.096046,0.021333,0.215268,-0.050629,97.720736,188.495714,0
0.098958,126.176427,0.196187,-186.075190,-0.600672,-0.776496,-4.946349,5.140158,1.345454,5.016280,-5.153216,0.006721,0.188288,-0.046895,65.114007,188.495689,0
0.100000,73.694678,62.267871,-197.733334,-0.838182,1.911065,-6.065490,3.580446,-1.392980,6.048667,-3.484586,-0.051727,0.193449,-0.065566,41.408248,188.495718,0
0.101042,31.500576,142.775016,-169.542046,-0.283992,4.030581,-5.986118,1.416251,-3.510212,6.149388,-1.509981,-0.099216,0.196454,-0.050629,16.039918,188.495582,0
0.102083,-9.899551,194.662498,-105.416099,0.880938,5.610455,-4.704266,-1.274067,-4.991539,4.814839,1.097920,-0.164970,0.183716,-0.043161,-15.311401,188.495712,0
0.103125,-84.567232,190.047593,-58.783523,1.751808,6.544178,-2.997775,-3.684532,-6.094264,3.283046,3.417637,-0.197847,0.178490,-0.058098,-59.171580,188.420260,0
0.104167,-156.524055,142.666288,-17.641477,2.554818,6.235304,-0.787273,-5.378574,-5.767122,1.012636,5.111172,-0.219765,0.186525,-0.050629,-101.357879,188.495640,0
0.105208,-197.822099,87.275343,36.032765,3.584028,4.840045,1.804212,-6.236789,-4.414446,-1.517970,5.982844,-0.241683,0.193057,-0.043161,-113.606609,188.495667,0
0.106250,-172.369528,41.283341,118.895455,5.133498,3.093308,3.879781,-6.479328,-2.631708,-3.649890,6.214104,-0.270907,0.191424,-0.039427,-92.513460,188.495660,0
0.107292,-127.169664,0.921041,186.320645,6.388908,0.902786,5.102105,-5.221856,-0.584315,-4.946668,5.249928,-0.248989,0.227353,-0.013287,-61.071660,188.495749,0
0.108333,-75.232354,-61.295615,197.498675,6.615108,-1.806076,6.177591,-3.721845,2.223958,-5.974858,3.623992,-0.183235,0.202072,-0.054364,-36.936121,188.495707,0
0.109375,-32.573210,-142.588018,170.058334,6.140088,-3.914942,6.177591,-1.531531,4.377948,-6.134332,1.642271,-0.157664,0.193057,-0.039427,-11.714821,188.420345,0
0.110417,9.507467,-193.762727,106.350947,4.918608,-5.441561,4.879864,1.114010,5.796787,-4.808177,-0.944284,-0.099216,0.189334,-0.058098,19.953178,188.495642,0
0.111458,84.265888,-190.150537,59.533712,4.081668,-6.439189,3.165436,3.531938,6.950973,-3.272188,-3.324483,-0.044421,0.178751,-0.058098,64.537197,188.495749,0
0.112500,155.916464,-143.107497,17.997727,3.278658,-6.116114,0.966841,5.229711,6.612804,-0.976597,-4.975324,-0.022503,0.187570,-0.031958,105.072236,188.495709,0
0.113542,197.668208,-87.547419,-35.479546,2.204208,-4.724405,-1.573053,6.058075,5.278507,1.524632,-5.893248,-0.018850,0.194625,-0.061832,121.709246,188.495736,0
0.114583,172.034157,-41.531256,-118.760796,0.620808,-2.991869,-3.696245,6.334197,3.481065,3.656552,-6.067583,-0.004238,0.202268,-0.043161,97.698116,188.495703,0
0.115625,127.526185,-0.685719,-186.062879,-0.600672,-0.833300,-4.934443,5.177472,1.389563,4.986904,-5.146101,-0.015197,0.213634,-0.050629,67.873647,188.420345,0
0.116667,75.600218,61.530936,-197.364016,-0.860802,1.857811,-6.077396,3.599102,-1.334168,6.023487,-3.520165,-0.040768,0.203509,-0.024490,43.127368,188.495615,0
0.117708,32.430661,142.533398,-170.243751,-0.340542,4.030581,-6.017867,1.431176,-3.495509,6.149388,-1.556233,-0.110175,0.194494,-0.024490,16.831618,188.344751,0
0.118750,-9.355111,194.058453,-106.302462,0.858318,5.606905,-4.755857,-1.251679,-4.987863,4.869396,1.030321,-0.164970,0.188680,-0.054364,-14.564941,188.495712,0
0.119792,-84.068162,190.458344,-59.312879,1.751808,6.540628,-3.049366,-3.699457,-6.108967,3.283046,3.414079,-0.227071,0.177771,-0.061832,-60.426990,188.420321,0
0.120833,-156.399288,143.149524,-18.121591,2.554818,6.306310,-0.819022,-5.367380,-5.763447,1.042012,5.107614,-0.238030,0.184891,-0.054364,-100.769759,188.495781,0
0.121875,-197.992237,87.806902,35.417235,3.538788,4.886198,1.796275,-6.229326,-4.458555,-1.480200,6.029096,-0.278213,0.193188,-0.050629,-115.563239,188.495683,0
0.122917,-172.482953,41.754496,118.612311,5.099568,3.111059,3.903593,-6.486791,-2.694195,-3.658284,6.206988,-0.274560,0.201288,-0.050629,-94.560569,188.495667,0
0.123958,-127.725446,1.198902,185.889773,6.377598,0.927638,5.090199,-5.318872,-0.591666,-5.009619,5.306853,-0.216112,0.215725,-0.058098,-62.621130,188.420294,0
0.125000,-75.697397,-60.824460,197.732576,6.615108,-1.795425,6.217277,-3.725577,2.194552,-6.062989,3.631107,-0.208806,0.202856,-0.043161,-36.687301,188.495696,0
0.126042,-32.754690,-142.056458,170.439963,6.117468,-3.900740,6.157748,-1.546457,4.363245,-6.159512,1.660060,-0.183235,0.195931,-0.043161,-11.635651,188.495857,0
0.127083,9.087795,-193.968103,106.597159,4.929918,-5.466413,4.879864,1.106547,5.848248,-4.883718,-0.915821,-0.110175,0.188158,-0.065566,19.613878,188.495615,0
