1-Time,2-VGERA,3-VGERB,4-VGERC,5-VN,6-IGERAN,7-IGERBN,8-IGERCN,9-IGERAT,10-IGERBT,11-IGERCT,12-IN,13-IFD,14-IFAULT,15-VFAULT,16-Speed (rad/s),17-FAULT 
0.000000,66.843807,76.619985,-198.324243,-0.872112,2.305146,-5.836749,3.401350,-1.749528,5.835466,-3.425442,-0.051727,0.203052,-0.035692,-12.698791,188.721898,0
0.001042,23.810360,149.516160,-161.786364,-0.148272,4.264900,-5.410047,0.999653,-3.682972,5.601794,-1.118463,-0.121134,0.178686,-0.028224,-15.718561,188.797373,0
0.002083,-22.047369,203.783581,-96.835606,1.050588,5.702762,-4.152800,-1.735068,-5.153272,4.300484,1.569206,-0.146705,0.196389,-0.013287,-17.482921,188.646435,0
0.003125,-95.694225,182.895698,-51.224811,1.932768,6.391516,-2.331696,-4.195533,-5.917828,2.543916,4.009426,-0.205153,0.170389,-0.035692,-8.299201,188.797362,0
0.004167,-171.541526,133.859309,-8.039205,2.713158,5.990335,-0.392487,-5.703940,-5.524523,0.565763,5.566446,-0.223418,0.182997,-0.020755,-1.773332,188.721938,0
0.005208,-194.045047,79.603969,49.832955,3.832848,4.343006,2.083909,-6.397415,-3.910869,-1.883763,6.228846,-0.263601,0.187112,-0.043161,-1.863812,188.797295,0
0.006250,-169.749411,33.092488,136.253410,5.495418,2.699227,3.935492,-6.483609,-2.220024,-3.773282,6.422998,-0.230724,0.197303,-0.039427,1.936348,188.571029,0
0.007292,-120.681753,-10.882002,188.758145,6.502008,0.338292,4.857473,-4.928188,-0.043979,-4.736171,5.003026,-0.252642,0.215268,-0.061832,10.147408,188.797306,0
0.008333,-66.918301,-76.179289,198.052652,6.649038,-2.210808,5.962327,-3.392356,2.698130,-5.803810,3.415550,-0.186888,0.173656,-0.028224,17.725108,188.721933,0
0.009375,-24.111704,-149.268758,161.613258,6.049608,-4.117307,5.554674,-1.053347,4.580114,-5.574167,1.119992,-0.164970,0.185153,-0.043161,20.529988,188.797246,0
0.010417,22.131670,-203.596583,96.773296,4.805508,-5.572921,4.327906,1.700964,5.987926,-4.284943,-1.537221,-0.091910,0.185022,-0.028224,21.299068,188.571178,0
0.011458,95.426908,-182.708700,51.581061,3.923328,-6.204871,2.502992,4.036056,6.785564,-2.608951,-3.886076,-0.059033,0.175877,-0.017021,14.173768,188.797222,0
0.012500,171.228839,-133.539421,8.604735,3.086388,-5.842743,0.529494,5.591477,6.395935,-0.610654,-5.450710,-0.000585,0.182932,-0.050629,7.433008,188.721837,0
0.013542,193.324030,-79.392809,-49.538258,2.011938,-4.170562,-1.962141,6.308460,4.745523,1.854987,-6.189248,-0.000585,0.186133,-0.028224,6.697858,188.797141,0
0.014583,169.255244,-32.784681,-136.340341,0.326748,-2.562285,-3.771816,6.394655,3.073057,3.736448,-6.383400,-0.033462,0.191228,-0.050629,2.671498,188.571154,0
0.015625,120.539205,11.371023,-188.586554,-0.611982,-0.226202,-4.667128,4.847069,0.856579,4.715453,-4.932972,-0.033462,0.194951,-0.028224,-5.347291,188.721878,0
0.016667,66.832465,76.813280,-197.930304,-0.838182,2.369051,-5.775792,3.295565,-1.793637,5.791149,-3.368338,-0.077298,0.191163,-0.061832,-12.879751,188.797345,0
0.017708,23.787675,149.685293,-161.343182,-0.170892,4.282651,-5.360519,0.897787,-3.749136,5.533304,-1.072780,-0.117481,0.195931,-0.020755,-15.967381,188.797150,0
0.018750,-22.421672,203.795662,-96.638637,1.005348,5.734715,-4.141370,-1.793837,-5.112839,4.244080,1.656764,-0.168623,0.175942,0.005384,-17.335891,188.571241,0
0.019792,-95.784965,182.569513,-50.966288,1.932768,6.359564,-2.324076,-4.246467,-5.884746,2.523772,4.024654,-0.208806,0.169932,-0.002084,-8.740291,188.721835,0
0.020833,-171.836431,133.847228,-7.989962,2.724468,5.947731,-0.316290,-5.664760,-5.439981,0.545619,5.577867,-0.238030,0.178686,-0.031958,-2.338832,188.797262,0
0.021875,-193.511949,79.688535,49.956061,3.832848,4.300402,2.133437,-6.362153,-3.896166,-1.920022,6.236460,-0.267254,0.186198,-0.020755,-2.123942,188.721837,0
0.022917,-169.670013,33.334106,136.425758,5.472798,2.702777,4.000259,-6.534543,-2.227375,-3.773282,6.442032,-0.223418,0.195539,-0.046895,1.755388,188.571038,0
0.023958,-120.409533,-11.002811,188.585796,6.468078,0.338292,4.899382,-4.951695,-0.010898,-4.728113,4.957343,-0.208806,0.229639,-0.017021,10.260508,188.722020,0
0.025000,-66.963671,-76.710848,197.892614,6.615108,-2.271163,5.992806,-3.400192,2.661373,-5.823954,3.442199,-0.190541,0.187504,-0.054364,17.906068,188.797380,0
0.026042,-24.202444,-149.256677,161.071591,5.936508,-4.181212,5.592773,-0.955398,4.657305,-5.541936,1.131413,-0.150358,0.178098,-0.031958,20.982388,188.646476,0
0.027083,22.369863,-203.801958,96.785606,4.794198,-5.651028,4.289807,1.728390,6.043063,-4.301058,-1.590518,-0.095563,0.176073,-0.002084,21.536578,188.646540,0
0.028125,95.608388,-182.080493,51.814962,3.912018,-6.251025,2.506802,4.110497,6.814970,-2.580750,-3.935566,-0.055380,0.176007,-0.020755,14.004118,188.721835,0
0.029167,171.501059,-133.817282,8.161553,3.086388,-5.878245,0.544734,5.591477,6.373880,-0.606625,-5.477359,-0.007891,0.185675,-0.035692,7.025848,188.797409,0
0.030208,193.074495,-79.066625,-49.772159,1.989318,-4.195413,-1.912613,6.304542,4.774929,1.871102,-6.231124,-0.000585,0.186198,-0.046895,6.392488,188.646451,0
0.031250,169.561492,-33.086704,-136.451137,0.338058,-2.604889,-3.768006,6.465178,3.091435,3.744506,-6.394820,0.035945,0.203901,-0.024490,2.671498,188.646426,0
0.032292,120.539205,11.346861,-188.512690,-0.623292,-0.243954,-4.720466,4.858823,0.852904,4.739626,-4.944393,-0.044421,0.201484,-0.009553,-5.471701,188.721835,0
0.033333,66.866492,77.199869,-198.078031,-0.815562,2.340649,-5.802461,3.322991,-1.789961,5.819351,-3.337883,-0.066339,0.179731,-0.031958,-12.732721,188.797202,0
0.034375,23.878415,149.794021,-161.220076,-0.148272,4.229397,-5.368139,0.893869,-3.738108,5.505103,-1.080394,-0.106522,0.201288,-0.017021,-15.684631,188.646444,0
0.035417,-22.501069,203.940633,-96.761743,1.016658,5.713413,-4.110891,-1.793837,-5.065054,4.276311,1.637730,-0.164970,0.173068,-0.035692,-17.448991,188.646467,0
0.036458,-96.068527,182.509109,-51.360227,1.932768,6.345363,-2.312647,-4.203369,-5.877395,2.527801,4.020847,-0.201500,0.174831,-0.035692,-8.299201,188.721985,0
0.037500,-171.927171,133.521043,-7.632955,2.769708,5.979684,-0.301051,-5.700022,-5.458359,0.577849,5.555026,-0.267254,0.180645,-0.031958,-1.682852,188.797298,0
0.038542,-193.614032,79.990558,50.386932,3.878088,4.303953,2.102959,-6.366071,-3.877787,-1.839446,6.263108,-0.230724,0.188354,-0.039427,-1.976912,188.571087,0
0.039583,-169.885521,33.261621,137.016667,5.518038,2.702777,3.924063,-6.491445,-2.238402,-3.741051,6.411577,-0.263601,0.204097,0.005384,1.936348,188.721920,0
0.040625,-120.840548,-11.147782,188.708902,6.468078,0.348943,4.846044,-4.908598,-0.003546,-4.724085,4.964957,-0.190541,0.197891,-0.009553,10.203958,188.721947,0
0.041667,-67.077096,-76.964547,197.941857,6.671658,-2.217909,5.939468,-3.415864,2.635642,-5.807839,3.407936,-0.205153,0.197564,-0.031958,17.781658,188.797353,0
0.042708,-24.089019,-149.570780,161.305493,6.015678,-4.124408,5.550864,-1.006331,4.602169,-5.513734,1.161868,-0.157664,0.196127,-0.031958,20.529988,188.571029,0
0.043750,22.744165,-203.693230,96.871781,4.771578,-5.562271,4.301237,1.732308,5.984251,-4.264798,-1.506766,-0.062686,0.174766,-0.031958,21.253828,188.646475,0
0.044792,96.084773,-182.418758,50.805493,3.923328,-6.247474,2.491562,4.063481,6.770861,-2.560605,-3.897497,-0.048074,0.174439,-0.035692,14.083288,188.721989,0
0.045833,171.761937,-133.503178,8.235417,3.120318,-5.853393,0.575213,5.571888,6.366529,-0.610654,-5.465938,-0.018850,0.185153,-0.031958,7.421698,188.797360,0
0.046875,193.153893,-79.429052,-50.104546,1.978008,-4.195413,-1.958331,6.304542,4.763902,1.863045,-6.196862,-0.033462,0.189725,-0.031958,6.697858,188.571098,0
0.047917,169.323299,-33.002138,-137.042046,0.338058,-2.597788,-3.764196,6.445588,3.120841,3.740477,-6.375786,0.017680,0.176530,-0.035692,2.637568,188.721925,0
0.048958,120.686657,11.733450,-188.709660,-0.657222,-0.272356,-4.659508,4.850987,0.911716,4.707395,-4.913938,-0.037115,0.215202,-0.017021,-5.415151,188.721857,0
0.050000,67.104685,77.550215,-197.979546,-0.838182,2.322897,-5.756743,3.362170,-1.793637,5.799207,-3.372145,-0.040768,0.196715,-0.039427,-12.958921,188.797255,0
0.051042,23.912443,149.878587,-161.195455,-0.136962,4.236497,-5.425286,0.944802,-3.705027,5.533304,-1.133690,-0.110175,0.180515,-0.013287,-15.967381,188.571020,0
0.052083,-23.045509,204.037280,-96.749432,1.027968,5.716963,-4.148990,-1.793837,-5.142245,4.320628,1.561592,-0.154011,0.191228,-0.028224,-17.381131,188.721884,0
0.053125,-96.374775,182.327895,-50.683144,1.910148,6.356013,-2.316456,-4.195533,-5.884746,2.576147,4.013233,-0.205153,0.173198,-0.054364,-8.728981,188.721829,0
0.054166,-172.562351,133.883470,-7.842235,2.747088,5.993885,-0.346769,-5.672596,-5.528199,0.614109,5.555026,-0.248989,0.184630,-0.002084,-2.304902,188.722029,0
0.055208,-193.409867,79.978477,50.608523,3.866778,4.350106,2.083909,-6.366071,-3.881463,-1.871676,6.270722,-0.252642,0.191620,-0.035692,-2.146562,188.571140,0
0.056250,-169.885521,33.213297,137.546023,5.506728,2.756031,3.996449,-6.581558,-2.260457,-3.793426,6.464874,-0.270907,0.196454,-0.009553,1.845868,188.721960,0
0.057292,-120.704438,-11.413562,188.832008,6.468078,0.316990,4.849854,-4.932106,-0.025601,-4.764373,4.983991,-0.216112,0.211217,-0.020755,10.362298,188.721980,0
0.058333,-67.349316,-77.471945,198.077273,6.682968,-2.221459,5.973757,-3.400192,2.749591,-5.872300,3.442199,-0.216112,0.160068,-0.024490,17.962618,188.646587,0
0.059375,-24.338554,-149.776156,160.936175,6.004368,-4.177662,5.585153,-0.990660,4.609520,-5.562080,1.135220,-0.146705,0.195474,-0.043161,21.005008,188.570993,0
0.060417,22.971015,-204.140224,96.637879,4.805508,-5.601324,4.316476,1.700964,6.039387,-4.305087,-1.571483,-0.088257,0.187831,-0.035692,21.525268,188.721889,0
0.061458,96.493104,-181.802632,51.531818,3.923328,-6.240374,2.502992,4.094825,6.770861,-2.592836,-3.927952,-0.055380,0.177575,-0.017021,13.958878,188.721846,0
0.062500,172.295034,-133.720634,7.804545,3.086388,-5.860494,0.556163,5.556216,6.384907,-0.638856,-5.446903,-0.040768,0.187766,-0.024490,6.969298,188.646491,0
0.063542,192.700193,-79.622346,-50.473864,1.966698,-4.177662,-1.908804,6.312378,4.778605,1.846929,-6.166407,-0.018850,0.193384,-0.046895,6.482968,188.571009,0
0.064583,169.527464,-32.905490,-137.239016,0.292818,-2.626191,-3.787055,6.469096,3.124517,3.736448,-6.448117,0.021333,0.198675,-0.054364,2.614948,188.721817,0
0.065625,120.550547,11.830097,-188.660417,-0.657222,-0.251054,-4.705227,4.894084,0.849228,4.699338,-4.936779,-0.011544,0.207755,-0.013287,-5.562181,188.721857,0
0.066667,67.047972,77.912642,-198.114963,-0.792942,2.315797,-5.749123,3.326909,-1.756879,5.799207,-3.391180,-0.077298,0.190575,-0.017021,-12.777961,188.646565,0
0.067708,23.787675,150.023558,-161.010796,-0.125652,4.257799,-5.394808,0.917377,-3.701351,5.549420,-1.091814,-0.080951,0.191097,-0.031958,-15.718561,188.571183,0
0.068750,-23.079537,204.266817,-96.724811,1.005348,5.713413,-4.099462,-1.809509,-5.076081,4.231994,1.614889,-0.143052,0.170128,-0.050629,-17.505541,188.721920,0
0.069792,-96.658337,182.279572,-50.535417,1.898838,6.338262,-2.312647,-4.215123,-5.873719,2.539887,4.047495,-0.230724,0.171892,-0.028224,-8.231341,188.797302,0
0.070833,-172.789201,133.653933,-7.596023,2.735778,5.958382,-0.388677,-5.676514,-5.498793,0.577849,5.528377,-0.241683,0.186002,-0.024490,-1.728092,188.646514,0
0.071875,-193.443894,78.999923,50.854735,3.866778,4.289751,2.114388,-6.436594,-3.885138,-1.871676,6.255495,-0.300131,0.188158,-0.035692,-1.875122,188.646569,0
0.072917,-169.998946,33.164974,137.706061,5.506728,2.716978,3.943112,-6.514953,-2.245754,-3.769253,6.415384,-0.245336,0.198936,-0.046895,1.958968,188.721924,0
0.073958,-120.681753,-11.534371,188.844319,6.445458,0.334742,4.834614,-4.889008,0.022184,-4.728113,4.934502,-0.234377,0.202333,-0.002084,10.237888,188.797179,0
0.075000,-67.065754,-77.773968,198.015720,6.626418,-2.239210,5.935658,-3.384520,2.683427,-5.836040,3.434585,-0.194194,0.187635,-0.024490,17.849518,188.571100,0
0.076041,-23.964252,-150.054017,160.985417,5.936508,-4.149260,5.566104,-1.002413,4.583790,-5.509705,1.123799,-0.157664,0.190967,-0.020755,20.552608,188.646514,0
0.077083,23.209208,-204.007334,96.527084,4.782888,-5.601324,4.293617,1.724472,5.987926,-4.236597,-1.563870,-0.077298,0.187243,-0.031958,21.287758,188.721922,0
0.078125,96.776666,-182.056331,51.260985,3.900708,-6.158717,2.529661,4.083071,6.752483,-2.572692,-3.908917,-0.062686,0.179404,-0.024490,14.094598,188.797271,0
0.079167,172.589939,-133.237398,7.558333,3.075078,-5.796589,0.594262,5.524872,6.348150,-0.606625,-5.439290,-0.000585,0.189921,-0.024490,7.285978,188.571033,0
0.080208,192.995098,-79.586103,-50.806250,1.932768,-4.181212,-1.836417,6.273199,4.756550,1.818728,-6.162600,0.006721,0.194625,-0.002084,6.629998,188.646509,0
0.081250,169.448067,-32.941733,-137.583713,0.315438,-2.636841,-3.741337,6.425998,3.069381,3.676016,-6.364365,-0.004238,0.202986,-0.013287,2.581018,188.721895,0
0.082291,120.686657,12.373738,-188.808145,-0.668532,-0.265255,-4.678558,4.870577,0.889661,4.663078,-4.898710,-0.007891,0.207102,-0.031958,-5.516941,188.797360,0
0.083333,67.047972,78.468364,-197.954925,-0.804252,2.276744,-5.760552,3.366088,-1.749528,5.791149,-3.383566,-0.062686,0.198675,-0.043161,-13.049401,188.571203,0
0.084375,23.560825,150.337662,-160.727652,-0.148272,4.250698,-5.425286,0.940884,-3.705027,5.541362,-1.107042,-0.095563,0.190183,-0.028224,-15.944761,188.646536,0
0.085417,-23.555922,204.327222,-96.503220,1.050588,5.748916,-4.183278,-1.789919,-5.098136,4.332714,1.569206,-0.143052,0.186525,-0.005818,-17.392441,188.722023,0
0.086458,-97.055325,181.917145,-50.227652,1.910148,6.377315,-2.354555,-4.234713,-5.910477,2.620464,3.998005,-0.197847,0.174178,-0.005818,-8.661121,188.721938,0
0.087500,-173.186188,133.581448,-7.251326,2.769708,6.015187,-0.400107,-5.684350,-5.553929,0.646339,5.539798,-0.208806,0.187635,-0.020755,-2.180492,188.571143,0
0.088541,-193.194359,79.531483,51.347159,3.866778,4.367858,2.061050,-6.397415,-3.958653,-1.851532,6.232653,-0.259948,0.195017,-0.043161,-2.044772,188.646598,0
0.089583,-170.021631,32.971679,138.063069,5.495418,2.795084,3.946922,-6.585476,-2.304566,-3.765224,6.491522,-0.248989,0.205534,-0.031958,1.902418,188.721922,0
0.090625,-120.727123,-11.945122,188.918182,6.468078,0.363144,4.865093,-4.998711,-0.062358,-4.707969,5.033481,-0.234377,0.222715,-0.046895,10.384918,188.721931,0
0.091666,-67.077096,-78.341770,198.175758,6.660348,-2.154004,5.977567,-3.502058,2.569479,-5.876329,3.495495,-0.197847,0.204228,-0.035692,17.996548,188.571132,0
0.092708,-23.941567,-150.138583,160.653031,5.970438,-4.131508,5.581343,-1.061182,4.602169,-5.594311,1.211358,-0.150358,0.194102,-0.024490,20.993698,188.721987,0
0.093750,23.606195,-204.454327,96.551705,4.782888,-5.629726,4.385053,1.646113,6.054090,-4.377606,-1.476311,-0.102869,0.187374,-0.035692,21.581818,188.721956,0
0.094792,97.128284,-181.512691,51.162500,3.900708,-6.254575,2.567759,4.063481,6.785564,-2.637153,-3.863235,-0.059033,0.181299,-0.031958,13.947568,188.721942,0
0.095833,173.213777,-133.454854,7.225947,3.052458,-5.913748,0.636170,5.528790,6.429016,-0.659000,-5.481165,0.014027,0.192926,-0.005818,6.878818,188.571040,0
0.096875,192.756905,-79.429052,-51.052462,1.966698,-4.255768,-1.851656,6.281035,4.833741,1.782468,-6.204476,0.003068,0.198283,-0.035692,6.369868,188.721922,0
0.097917,169.754314,-32.506821,-138.063826,0.304128,-2.672344,-3.710858,6.492603,3.183329,3.655872,-6.406241,0.010374,0.207167,-0.009553,2.547088,188.721804,0
0.098958,120.573232,12.482466,-188.869698,-0.657222,-0.318510,-4.678558,4.921510,0.937446,4.683222,-5.012917,-0.015197,0.222192,-0.061832,-5.618731,188.646556,0
0.100000,66.809780,78.782467,-198.238069,-0.860802,2.234140,-5.806271,3.467955,-1.664985,5.807264,-3.501580,-0.062686,0.204946,-0.005818,-12.811891,188.571009,0
0.101042,23.413373,150.422228,-160.703031,-0.148272,4.204545,-5.398618,1.007489,-3.679296,5.561506,-1.160339,-0.124787,0.194690,-0.031958,-15.741181,188.721905,0
0.102083,-23.862169,204.677568,-96.330872,0.994038,5.716963,-4.217567,-1.680217,-5.127542,4.373003,1.546364,-0.161317,0.196323,-0.028224,-17.539471,188.721840,0
0.103125,-97.304860,181.929226,-50.067614,1.910148,6.366664,-2.373604,-4.195533,-5.851665,2.543916,3.963743,-0.223418,0.175877,-0.013287,-8.231341,188.646460,0
0.104166,-173.560491,133.400234,-7.263636,2.758398,6.064891,-0.434395,-5.633417,-5.509820,0.646339,5.513150,-0.230724,0.188419,-0.039427,-1.626302,188.571134,0
0.105208,-193.217044,79.628130,51.408712,3.889398,4.385609,2.083909,-6.381743,-3.951302,-1.847503,6.240267,-0.256295,0.196585,-0.017021,-1.954292,188.721876,0
0.106250,-169.624643,32.065611,138.149243,5.506728,2.752481,3.916443,-6.546296,-2.286187,-3.757166,6.502943,-0.241683,0.198022,-0.035692,2.004208,188.797307,0
0.107291,-120.466246,-12.150497,189.028978,6.490698,0.402197,4.861283,-4.951695,-0.051331,-4.724085,5.022060,-0.245336,0.213373,-0.024490,10.328368,188.570991,0
0.108333,-66.975014,-78.438418,198.200379,6.682968,-2.150453,5.977567,-3.502058,2.591533,-5.852156,3.503109,-0.212459,0.199720,-0.043161,17.928688,188.571116,0
0.109375,-23.794114,-150.283554,160.751516,5.970438,-4.127958,5.543245,-1.057264,4.536005,-5.558051,1.165675,-0.154011,0.199459,-0.013287,20.563918,188.721896,0
0.110417,23.651565,-204.550975,96.268561,4.794198,-5.587123,4.335525,1.677457,6.017332,-4.325231,-1.552449,-0.095563,0.189660,-0.013287,21.321688,188.797306,0
0.111458,97.536614,-181.730147,50.670076,3.889398,-6.190670,2.525851,4.028220,6.741455,-2.617009,-3.859428,-0.022503,0.180515,-0.035692,14.049358,188.571046,0
0.112500,173.463312,-132.512544,6.868939,3.052458,-5.874695,0.613311,5.481775,6.384907,-0.654971,-5.439290,-0.007891,0.187178,-0.028224,7.048468,188.646339,0
0.113542,192.688850,-78.208880,-51.163258,1.966698,-4.181212,-1.912613,6.292788,4.749199,1.891246,-6.204476,-0.018850,0.188550,-0.020755,6.550828,188.721875,0
0.114583,169.255244,-32.265202,-138.346970,0.304128,-2.629741,-3.748957,6.410327,3.091435,3.712275,-6.413855,0.024986,0.197042,-0.005818,2.603638,188.797289,0
0.115625,120.085505,12.603275,-188.943561,-0.645912,-0.226202,-4.689987,4.850987,0.860255,4.707395,-4.952007,-0.018850,0.212851,-0.035692,-5.528251,188.570988,0
0.116666,66.401450,79.036166,-197.942614,-0.849492,2.315797,-5.794841,3.334745,-1.760555,5.815322,-3.410214,-0.062686,0.187047,-0.046895,-13.060711,188.646429,0
0.117708,23.141153,150.688008,-160.025947,-0.125652,4.275550,-5.375759,0.909541,-3.723405,5.501074,-1.095621,-0.113828,0.193253,-0.058098,-15.967381,188.722018,0
0.118750,-23.873512,204.665487,-95.801515,1.027968,5.734715,-4.156610,-1.801673,-5.123866,4.320628,1.630116,-0.132093,0.182801,-0.020755,-17.437681,188.797297,0
0.119792,-97.633792,181.530556,-50.535417,1.921458,6.352463,-2.327886,-4.187697,-5.877395,2.568089,3.967550,-0.216112,0.176856,-0.043161,-8.672431,188.571145,0
0.120833,-173.832711,133.122373,-6.968182,2.769708,5.986784,-0.365818,-5.668678,-5.502468,0.569792,5.520764,-0.223418,0.186721,-0.028224,-2.067392,188.646438,0
0.121875,-192.854084,78.238826,51.568750,3.889398,4.286201,2.156296,-6.417005,-3.910869,-1.911965,6.274529,-0.248989,0.189595,-0.013287,-1.976912,188.722079,0
0.122916,-169.726726,32.657576,138.567803,5.506728,2.756031,3.954541,-6.522789,-2.271484,-3.761195,6.434419,-0.274560,0.201680,-0.005818,1.913728,188.797278,0
0.123958,-120.046573,-12.126335,189.004357,6.456768,0.320540,4.903192,-4.959531,0.003805,-4.732142,4.987798,-0.223418,0.212589,-0.046895,10.441468,188.571158,0
0.125000,-66.566684,-78.909573,197.941857,6.649038,-2.214358,5.985186,-3.404110,2.631967,-5.868271,3.468847,-0.197847,0.201223,-0.065566,18.109648,188.646456,0
0.126042,-23.589949,-150.452686,159.852841,5.936508,-4.145710,5.581343,-0.994577,4.605844,-5.537907,1.154254,-0.150358,0.192012,-0.061832,21.027628,188.721949,0
0.127083,24.025868,-204.877159,95.911553,4.794198,-5.619075,4.324096,1.728390,6.057766,-4.353433,-1.590518,-0.091910,0.169605,-0.013287,21.570508,188.797409,0
0.128125,97.377819,-180.969050,49.980682,3.912018,-6.233273,2.491562,4.134004,6.781889,-2.608951,-3.954600,-0.062686,0.174570,-0.035692,13.789228,188.571024,0
