1-Time,2-VGERA,3-VGERB,4-VGERC,5-VN,6-IGERAN,7-IGERBN,8-IGERCN,9-IGERAT,10-IGERBT,11-IGERCT,12-IN,13-IFD,14-IFAULT,15-VFAULT,16-Speed (rad/s),17-Active Power,18-Reactive Power,19-FAULT 
0.000000,-110.269338,-76.046399,186.296023,6.411528,2.706327,1.895489,-4.203192,-2.594950,-1.706821,4.118532,-0.230724,0.430121,-0.031958,-98.745269,188.495779,1203.797914,0.156559,0
0.001042,-31.960715,-133.297803,191.318751,6.490698,1.218761,3.324180,-4.102445,-1.029081,-3.167270,3.997566,-0.197847,0.399549,-0.002084,-27.763711,188.420334,1203.128519,0.725075,0
0.002083,35.992206,-169.733809,153.685228,5.789478,-0.329160,3.967090,-3.057662,0.540465,-3.889102,3.122335,-0.208806,0.390208,-0.054364,32.360248,188.495577,1203.166801,1.256656,0
0.003125,87.714008,-197.580293,76.928599,4.341798,-2.363470,4.447289,-1.546457,2.495964,-4.308771,1.585345,-0.150358,0.402424,-0.043161,79.715217,188.495772,1202.459084,1.281689,0
0.004167,143.405686,-175.774261,9.601894,3.075078,-3.329146,3.871844,-0.109879,3.536201,-3.901692,0.183554,-0.132093,0.403077,-0.024490,131.560256,188.495698,1201.661394,1.211299,0
0.005208,183.966467,-127.160703,-54.474811,1.830978,-4.152810,2.851918,1.651327,4.348542,-2.848322,-1.460171,-0.106522,0.396871,-0.054364,168.860635,188.495696,1200.999234,0.813862,0
0.006250,189.705773,-50.410720,-111.891478,0.756528,-4.230916,1.435134,2.987158,4.550708,-1.488593,-2.829942,-0.069992,0.403012,0.009119,171.473245,188.495718,1200.516776,0.792507,0
0.007292,160.691656,15.732229,-168.717235,-0.329232,-3.872338,-0.033242,3.961045,4.131673,-0.002964,-3.719404,-0.015197,0.387856,-0.039427,150.900355,188.495595,1200.670998,0.707041,0
0.008333,109.843227,76.535419,-186.198296,-0.645912,-2.576487,-1.692110,4.166271,2.892945,1.679910,-3.961338,-0.015197,0.392690,-0.039427,103.613246,188.495745,1200.754831,0.203409,0
0.009375,31.511918,133.653933,-191.036364,-0.792942,-1.127973,-3.180329,4.039404,1.352806,3.203309,-3.836813,-0.029809,0.406670,-0.035692,32.167978,188.420244,1200.503760,-0.273468,0
0.010417,-35.964617,169.932888,-153.550569,-0.057792,0.480303,-3.890706,2.979695,-0.216740,3.874780,-2.968698,-0.080951,0.401901,-0.024490,-27.571441,188.495731,1200.339958,0.499214,0
0.011458,-87.765817,197.694805,-76.830871,1.435128,2.511062,-4.279627,1.472222,-2.168563,4.311236,-1.456614,-0.051727,0.402032,-0.024490,-74.643660,188.495622,1199.959767,0.456889,0
0.012500,-143.661659,175.671317,-9.294886,2.690538,3.526442,-3.716088,-0.038983,-3.241882,3.870583,-0.012128,-0.102869,0.398569,-0.002084,-126.997649,188.495721,1200.174158,0.615039,0
0.013542,-184.460634,127.468510,54.486364,3.900708,4.332355,-2.700131,-1.781533,-4.035844,2.796230,1.670734,-0.175929,0.395303,-0.028224,-163.732528,188.495835,1200.317174,0.079725,0
0.014583,-189.905034,50.464828,111.964584,4.986468,4.357207,-1.239692,-3.102438,-4.212280,1.398731,3.047620,-0.197847,0.385243,-0.028224,-166.356448,188.495694,1200.456886,-0.358295,0
0.015625,-161.163138,-15.593555,168.642614,6.094848,4.012830,0.192967,-4.035281,-3.778542,-0.019751,3.894388,-0.234377,0.410132,-0.028224,-146.880628,188.495707,1200.960549,-0.036501,0
0.016667,-109.895036,-76.251774,186.148296,6.354978,2.685026,1.923269,-4.247969,-2.543490,-1.752985,4.107859,-0.208806,0.397394,-0.017021,-98.620859,188.495803,1200.639942,-0.868703,0
0.017708,-31.960715,-133.442774,191.244887,6.535938,1.240062,3.363865,-4.098714,-0.981296,-3.255401,4.033144,-0.208806,0.392298,-0.084238,-27.910741,188.495655,1201.697615,-1.939229,0
0.018750,35.754013,-169.552596,153.463637,5.812098,-0.378864,4.002807,-3.053930,0.569871,-3.935265,3.100988,-0.183235,0.406408,-0.035692,31.783438,188.495598,1201.975981,-2.659936,0
0.019792,87.532528,-197.737345,77.125568,4.341798,-2.345719,4.427446,-1.520337,2.503315,-4.317164,1.578230,-0.172276,0.403077,-0.035692,79.590807,188.495667,1202.117480,-2.893983,0
0.020833,143.348973,-175.351430,9.515720,3.063768,-3.343347,3.852001,-0.053909,3.558256,-3.905888,0.201343,-0.110175,0.402228,-0.005818,131.673356,188.495611,1202.273950,-2.752797,0
0.021875,183.989152,-127.184865,-54.548674,1.876218,-4.184763,2.824138,1.640133,4.348542,-2.848322,-1.442382,-0.088257,0.397459,0.001650,168.487405,188.495752,1202.228531,-2.536453,0
0.022917,189.546978,-50.036212,-111.842235,0.767838,-4.241567,1.407354,2.968501,4.536005,-1.438233,-2.783690,-0.106522,0.402750,-0.065566,172.366735,188.495689,1201.425434,-2.611097,0
0.023958,160.805081,15.816795,-168.421781,-0.295302,-3.886539,-0.013399,3.912537,4.087564,-0.023948,-3.683826,-0.033462,0.399484,-0.020755,151.126555,188.495694,1200.560116,-2.462300,0
0.025000,109.843227,76.499176,-185.989016,-0.668532,-2.562285,-1.715922,4.125226,2.874566,1.646336,-3.918644,-0.004238,0.414574,0.001650,103.782896,188.495615,1199.702044,-2.244729,0
0.026042,31.942933,133.472720,-190.962501,-0.759012,-1.159926,-3.160486,4.039404,1.367509,3.140359,-3.861718,-0.051727,0.411177,-0.043161,33.016228,188.495785,1199.452177,-1.638522,0
0.027083,-35.624342,169.667108,-153.685985,-0.069102,0.476753,-3.827209,3.009546,-0.187334,3.883173,-2.915331,-0.055380,0.391057,-0.013287,-27.164281,188.495647,1198.952022,-1.882365,0
0.028125,-87.709105,197.441106,-77.126326,1.435128,2.447157,-4.263753,1.427445,-2.117103,4.281859,-1.421035,-0.080951,0.397982,-0.035692,-74.428770,188.495595,1198.052465,-1.849171,0
0.029167,-143.548234,175.937097,-8.950189,2.679228,3.409282,-3.676402,-0.042715,-3.208800,3.832813,-0.015686,-0.124787,0.398243,-0.013287,-126.647039,188.495593,1197.383948,-1.734319,0
0.030208,-183.916194,127.383944,54.671023,3.844158,4.286201,-2.692194,-1.733025,-4.013790,2.825607,1.603135,-0.150358,0.395695,-0.028224,-163.721218,188.495624,1196.983266,-0.633887,0
0.031250,-190.143227,50.235291,111.915341,5.009088,4.396260,-1.251598,-3.053930,-4.193901,1.432305,2.983579,-0.208806,0.385896,-0.039427,-166.232038,188.495696,1196.450526,0.327156,0
0.032292,-160.958973,-15.666040,168.519508,6.038298,4.009280,0.153281,-3.968116,-3.734433,0.030609,3.844578,-0.212459,0.400333,-0.054364,-146.609188,188.495678,1195.380836,0.955393,0
0.033333,-110.167256,-76.034318,186.246781,6.400218,2.713428,1.851835,-4.188267,-2.598626,-1.656461,4.097185,-0.205153,0.412680,-0.024490,-99.220289,188.495687,1195.185992,2.395432,0
0.034375,-32.391730,-133.297803,191.047917,6.524628,1.275565,3.300368,-4.102445,-1.069514,-3.116910,4.001123,-0.212459,0.411504,-0.028224,-28.623271,188.495573,1193.805468,4.239788,0
0.035417,35.391053,-169.673405,153.906819,5.812098,-0.332711,3.951216,-3.065124,0.533113,-3.889102,3.086757,-0.179582,0.402881,-0.039427,31.975708,188.495626,1193.196755,4.564577,0
0.036458,87.623268,-197.254108,77.347159,4.375728,-2.342168,4.383791,-1.538994,2.444503,-4.325558,1.592461,-0.124787,0.399745,-0.024490,79.681287,188.495834,1192.921453,5.273022,0
0.037500,143.212863,-175.762180,9.097159,3.041148,-3.329146,3.879781,-0.076297,3.536201,-3.838741,0.251153,-0.143052,0.399027,-0.024490,131.288816,188.495797,1192.125596,5.710449,0
0.038542,183.694247,-126.882843,-54.794887,1.819668,-4.184763,2.855887,1.636402,4.337515,-2.835732,-1.456614,-0.069992,0.397198,-0.076769,168.713605,188.571049,1191.843585,5.562100,0
0.039584,189.751143,-49.637542,-111.916099,0.756528,-4.266419,1.423228,2.949844,4.547032,-1.488593,-2.797922,-0.048074,0.409740,-0.013287,171.439315,188.495781,1192.304371,6.115637,0
0.040625,160.600916,16.167142,-168.618751,-0.306612,-3.893640,-0.025305,3.920000,4.098591,-0.023948,-3.687383,-0.051727,0.409675,-0.065566,150.855115,188.495785,1192.449935,6.302606,0
0.041667,109.843227,76.523338,-186.099811,-0.623292,-2.622640,-1.672268,4.151345,2.929702,1.650533,-3.964896,-0.018850,0.386615,-0.043161,104.201366,188.495673,1193.423359,6.734729,0
0.042709,32.373948,133.774742,-190.851705,-0.770322,-1.110222,-3.172392,4.069255,1.404266,3.140359,-3.865276,-0.048074,0.396022,-0.061832,32.948368,188.420274,1193.626215,7.114228,0
0.043750,-35.318095,170.029535,-153.661364,-0.023862,0.462552,-3.847051,2.979695,-0.209388,3.895763,-2.961583,-0.066339,0.411504,-0.024490,-27.514891,188.495720,1194.303516,7.119777,0
0.044792,-88.015352,197.670644,-76.830871,1.389888,2.493311,-4.275658,1.446102,-2.131806,4.336416,-1.445940,-0.106522,0.399549,-0.031958,-74.768070,188.495848,1195.239709,7.415267,0
0.045834,-143.514207,175.683398,-8.679356,2.701848,3.490939,-3.755774,-0.065103,-3.238206,3.849600,-0.026359,-0.095563,0.398504,-0.046895,-126.884549,188.495765,1195.635557,7.518250,0
0.046875,-184.313181,127.118164,54.929546,3.878088,4.364307,-2.708068,-1.796459,-4.013790,2.834000,1.684965,-0.143052,0.394193,-0.028224,-163.653358,188.495595,1196.072468,6.808298,0
0.047917,-189.802952,49.715812,112.001515,4.963848,4.406911,-1.259535,-3.098707,-4.190226,1.394535,3.033389,-0.175929,0.388836,-0.058098,-166.288588,188.495765,1196.136359,6.083452,0
0.048959,-161.015685,-15.931820,168.605682,6.083538,4.027031,0.200904,-4.039012,-3.738108,-0.023948,3.876599,-0.227071,0.394911,0.009119,-146.880628,188.495799,1196.581998,5.362562,0
0.050000,-109.997118,-76.239693,186.099054,6.411528,2.706327,1.907395,-4.244237,-2.558193,-1.719411,4.132764,-0.205153,0.409936,-0.039427,-99.175049,188.495589,1197.003731,4.365087,0
0.051042,-32.777375,-133.636068,191.010985,6.502008,1.254264,3.359897,-4.098714,-1.007026,-3.230221,4.004681,-0.223418,0.407454,-0.013287,-28.555411,188.569572,1197.955227,2.750650,0
0.052087,35.254943,-169.745890,153.045076,5.732928,-0.385965,3.986933,-3.012885,0.555168,-3.884905,3.072525,-0.197847,0.407062,-0.031958,32.134048,188.495528,1197.674205,2.530796,0
0.053125,87.555213,-197.761506,76.953220,4.364418,-2.409624,4.439352,-1.512874,2.536397,-4.317164,1.596019,-0.135746,0.400137,-0.050629,79.658667,188.495410,1198.241021,1.728128,0
0.054167,143.167493,-175.315187,8.777083,3.029838,-3.336246,3.855970,-0.024058,3.591337,-3.868118,0.194227,-0.132093,0.398504,-0.035692,131.594186,188.495229,1198.892103,0.954393,0
0.055209,184.023180,-126.834519,-54.868750,1.819668,-4.184763,2.836044,1.684910,4.344866,-2.810552,-1.470845,-0.080951,0.395238,-0.028224,168.464785,188.495408,1198.914992,0.605243,0
0.056250,189.410868,-49.154306,-112.125379,0.756528,-4.255768,1.403385,2.957307,4.572763,-1.400463,-2.797922,-0.044421,0.378515,-0.061832,172.321495,188.488473,1198.769448,-0.154299,0
0.057292,160.748369,16.251708,-168.581819,-0.329232,-3.897190,-0.041180,3.893881,4.098591,-0.040734,-3.722962,-0.044421,0.390600,-0.020755,151.239655,188.495978,1199.159833,-0.154135,0
0.058334,109.967994,76.487095,-185.939773,-0.645912,-2.594238,-1.688142,4.117763,2.874566,1.654730,-3.954222,-0.022503,0.400725,-0.039427,104.246606,188.495472,1198.656712,-0.742706,0
0.059375,32.873018,133.750580,-190.864016,-0.759012,-1.131523,-3.176361,4.031941,1.374860,3.144555,-3.847487,-0.048074,0.411961,-0.069301,33.468628,188.495475,1198.449619,-1.309051,0
0.060417,-35.204670,169.812079,-153.599811,-0.069102,0.498054,-3.851020,2.964769,-0.187334,3.887370,-2.915331,-0.051727,0.409479,-0.043161,-27.413101,188.495454,1197.826459,-1.416537,0
0.061459,-87.901927,197.646482,-76.572349,1.401198,2.514612,-4.232004,1.464759,-2.172239,4.311236,-1.428151,-0.069992,0.397198,-0.024490,-74.440080,188.494315,1197.632891,-1.986013,0
0.062500,-143.570919,175.743803,-8.211553,2.690538,3.402182,-3.708151,-0.001670,-3.227179,3.857993,-0.033475,-0.124787,0.397328,-0.039427,-126.703589,188.494898,1197.650749,-1.660034,0
0.063542,-183.961564,126.949031,55.052652,3.900708,4.311053,-2.704099,-1.725563,-3.991735,2.825607,1.652945,-0.150358,0.394323,-0.043161,-163.664668,188.496071,1197.109986,-1.276724,0
0.064584,-189.984432,49.715812,111.816856,4.997778,4.371408,-1.247629,-3.057662,-4.179198,1.419715,2.969348,-0.164970,0.401770,-0.020755,-166.130248,188.496159,1196.608843,-0.476063,0
0.065625,-160.834205,-15.738526,168.642614,6.083538,4.005729,0.165187,-3.997967,-3.778542,-0.061718,3.873041,-0.190541,0.433976,-0.031958,-146.744908,188.496125,1196.960047,-0.675155,0
0.066667,-110.609613,-75.913509,186.000569,6.422838,2.716978,1.871678,-4.177073,-2.587599,-1.639674,4.100743,-0.212459,0.401770,-0.035692,-99.638759,188.496011,1196.418872,0.265088,0
0.067709,-33.333157,-133.466935,190.826326,6.502008,1.250713,3.280525,-4.106177,-1.051135,-3.146287,4.015355,-0.194194,0.412418,-0.054364,-28.928641,188.496074,1195.888851,1.295409,0
0.068750,34.903326,-169.757971,153.771402,5.789478,-0.354012,3.971059,-3.039005,0.518410,-3.897495,3.083199,-0.194194,0.410720,-0.031958,32.258458,188.496156,1196.183657,1.523442,0
0.069792,87.736693,-197.459484,76.719318,4.353108,-2.335068,4.403634,-1.524069,2.495964,-4.321361,1.592461,-0.146705,0.400660,-0.065566,79.760457,188.496092,1195.887917,1.990272,0
0.070834,143.156151,-175.701776,8.506250,3.063768,-3.307844,3.832158,-0.065103,3.595013,-3.830348,0.179996,-0.117481,0.396806,-0.002084,131.209646,188.496087,1195.598850,1.630622,0
0.071875,183.637535,-126.665386,-55.028788,1.864908,-4.188313,2.836044,1.606551,4.341190,-2.852519,-1.445940,-0.059033,0.396218,-0.017021,168.679675,188.496105,1195.678223,2.330708,0
0.072917,189.728458,-49.202630,-111.903788,0.767838,-4.245117,1.435134,2.961038,4.495572,-1.421446,-2.819269,-0.073645,0.398961,-0.013287,171.439315,188.496044,1195.088512,2.164410,0
0.073959,160.532861,15.925524,-168.754167,-0.317922,-3.886539,0.018349,3.905075,4.083888,-0.036538,-3.694499,-0.018850,0.387138,-0.009553,151.024765,188.496129,1194.633051,2.141955,0
0.075000,110.433037,76.305882,-186.050569,-0.668532,-2.594238,-1.723859,4.132688,2.903972,1.608566,-3.932875,-0.059033,0.406343,-0.050629,104.744246,188.496163,1194.434621,2.784638,0
0.076042,33.213293,133.895551,-190.679357,-0.759012,-1.135074,-3.144612,4.013284,1.367509,3.190719,-3.861718,-0.033462,0.412680,-0.039427,32.993608,188.420752,1194.989455,2.346136,0
0.077083,-35.159300,170.005373,-153.587500,-0.069102,0.512255,-3.839114,2.979695,-0.209388,3.904157,-2.915331,-0.073645,0.408630,-0.043161,-27.842881,188.496132,1195.259755,2.036487,0
0.078125,-87.890585,197.694805,-76.104546,1.389888,2.468459,-4.283596,1.434908,-2.139157,4.302843,-1.417477,-0.084604,0.396675,-0.039427,-74.847240,188.496243,1194.865503,2.353523,0
0.079167,-143.525549,175.622994,-7.891477,2.667918,3.476738,-3.692277,-0.024058,-3.241882,3.866387,-0.044148,-0.132093,0.395956,-0.039427,-126.895859,188.496129,1195.063546,2.509943,0
0.080209,-184.029619,126.852384,55.126515,3.878088,4.296852,-2.708068,-1.777802,-4.017465,2.829804,1.635155,-0.179582,0.392037,-0.020755,-163.472398,188.496033,1195.331005,2.719986,0
0.081250,-189.734897,49.522518,111.890720,5.009088,4.396260,-1.263503,-3.080050,-4.245362,1.415518,2.994253,-0.194194,0.402424,-0.031958,-166.164178,188.496103,1196.190100,2.637669,0
0.082292,-160.936288,-15.496908,168.839584,6.094848,4.009280,0.196935,-4.009161,-3.807948,0.005429,3.883714,-0.216112,0.424765,-0.061832,-146.846698,188.496083,1196.617734,3.486631,0
0.083334,-110.813778,-75.853104,185.951326,6.400218,2.713428,1.875646,-4.240506,-2.583923,-1.690035,4.157669,-0.205153,0.414509,-0.031958,-99.627449,188.496194,1197.538344,2.803154,0
0.084375,-33.741487,-133.551502,190.986364,6.535938,1.225861,3.332117,-4.143490,-1.054811,-3.205041,4.008239,-0.219765,0.412353,-0.024490,-28.544101,188.496098,1198.067949,2.252634,0
0.085417,35.141518,-169.649243,153.463637,5.812098,-0.396616,3.998839,-3.057662,0.558844,-3.905888,3.079641,-0.179582,0.392364,-0.061832,32.224528,188.496107,1198.126216,1.840045,0
0.086459,87.657296,-197.797749,76.226894,4.353108,-2.388322,4.419509,-1.509143,2.558452,-4.304574,1.606693,-0.154011,0.397002,-0.046895,79.771767,188.494460,1198.416362,1.455359,0
0.087500,142.929301,-175.423915,8.321591,3.041148,-3.346897,3.848033,-0.057640,3.587662,-3.838741,0.183554,-0.121134,0.397459,-0.028224,131.413226,188.495635,1198.322680,1.628865,0
0.088542,183.694247,-126.604982,-55.041099,1.887528,-4.174112,2.840012,1.643865,4.363245,-2.844125,-1.456614,-0.069992,0.398112,-0.054364,168.385615,188.495702,1198.549825,1.394124,0
0.089584,189.456238,-49.395924,-111.916099,0.767838,-4.273520,1.427196,2.990889,4.554384,-1.442430,-2.801480,-0.073645,0.402946,-0.046895,172.366735,188.495738,1199.114954,1.858679,0
0.090625,160.805081,15.418126,-168.815720,-0.329232,-3.893640,0.010412,3.942388,4.135348,-0.057521,-3.658921,-0.051727,0.396087,-0.058098,151.364065,188.496132,1199.312664,2.447207,0
0.091667,110.920764,76.136749,-185.915152,-0.702462,-2.587137,-1.676236,4.114031,2.900296,1.604369,-3.950664,-0.037115,0.407323,-0.024490,104.619836,188.493557,1199.507678,2.291556,0
0.092709,33.530883,133.702257,-190.925569,-0.736392,-1.106671,-3.132706,3.998359,1.374860,3.173932,-3.858160,-0.037115,0.417383,-0.017021,33.163258,188.495750,1199.386821,2.349420,0
0.093750,-35.522260,169.763755,-153.538258,-0.057792,0.501605,-3.815303,2.975964,-0.198361,3.862190,-2.929562,-0.037115,0.411373,-0.017021,-27.933361,188.495676,1198.974099,2.832732,0
0.094792,-87.879242,197.646482,-75.956818,1.412508,2.432956,-4.275658,1.431176,-2.153860,4.260876,-1.396130,-0.080951,0.396283,0.012853,-74.598420,188.495649,1198.426475,2.467149,0
0.095834,-143.287357,175.888774,-7.792992,2.713158,3.430584,-3.724025,-0.005401,-3.212476,3.807633,-0.079727,-0.143052,0.393866,-0.039427,-126.590489,188.495586,1197.578063,2.744554,0
0.096875,-183.791426,126.876546,55.225000,3.923328,4.321704,-2.692194,-1.718100,-3.991735,2.804623,1.606693,-0.164970,0.397394,-0.024490,-163.653358,188.495758,1196.939324,2.916373,0
0.097917,-190.007117,49.945349,112.001515,5.009088,4.389159,-1.287315,-3.024079,-4.252713,1.440698,2.930211,-0.219765,0.403665,-0.043161,-166.118938,188.495747,1196.766841,3.697913,0
0.098959,-160.993000,-14.784134,168.790341,6.060918,4.027031,0.153281,-3.968116,-3.796920,0.026413,3.816115,-0.175929,0.409479,-0.046895,-146.824078,188.495716,1195.929560,4.045670,0
0.100000,-111.278821,-75.611486,185.988258,6.434148,2.741830,1.843898,-4.188267,-2.613329,-1.643871,4.132764,-0.212459,0.419996,-0.013287,-99.763169,188.486987,1195.665401,4.676373,0
0.101042,-33.696117,-133.466935,190.801705,6.524628,1.257814,3.320211,-4.072594,-1.058487,-3.108517,4.004681,-0.201500,0.403600,-0.013287,-28.453621,188.495729,1194.728052,5.473360,0
0.102084,35.311656,-169.661324,153.709849,5.789478,-0.350462,3.975027,-3.042736,0.522086,-3.905888,3.108104,-0.197847,0.411308,-0.054364,32.767408,188.492866,1194.972972,6.116494,0
0.103125,87.725351,-197.459484,76.251515,4.330488,-2.335068,4.427446,-1.512874,2.499640,-4.317164,1.585345,-0.154011,0.398047,-0.013287,79.783077,188.492879,1194.569000,6.495106,0
0.104167,142.997356,-175.834666,8.112311,3.052458,-3.293643,3.852001,-0.087491,3.572959,-3.880708,0.240479,-0.117481,0.394389,-0.035692,131.141786,188.496152,1195.044477,7.503447,0
0.105208,183.569480,-126.508335,-55.028788,1.842288,-4.138609,2.891604,1.636402,4.330163,-2.856715,-1.449498,-0.088257,0.396218,-0.035692,168.758845,188.496105,1194.691650,7.789054,0
0.106250,189.751143,-49.963727,-111.916099,0.756528,-4.241567,1.462914,2.938650,4.539681,-1.492790,-2.783690,-0.077298,0.408368,-0.017021,171.473245,188.496226,1194.717764,8.332773,0
0.107292,160.759711,14.922809,-169.037311,-0.340542,-3.900740,0.006443,3.931194,4.091239,-0.023948,-3.680268,-0.059033,0.412549,-0.031958,151.126555,188.496141,1194.565896,7.453617,0
0.108334,111.204327,76.052183,-186.124432,-0.634602,-2.587137,-1.692110,4.140151,2.907648,1.629549,-3.968453,-0.069992,0.414182,-0.017021,104.676386,188.496170,1195.048045,7.158130,0
0.109375,33.258663,133.859309,-190.827084,-0.736392,-1.124423,-3.168424,3.987165,1.349130,3.136162,-3.847487,-0.033462,0.419931,-0.039427,32.371558,188.420728,1194.513087,7.234512,0
0.110417,-35.692397,169.981212,-153.415152,-0.046482,0.512255,-3.847051,2.987158,-0.202037,3.887370,-2.933120,-0.099216,0.409544,-0.005818,-28.351831,188.496080,1194.866249,7.211222,0
0.111458,-88.106092,197.815614,-75.612121,1.423818,2.500411,-4.279627,1.472222,-2.183266,4.286056,-1.403246,-0.091910,0.395565,-0.013287,-74.937720,188.496163,1195.417960,7.146456,0
