1-Time,2-VGERA,3-VGERB,4-VGERC,5-VN,6-IGERAN,7-IGERBN,8-IGERCN,9-IGERAT,10-IGERBT,11-IGERCT,12-IN,13-IFD,14-IFAULT,15-VFAULT,16-Speed (rad/s),17-Active Power,18-Reactive Power,19-FAULT 
0.000000,-177.553051,140.829990,1.661553,2.905428,6.668438,-2.636633,-4.091251,-6.325836,2.875967,3.862367,-0.183235,0.311426,-0.005818,-1.897742,188.420481,1520.575448,-924.241333,0
0.001042,-197.107522,79.495241,57.847159,3.945948,5.834123,0.097721,-5.680815,-5.564956,0.177494,5.506093,-0.219765,0.312406,-0.039427,28.797598,188.473930,1520.961453,-925.417988,0
0.002083,-175.261866,28.127237,143.442803,5.653758,4.548922,2.510620,-6.613657,-4.219632,-2.302752,6.399112,-0.234377,0.318677,-0.050629,79.251507,188.628636,1521.427524,-926.823548,0
0.003125,-126.579854,-21.235337,191.552652,6.513318,2.138283,4.264734,-5.729322,-1.951694,-4.065363,5.659080,-0.230724,0.324034,-0.035692,110.942126,188.515383,1521.400743,-927.591470,0
0.004175,-63.243331,-86.278924,201.351895,6.705588,-0.510225,6.276806,-4.908421,0.849228,-6.062989,4.798081,-0.201500,0.309532,-0.069301,124.084346,188.430497,1521.080580,-928.384574,0
0.005208,-15.241869,-149.498295,162.339584,5.981748,-2.821456,6.999088,-3.277812,3.135544,-6.877147,3.307343,-0.179582,0.315345,-0.035692,104.133506,188.494878,1521.110419,-928.849858,0
0.006250,31.137616,-203.427450,97.745834,4.805508,-4.976475,6.518889,-0.800183,5.230722,-6.436494,0.927144,-0.117481,0.314431,-0.024490,70.452327,188.495622,1521.290399,-928.687666,0
0.007292,103.559481,-187.589385,47.272349,3.844158,-6.268776,4.939393,1.890135,6.671616,-4.984438,-1.705663,-0.026156,0.303783,-0.069301,41.442178,188.494625,1520.737205,-929.287273,0
0.008333,176.582500,-140.425536,-1.563826,2.860188,-6.510195,2.875730,4.002090,6.895837,-2.869305,-3.794119,-0.022503,0.307572,-0.031958,6.562138,188.494433,1520.508263,-929.642066,0
0.009375,196.726780,-78.643793,-57.281629,1.785738,-5.654578,0.117564,5.565534,6.112902,-0.154045,-5.331109,0.003068,0.323119,-0.043161,-24.133201,188.494927,1520.114288,-929.645791,0
0.010417,174.790384,-27.396598,-142.717235,0.270198,-4.380028,-2.271524,6.468526,4.808011,2.242267,-6.220570,0.046904,0.302346,-0.039427,-74.021610,188.494353,1519.357521,-928.849647,0
0.011458,126.335222,21.591468,-191.467235,-0.679842,-2.011992,-4.033575,5.640162,2.518018,3.996484,-5.512559,0.010374,0.309662,-0.020755,-107.657549,188.494484,1519.190481,-928.170079,0
0.012500,63.373002,84.460492,-201.303410,-0.849492,0.629415,-6.017867,4.826723,-0.202037,5.994110,-4.701370,-0.018850,0.295291,-0.050629,-119.046719,188.494254,1517.866835,-928.130336,0
0.013542,14.906497,149.443675,-162.611175,-0.204822,2.986799,-6.756023,3.196114,-2.532462,6.888005,-3.182169,-0.040768,0.271970,-0.046895,-102.025169,188.499478,1517.906718,-927.868732,0
0.014593,-31.904002,204.254736,-96.355493,1.073208,5.141818,-6.287730,0.677440,-4.642343,6.417976,-0.759276,-0.080951,0.280723,-0.035692,-66.138540,188.495341,1517.188110,-927.155744,0
0.015626,-103.747400,188.223377,-46.756061,2.045868,6.398617,-4.763794,-1.949445,-6.083237,5.020477,1.802374,-0.124787,0.304828,-0.028224,-34.855081,188.495790,1517.262020,-926.855513,0
0.016666,-176.191951,140.793747,1.538447,2.973288,6.664888,-2.632665,-4.042743,-6.289079,2.854984,3.833905,-0.186888,0.312079,-0.035692,-2.090012,188.495738,1516.071815,-926.461121,0
0.017708,-197.504509,79.132813,57.083902,3.991188,5.830572,0.073909,-5.695740,-5.509820,0.194280,5.442051,-0.245336,0.317371,-0.039427,29.125588,188.495734,1515.105465,-925.653130,0
0.018750,-174.887563,27.982266,142.531819,5.597208,4.538271,2.490777,-6.553955,-4.230659,-2.235605,6.338629,-0.252642,0.332722,-0.024490,78.731247,188.495698,1514.405541,-924.278355,0
0.019791,-126.818046,-20.860829,191.626516,6.558558,2.166685,4.244891,-5.747979,-2.025209,-4.040183,5.648406,-0.234377,0.329194,-0.035692,112.717796,188.495767,1514.819608,-923.641468,0
0.020833,-64.139389,-83.754015,201.204167,6.728208,-0.432119,6.229183,-4.971854,0.738955,-5.987448,4.876354,-0.234377,0.292547,-0.031958,124.932596,188.495707,1514.795472,-922.557011,0
0.021875,-15.650199,-149.365405,163.262879,6.026988,-2.746900,6.951465,-3.296469,3.109814,-6.877147,3.374942,-0.190541,0.301235,-0.046895,106.135376,188.495685,1515.563832,-922.380733,0
0.022916,30.525121,-202.545544,98.866099,4.828128,-4.898369,6.530795,-0.803914,5.157207,-6.402921,0.966280,-0.128440,0.316979,-0.028224,71.311887,188.495749,1514.749365,-921.651785,0
0.023958,103.185179,-188.543777,48.589583,3.855468,-6.265226,5.002890,1.826702,6.667940,-4.976045,-1.598927,-0.066339,0.307637,-0.035692,42.166018,188.496263,1515.036326,-921.271064,0
0.025010,177.172310,-140.377212,-1.120644,2.928048,-6.549248,2.847949,3.983433,6.899513,-2.869305,-3.769214,-0.051727,0.312145,-0.024490,7.647898,188.418800,1515.183312,-921.132589,0
0.026042,197.237193,-80.443848,-56.863068,1.887528,-5.722033,0.153281,5.584191,6.190093,-0.242176,-5.380919,0.014027,0.316195,-0.046895,-23.443291,188.496203,1516.956540,-921.807799,0
0.027083,175.017234,-29.269138,-142.704925,0.236268,-4.419081,-2.255649,6.438675,4.774929,2.212890,-6.192108,0.028639,0.334159,-0.031958,-73.716240,188.496223,1516.218356,-922.188269,0
0.028125,127.877802,20.431701,-191.454925,-0.691152,-2.065247,-4.037543,5.688670,2.521694,4.042648,-5.526790,0.024986,0.324426,-0.017021,-106.617029,188.420833,1516.397992,-923.691571,0
0.029167,65.505392,84.025580,-201.007955,-0.894732,0.608113,-6.001992,4.908813,-0.168955,6.023487,-4.779642,-0.026156,0.310185,-0.061832,-119.035409,188.496161,1517.358804,-924.463420,0
0.030208,16.290283,149.576565,-163.300569,-0.193512,2.912244,-6.791741,3.244622,-2.492029,6.888005,-3.249768,-0.015197,0.307572,-0.046895,-99.616139,188.496168,1518.037664,-924.401333,0
0.031250,-30.599615,202.611733,-98.669887,0.982728,5.120517,-6.327416,0.733410,-4.605585,6.476730,-0.794854,-0.084604,0.308225,-0.024490,-66.466530,188.496156,1517.899230,-924.841885,0
0.032292,-103.327728,188.706613,-48.516477,1.921458,6.416368,-4.751889,-1.979296,-6.101616,5.033067,1.773911,-0.161317,0.308290,-0.031958,-35.635471,188.420797,1518.088270,-925.506558,0
0.033333,-176.146581,141.627330,0.689015,2.894118,6.686189,-2.668382,-4.091251,-6.344215,2.871770,3.901504,-0.208806,0.309009,-0.069301,-2.418001,188.496225,1518.787600,-927.042163,0
0.034375,-197.606592,80.389227,56.640720,3.945948,5.869625,0.097721,-5.688277,-5.579659,0.211067,5.477630,-0.216112,0.312145,0.005384,27.994588,188.511162,1519.786459,-927.950545,0
0.035425,-175.216496,28.380936,143.467425,5.597208,4.531170,2.554274,-6.628583,-4.175523,-2.290162,6.391996,-0.241683,0.308421,-0.024490,79.172337,188.481204,1519.933325,-929.365022,0
0.036458,-127.566651,-20.051409,191.417235,6.445458,2.219939,4.244891,-5.792756,-1.951694,-4.052773,5.698216,-0.241683,0.325928,-0.058098,110.670686,188.344560,1519.670898,-930.749036,0
0.037500,-65.114844,-83.391588,201.314963,6.705588,-0.446320,6.229183,-4.949466,0.757334,-6.029415,4.890585,-0.197847,0.311295,-0.028224,123.982556,188.495493,1519.879721,-931.814140,0
0.038542,-16.228666,-148.966735,163.349054,6.004368,-2.793054,6.967339,-3.322589,3.124517,-6.860360,3.335806,-0.157664,0.317044,0.001650,104.619836,188.495521,1519.045873,-932.331808,0
0.039583,30.207531,-202.642192,98.644508,4.805508,-4.958723,6.522858,-0.800183,5.201316,-6.465871,0.948491,-0.132093,0.314953,-0.073035,70.961277,188.495446,1519.689121,-933.118195,0
0.040625,102.413889,-188.592100,48.220265,3.821538,-6.258125,5.006859,1.886404,6.708374,-5.005422,-1.694989,-0.077298,0.305743,-0.035692,42.064228,188.344612,1519.704980,-934.441269,0
0.041667,175.119317,-141.392008,-0.665152,2.950668,-6.535047,2.859855,4.002090,6.917891,-2.886092,-3.769214,0.010374,0.308682,-0.061832,7.037158,188.495470,1519.274791,-934.905489,0
0.042708,197.418673,-79.682751,-55.976705,1.898838,-5.693631,0.133438,5.580460,6.197444,-0.175029,-5.377361,0.021333,0.311622,-0.009553,-23.228401,188.495416,1518.667975,-935.394185,0
0.043750,175.096632,-28.387232,-141.412311,0.258888,-4.394229,-2.291367,6.483451,4.782280,2.246463,-6.213455,0.032292,0.324295,-0.024490,-73.195980,188.495454,1518.507099,-935.643160,0
0.044792,127.163225,20.443782,-191.344129,-0.679842,-2.054596,-4.045481,5.670013,2.617264,4.038451,-5.562369,-0.000585,0.301235,-0.013287,-107.453969,188.434808,1519.582602,-934.740850,0
0.045842,63.520455,84.412168,-201.278788,-0.883422,0.675568,-6.021835,4.867768,-0.172631,6.069650,-4.708485,-0.011544,0.289738,-0.039427,-119.069339,188.480356,1519.306861,-934.436674,0
0.046875,15.666445,149.008762,-163.632955,-0.216132,2.951297,-6.763961,3.192383,-2.532462,6.892202,-3.178611,-0.040768,0.308682,-0.035692,-102.534119,188.519944,1518.504841,-935.176051,0
0.047917,-29.953092,202.019769,-98.312879,1.027968,5.127617,-6.252013,0.725948,-4.554125,6.384402,-0.830433,-0.095563,0.312340,-0.028224,-67.292160,188.502044,1517.122989,-934.070631,0
0.048958,-102.511068,189.431467,-47.617803,1.955388,6.405717,-4.755857,-1.893474,-6.072210,5.041461,1.699197,-0.124787,0.306200,-0.005818,-35.465821,188.345003,1517.278832,-932.956466,0
0.050000,-174.513261,141.675653,0.873674,2.905428,6.650687,-2.672351,-4.012892,-6.296430,2.838197,3.873041,-0.201500,0.307702,-0.024490,-2.474551,188.495655,1515.837817,-932.514540,0
0.051042,-198.151032,80.026800,55.828220,3.979878,5.862525,0.054066,-5.673352,-5.564956,0.215264,5.431378,-0.186888,0.309923,-0.039427,28.446988,188.495778,1515.383447,-932.081589,0
0.052083,-175.137098,28.864172,140.771402,5.608518,4.570223,2.455060,-6.516642,-4.208604,-2.206228,6.271030,-0.256295,0.322923,-0.050629,77.769897,188.495626,1513.751252,-930.412724,0
0.053140,-126.489114,-21.138690,191.614205,6.502008,2.145383,4.268702,-5.710666,-1.892882,-4.035986,5.612828,-0.234377,0.288301,-0.058098,112.751726,188.344663,1512.495243,-929.591827,0
0.054175,-64.343554,-83.717773,201.179546,6.705588,-0.460521,6.209340,-4.945735,0.808795,-6.000038,4.837217,-0.238030,0.278306,-0.050629,124.864736,188.495535,1511.523479,-929.459336,0
0.055208,-16.285379,-148.737198,164.210796,6.049608,-2.725598,6.939559,-3.307663,3.091435,-6.872950,3.360711,-0.157664,0.302476,-0.050629,106.655636,188.495562,1511.991891,-929.353335,0
0.056250,29.538323,-201.083755,99.764773,4.873368,-4.880617,6.503015,-0.833765,5.142504,-6.419707,0.984069,-0.139399,0.303260,-0.054364,71.820837,188.478147,1510.782411,-928.709278,0
0.057292,101.971531,-189.655220,49.180493,3.912018,-6.219072,5.018765,1.778194,6.631183,-5.018012,-1.559791,-0.066339,0.311426,-0.031958,42.708898,188.359760,1510.931756,-927.242157,0
0.058334,173.678819,-142.141024,0.085795,2.894118,-6.506645,2.887635,3.927463,6.870107,-2.915469,-3.687383,-0.059033,0.310773,-0.031958,8.202088,188.495124,1510.036789,-926.338431,0
0.059375,197.963113,-81.410320,-55.459659,1.876218,-5.718483,0.200904,5.546877,6.190093,-0.237979,-5.302646,0.010374,0.312210,-0.043161,-22.583731,188.495027,1510.044527,-925.877995,0
0.060416,175.176029,-30.211449,-140.772160,0.236268,-4.348075,-2.211995,6.412555,4.778605,2.196103,-6.138740,0.017680,0.320963,-0.058098,-72.879300,188.495079,1508.998624,-925.537147,0
0.061458,128.978025,19.441067,-191.516478,-0.679842,-2.061696,-4.001826,5.632699,2.584182,4.030058,-5.530348,0.014027,0.325667,-0.009553,-106.322969,188.344413,1508.377809,-926.602509,0
0.062512,65.811640,84.013499,-200.909470,-0.917352,0.654267,-5.990087,4.841649,-0.194685,6.015093,-4.665791,-0.000585,0.297838,-0.020755,-119.080649,188.495363,1507.111051,-927.272670,0
0.063544,17.197683,149.032924,-164.322349,-0.261372,2.922894,-6.763961,3.203577,-2.481002,6.875415,-3.264000,-0.044421,0.309466,-0.002084,-100.260809,188.495249,1507.761661,-926.950554,0
0.064583,-29.408652,200.944568,-100.048675,0.994038,5.045961,-6.311542,0.714753,-4.539422,6.422173,-0.848222,-0.084604,0.310707,0.009119,-67.224300,188.495390,1507.764065,-927.383496,0
0.065625,-102.227505,190.023431,-49.070455,1.955388,6.373765,-4.755857,-1.923325,-6.028101,5.054051,1.745449,-0.143052,0.306265,-0.009553,-36.087871,188.344484,1507.345430,-928.217336,0
0.066666,-173.923451,142.932067,0.024242,2.837568,6.654237,-2.640602,-4.050206,-6.296430,2.922131,3.823231,-0.168623,0.311034,-0.028224,-2.723371,188.475779,1507.894573,-927.828739,0
0.067708,-198.411909,81.561075,55.188068,3.923328,5.834123,0.014381,-5.658426,-5.587011,0.219461,5.449167,-0.227071,0.311230,0.012853,27.135028,188.511102,1508.187040,-928.807794,0
0.068750,-175.466031,30.217233,140.118940,5.540658,4.573774,2.478871,-6.520373,-4.230659,-2.168458,6.295935,-0.234377,0.318416,-0.069301,77.645487,188.496277,1508.387707,-929.175427,0
0.069791,-128.950436,-19.109098,191.392614,6.524628,2.273193,4.221079,-5.759173,-2.050939,-4.006609,5.691101,-0.252642,0.328606,-0.046895,110.410556,188.269971,1510.256465,-929.582527,0
0.070833,-66.396546,-81.470724,201.068751,6.716898,-0.453420,6.169654,-4.956929,0.713225,-5.953875,4.851449,-0.223418,0.325732,-0.046895,123.699806,188.496141,1509.721631,-929.420070,0
0.071886,-16.024501,-148.978816,163.139773,6.015678,-2.800154,6.927654,-3.218110,3.124517,-6.822590,3.310901,-0.186888,0.310250,-0.017021,104.540666,188.420770,1508.634794,-929.265817,0
0.072917,29.164021,-200.830056,100.023296,4.850748,-4.877067,6.534764,-0.841228,5.120449,-6.390331,0.984069,-0.128440,0.315084,-0.020755,71.854767,188.496161,1508.033290,-929.128427,0
0.073958,101.245611,-190.029728,48.774243,3.844158,-6.222622,5.030671,1.781925,6.649562,-5.051586,-1.559791,-0.080951,0.306853,-0.024490,42.595798,188.345453,1508.414678,-929.270429,0
0.075000,172.646652,-142.708827,-0.160417,2.928048,-6.499544,2.915415,3.920000,6.892161,-2.898682,-3.673152,-0.018850,0.309793,-0.020755,7.252048,188.496187,1508.201515,-929.445112,0
0.076042,198.133250,-80.842517,-54.659470,1.864908,-5.768187,0.232653,5.531952,6.179065,-0.275749,-5.277741,0.006721,0.309793,-0.035692,-22.414081,188.420797,1507.974305,-928.765650,0
0.077083,175.278112,-29.305381,-139.356440,0.281508,-4.422631,-2.200089,6.390167,4.808011,2.166726,-6.192108,0.039598,0.316195,-0.069301,-71.997120,188.482513,1508.432925,-928.495826,0
0.078125,128.422242,19.573957,-191.467235,-0.702462,-2.072347,-3.966109,5.684938,2.668724,3.988091,-5.573042,-0.011544,0.302346,-0.020755,-107.273009,188.283746,1509.487452,-927.319446,0
0.079167,65.686872,81.029515,-201.167993,-0.860802,0.593912,-5.918652,4.893888,-0.128522,5.889193,-4.726275,-0.015197,0.299145,-0.043161,-118.786589,188.495910,1508.718174,-925.988786,0
0.080208,16.267598,148.453041,-165.060985,-0.227442,2.876741,-6.716338,3.259548,-2.473650,6.862825,-3.264000,-0.029809,0.305808,-0.024490,-103.303199,188.420522,1508.673129,-925.739297,0
0.081250,-28.988979,200.147229,-99.839394,0.982728,4.999807,-6.299636,0.800575,-4.517367,6.401189,-0.908705,-0.080951,0.319592,-0.017021,-68.253510,188.496134,1508.377934,-924.861982,0
0.082301,-102.306903,189.818056,-47.519318,2.023248,6.387966,-4.803480,-1.930788,-6.064858,5.062444,1.688523,-0.179582,0.304567,-0.043161,-35.477131,188.269928,1509.067852,-923.900091,0
0.083335,-172.335501,142.799178,0.775189,2.928048,6.647136,-2.700131,-3.971847,-6.259673,2.926327,3.759190,-0.197847,0.307572,-0.017021,-2.497171,188.496063,1508.188655,-922.630474,0
0.084375,-199.149172,81.114082,54.621780,3.934638,5.866075,-0.013399,-5.587530,-5.579659,0.290804,5.424262,-0.223418,0.308878,-0.031958,27.689218,188.420718,1508.509051,-921.748217,0
0.085416,-175.397976,29.528622,138.801705,5.551968,4.605726,2.383625,-6.494253,-4.212280,-2.130687,6.231893,-0.230724,0.314039,-0.031958,76.672827,188.496156,1507.414401,-920.675105,0
0.086458,-128.882381,-18.903723,191.675758,6.513318,2.287395,4.149645,-5.781562,-1.988451,-3.943659,5.691101,-0.201500,0.294441,-0.058098,112.310636,188.269903,1506.773634,-920.488511,0
0.087500,-66.124326,-80.202230,200.847160,6.716898,-0.354012,6.102188,-4.986780,0.709549,-5.853154,4.826544,-0.227071,0.256684,-0.058098,124.661156,188.478563,1505.345476,-919.590126,0
0.088541,-16.739079,-148.326447,165.577273,6.049608,-2.654593,6.915748,-3.400948,2.999542,-6.826787,3.399847,-0.201500,0.303783,-0.050629,107.469956,188.437675,1506.523065,-918.854146,0
0.089583,28.710321,-199.235377,101.291288,4.907298,-4.777659,6.518889,-0.908393,5.043259,-6.365150,1.073015,-0.146705,0.315215,-0.039427,72.612537,188.498173,1505.974985,-917.592357,0
0.090625,100.882651,-191.153252,49.697538,3.923328,-6.187120,5.042576,1.707298,6.594425,-5.110339,-1.485076,-0.062686,0.308486,-0.017021,43.183918,188.269209,1506.640727,-916.866960,0
0.091666,170.990647,-143.723623,0.393561,2.973288,-6.481793,2.947164,3.852836,6.807619,-2.978419,-3.601995,-0.033462,0.311557,-0.028224,8.394358,188.495437,1505.887064,-915.614690,0
0.092708,198.938568,-82.328469,-54.364015,1.910148,-5.750435,0.244558,5.494638,6.197444,-0.334503,-5.259952,-0.007891,0.318546,-0.020755,-21.859891,188.420005,1506.628253,-915.713286,0
0.093759,175.198714,-30.138963,-140.525947,0.258888,-4.401330,-2.200089,6.397630,4.808011,2.145743,-6.106719,0.021333,0.321682,-0.024490,-72.811440,188.495260,1506.250501,-915.064718,0
0.094792,130.134960,18.655808,-191.590341,-0.713772,-2.146903,-3.926423,5.673744,2.650345,3.950320,-5.605063,-0.011544,0.323184,-0.009553,-106.096769,188.269089,1506.399360,-915.861676,0
0.095833,68.000742,80.365066,-200.552463,-0.883422,0.522906,-5.867061,4.875231,-0.073385,5.880799,-4.690696,0.028639,0.314235,-0.050629,-118.628249,188.420043,1505.755098,-916.193622,0
0.096875,17.855548,148.416798,-165.996591,-0.182202,2.834137,-6.756023,3.259548,-2.414838,6.883809,-3.306694,-0.026156,0.300190,-0.005818,-101.380499,188.420019,1506.355489,-916.351534,0
0.097917,-28.455882,198.987462,-101.784470,0.948798,4.989156,-6.263919,0.849083,-4.480610,6.350829,-0.898032,-0.117481,0.321225,-0.013287,-68.219580,188.481246,1505.083313,-916.663013,0
0.098958,-101.195338,191.557706,-49.784470,1.898838,6.324061,-4.839197,-1.837504,-6.017073,5.075034,1.635155,-0.128440,0.304763,-0.046895,-36.608131,188.287564,1504.993815,-917.098107,0
0.100000,-171.382731,144.273048,-0.061932,2.916738,6.600983,-2.731879,-3.964384,-6.237618,2.930524,3.734285,-0.183235,0.311426,-0.050629,-2.689441,188.420918,1504.493836,-917.450460,0
0.101042,-199.432734,82.841651,54.190909,3.912018,5.908678,-0.061022,-5.587530,-5.579659,0.315985,5.402915,-0.208806,0.312732,-0.017021,26.479048,188.420249,1504.568453,-917.839924,0
0.102083,-175.828991,31.207867,138.149243,5.506728,4.573774,2.419342,-6.449477,-4.168171,-2.092917,6.260356,-0.234377,0.316652,-0.009553,76.718067,188.473003,1504.083924,-918.612437,0
0.103125,-130.175426,-18.190949,191.466478,6.513318,2.287395,4.149645,-5.774099,-2.039912,-3.968839,5.673311,-0.241683,0.323511,-0.020755,110.263526,188.254864,1504.305935,-919.162625,0
0.104176,-66.725479,-81.374077,200.847160,6.682968,-0.425018,6.126000,-4.923347,0.738955,-5.895121,4.830102,-0.216112,0.309270,-0.031958,123.530156,188.344410,1504.871458,-919.877930,0
0.105209,-17.635136,-147.927777,166.118940,6.049608,-2.672344,6.967339,-3.341246,3.010569,-6.818393,3.406963,-0.150358,0.304306,-0.039427,106.271096,188.442097,1504.640168,-920.436542,0
0.106250,28.177223,-198.655493,101.709849,4.839438,-4.770559,6.471266,-0.900930,4.995474,-6.373544,1.033879,-0.132093,0.315345,-0.054364,72.883977,188.362812,1503.909885,-920.507951,0
0.107292,100.406266,-191.491517,49.439015,3.832848,-6.165818,5.038608,1.711029,6.587074,-5.097749,-1.542002,-0.073645,0.305351,-0.061832,42.991648,188.271930,1503.445539,-921.155277,0
0.108334,169.788342,-144.134374,-0.086553,2.928048,-6.407237,2.903510,3.856567,6.774537,-2.902879,-3.605553,-0.048074,0.307376,-0.031958,7.252048,188.345623,1502.094445,-921.469479,0
0.109375,198.983938,-81.772747,-53.625379,1.921458,-5.704282,0.268370,5.472250,6.123929,-0.296733,-5.281299,0.010374,0.310903,-0.028224,-21.758101,188.420721,1500.889736,-921.879836,0
0.110417,175.561674,-30.138963,-137.165152,0.292818,-4.380028,-2.112780,6.319271,4.811686,2.082792,-6.060467,0.043251,0.290261,-0.031958,-70.685160,188.495360,1499.510803,-921.103647,0
