1-Time,2-VGERA,3-VGERB,4-VGERC,5-VN,6-IGERAN,7-IGERBN,8-IGERCN,9-IGERAT,10-IGERBT,11-IGERCT,12-IN,13-IFD,14-IFAULT,15-VFAULT,16-Speed (rad/s),17-Active Power,18-Reactive Power,19-FAULT 
0.000000,128.477252,46.743732,-189.293727,-3.288707,-4.269213,-1.630945,5.882958,4.525449,1.792867,-6.025434,-0.086703,0.473363,-0.033307,57.953065,188.339770,1657.513611,-45.064363,0
0.001042,57.332923,102.802665,-193.267324,-3.390041,-2.306045,-3.752685,5.755376,2.489772,3.828963,-5.888351,-0.108580,0.487626,-0.025873,27.150289,188.399732,1657.095101,-44.731524,0
0.002083,-7.551249,160.987445,-167.602993,-2.962187,-0.086014,-5.293911,5.016946,0.264199,5.334465,-5.115360,-0.123164,0.472743,-0.025873,-3.517387,188.403615,1657.039956,-44.837760,0
0.003125,-64.096075,183.866725,-106.783876,-1.768702,2.196398,-5.747694,3.103213,-2.139875,5.727018,-3.112435,-0.064826,0.464062,-0.022156,-25.943970,188.258790,1656.113315,-45.481749,0
0.004167,-123.793580,191.219101,-30.301254,-0.338771,4.251303,-5.629138,1.069630,-4.156563,5.567408,-1.067624,-0.010133,0.452693,-0.029590,-52.367258,188.329810,1655.387865,-45.720432,0
0.005208,-164.077814,146.799473,33.798814,0.911012,5.414525,-4.476285,-1.238447,-5.371893,4.316418,1.255160,-0.010133,0.450833,-0.003573,-70.470644,188.406711,1655.411079,-45.624955,0
0.006250,-198.260088,72.735439,84.410526,1.879312,6.122734,-2.640713,-3.577454,-6.044122,2.491697,3.520826,0.059144,0.461857,-0.007290,-85.151499,188.412366,1654.723035,-45.067209,0
0.007292,-174.247747,11.309036,145.727862,3.095316,5.561304,-0.707027,-4.806882,-5.489628,0.494425,4.712680,0.073729,0.457379,-0.011006,-78.497829,188.259540,1653.357401,-44.994624,0
0.008333,-127.748554,-47.427759,189.109330,3.894726,4.559538,1.684531,-5.904862,-4.449002,-1.783241,5.733182,0.099252,0.436295,-0.029590,-58.255361,188.186441,1653.054942,-44.681042,0
0.009375,-56.423426,-102.993402,193.228746,3.973542,2.574353,3.691804,-5.781146,-2.413324,-3.784826,5.592292,0.143006,0.446630,-0.048173,-27.621460,188.414969,1652.173481,-43.568280,0
0.010417,7.726250,-161.060732,167.698084,3.523169,0.427712,5.257558,-5.073645,-0.259912,-5.307584,4.811684,0.091960,0.464682,-0.051890,2.933633,188.342229,1651.049166,-42.563766,0
0.011458,64.259777,-183.376251,108.154893,2.340943,-1.851031,5.711341,-3.206305,2.109981,-5.747588,2.862069,0.059144,0.469023,-0.007290,26.305915,188.269472,1649.984465,-41.154476,0
0.012500,124.047682,-191.221918,31.915305,0.899753,-3.872910,5.654107,-1.149526,4.183638,-5.648371,0.862952,0.022683,0.461857,-0.014723,52.616620,188.194038,1649.896397,-39.401660,0
0.013542,164.004218,-147.976790,-32.695134,-0.304993,-5.076497,4.517606,1.092827,5.376180,-4.367184,-1.459831,-0.013779,0.464820,-0.022156,71.710738,188.420188,1649.005430,-38.280837,0
0.014583,197.802294,-74.946318,-84.303283,-1.295811,-5.795714,2.677947,3.489826,6.120570,-2.602856,-3.752152,-0.075764,0.463786,0.000144,85.659802,188.420321,1648.055047,-37.432103,0
0.015625,174.897346,-13.625620,-145.632771,-2.500556,-5.311344,0.772877,4.684459,5.585065,-0.596957,-4.970662,-0.112226,0.475293,-0.007290,79.265074,188.269458,1646.469055,-36.615116,0
0.016667,129.019649,46.238696,-189.026390,-3.311226,-4.247197,-1.598240,5.813368,4.540641,1.676396,-5.972124,-0.126811,0.476464,-0.040740,59.180223,188.269449,1645.598833,-35.385479,0
0.017708,58.892312,102.532530,-193.036442,-3.423819,-2.339071,-3.658658,5.743777,2.497368,3.751315,-5.846465,-0.093995,0.477842,-0.011006,27.229097,188.420296,1644.680744,-35.272467,0
0.018750,-6.138758,161.116640,-167.311353,-2.950928,-0.141056,-5.212149,4.978284,0.328764,5.239563,-5.058242,-0.086703,0.474121,-0.018440,-2.785596,188.420300,1643.116374,-34.802195,0
0.019792,-63.903976,183.056319,-108.144863,-1.779961,2.089983,-5.637314,3.176669,-2.003150,5.696821,-3.131474,-0.079410,0.459239,-0.037023,-25.707545,188.269509,1642.235256,-33.653881,0
0.020833,-123.838780,190.901986,-30.848080,-0.338771,4.144888,-5.641403,1.100559,-4.042626,5.519957,-1.139973,0.000805,0.455449,-0.018440,-51.297717,188.194033,1640.912427,-32.208529,0
0.021875,-163.332019,148.138404,33.944634,0.877234,5.275085,-4.447668,-1.137928,-5.257956,4.307790,1.167579,0.000805,0.453107,-0.022156,-70.718327,188.420245,1639.589005,-31.137618,0
0.022917,-197.582093,73.745510,84.507740,1.868052,6.049344,-2.628449,-3.507863,-5.998547,2.534834,3.459900,0.055498,0.451591,-0.018440,-84.295866,188.420150,1638.863880,-30.400558,0
0.023958,-174.970942,11.802327,144.938003,3.050279,5.539288,-0.715203,-4.725693,-5.417468,0.597955,4.647947,0.110191,0.459308,-0.029590,-77.450805,188.267110,1637.635495,-29.513660,0
0.025000,-127.929353,-47.157624,189.218695,3.939764,4.511835,1.570063,-5.788878,-4.422416,-1.696966,5.611331,0.102898,0.444356,-0.011006,-57.467279,188.193998,1635.806983,-28.571415,0
0.026042,-56.909322,-102.453131,193.301656,3.951023,2.578023,3.597777,-5.703823,-2.432314,-3.689924,5.485672,0.084667,0.458688,-0.011006,-25.516153,188.344919,1633.940362,-28.030349,0
0.027083,7.421152,-161.131202,167.297079,3.500651,0.471746,5.163531,-5.023385,-0.278901,-5.255819,4.765990,0.073729,0.473501,-0.018440,3.192574,188.420211,1632.864950,-27.821544,0
0.028125,64.485775,-183.059136,108.288561,2.374721,-1.755624,5.641843,-3.159912,2.049215,-5.674254,2.888724,0.048206,0.463097,-0.029590,26.643665,188.269530,1631.880333,-26.802196,0
0.029167,123.629584,-191.233663,31.028233,0.922271,-3.817868,5.580521,-1.141794,4.092488,-5.596606,0.859144,0.037267,0.456207,-0.033307,51.817278,188.269496,1630.397468,-26.070793,0
0.030208,163.032424,-148.493571,-33.460689,-0.304993,-4.970083,4.497166,1.046434,5.341999,-4.362870,-1.406522,-0.032010,0.458963,-0.051890,70.787555,188.418715,1629.775342,-25.332810,0
0.031250,197.203398,-74.265107,-84.327587,-1.318330,-5.714986,2.694299,3.420235,6.063601,-2.581287,-3.672187,-0.050241,0.451109,-0.055607,85.592252,188.419111,1628.178357,-24.534423,0
0.032292,175.179844,-12.838704,-145.073794,-2.466778,-5.252632,0.793318,4.653530,5.558480,-0.696173,-4.886889,-0.104934,0.465164,-0.018440,76.855792,188.268957,1627.125547,-22.798431,0
0.033333,129.019649,46.414872,-188.783357,-3.311226,-4.243527,-1.524653,5.751510,4.510258,1.680709,-5.956893,-0.126811,0.475155,-0.025873,58.313332,188.268664,1626.651105,-23.006508,0
0.034375,58.937512,102.285885,-193.133655,-3.412560,-2.357418,-3.593248,5.689652,2.527751,3.669353,-5.789348,-0.093995,0.488659,-0.040740,28.354930,188.343927,1625.512634,-22.142845,0
0.035417,-5.460762,161.069660,-167.347808,-2.939669,-0.181421,-5.146739,5.009213,0.378136,5.153287,-5.035395,-0.086703,0.473363,-0.037023,-2.481621,188.419569,1624.417133,-21.504672,0
0.036458,-63.632778,182.962359,-109.335727,-1.824998,2.038610,-5.661843,3.184402,-1.995555,5.649370,-3.150513,-0.028364,0.469229,-0.033307,-25.876420,188.269389,1624.135606,-21.648497,0
0.037500,-123.793580,190.749301,-32.051095,-0.383808,4.137549,-5.620962,1.166284,-4.027434,5.541526,-1.159012,-0.039302,0.456621,-0.011006,-52.153349,188.268954,1624.312076,-21.667413,0
0.038542,-163.467618,148.772635,33.191230,0.877234,5.278755,-4.468109,-1.079936,-5.204785,4.294849,1.125693,0.004452,0.457930,0.003860,-70.380577,188.343807,1623.713323,-21.434269,0
0.039583,-197.152696,74.896521,84.544195,1.856793,6.012649,-2.640713,-3.519462,-5.956770,2.526207,3.410398,0.066437,0.455863,-0.003573,-84.768716,188.419652,1622.922041,-21.388182,0
0.040625,-175.174341,12.730183,145.120278,3.050279,5.498923,-0.764261,-4.702496,-5.444053,0.589328,4.625100,0.095606,0.464889,-0.003573,-78.869354,188.343999,1623.131408,-21.531560,0
0.041667,-128.923747,-46.758293,188.684021,3.872208,4.467801,1.578239,-5.750217,-4.422416,-1.688338,5.561829,0.110191,0.474190,-0.022156,-58.176553,188.267922,1622.574348,-21.716091,0
0.042708,-57.711617,-102.488366,193.253050,3.973542,2.596370,3.593688,-5.680626,-2.417122,-3.702865,5.470441,0.110191,0.474741,-0.018440,-27.734043,188.269543,1622.541275,-22.277455,0
0.043750,6.867456,-160.978517,167.297079,3.500651,0.493762,5.102209,-4.965393,-0.271305,-5.195426,4.754566,0.084667,0.456758,-0.014723,3.046216,188.420271,1621.779266,-22.328824,0
0.044792,64.350176,-182.894705,108.701718,2.374721,-1.722599,5.625490,-3.186975,1.992246,-5.600920,2.850646,0.019036,0.464751,-0.011006,26.666181,188.344912,1620.426553,-22.172823,0
0.045833,123.154988,-191.163192,31.076839,0.899753,-3.777504,5.576433,-1.149526,4.054509,-5.553469,0.851529,0.015390,0.455036,-0.033307,51.907345,188.269603,1619.478976,-22.230304,0
0.046875,162.772526,-148.693236,-33.752329,-0.327511,-4.893024,4.439932,1.015505,5.247051,-4.302478,-1.379867,-0.010133,0.449248,-0.029590,71.249147,188.194105,1617.869159,-21.922897,0
0.047917,196.774001,-73.936247,-84.193918,-1.284552,-5.619579,2.690211,3.389306,5.987643,-2.620111,-3.645533,-0.104934,0.454485,-0.029590,85.220728,188.420309,1616.808587,-21.209939,0
0.048958,175.417142,-11.993064,-144.223177,-2.444260,-5.212268,0.805582,4.564609,5.497713,-0.674604,-4.810732,-0.104934,0.446492,0.022444,79.602824,188.420349,1615.206130,-21.088826,0
0.050000,128.432053,47.013867,-188.248683,-3.277448,-4.162799,-1.475596,5.658723,4.476077,1.572865,-5.861697,-0.119518,0.457103,-0.011006,59.180223,188.269603,1613.207132,-19.592057,0
0.051042,57.773620,102.086219,-192.999987,-3.367522,-2.309715,-3.527838,5.635526,2.523953,3.578764,-5.709383,-0.112226,0.467438,-0.022156,27.746980,188.269478,1611.332317,-18.618160,0
0.052083,-5.969259,160.776035,-166.825286,-2.928410,-0.251141,-5.060888,4.947355,0.423711,5.079953,-5.043011,-0.079410,0.487626,0.000144,-2.065063,188.419645,1610.411243,-17.393111,0
0.053125,-63.960476,182.269403,-109.821794,-1.847517,2.027602,-5.535111,3.157339,-1.862628,5.476819,-3.180976,-0.061180,0.461444,-0.040740,-25.741320,188.420332,1607.947916,-15.533439,0
0.054167,-123.160785,190.490910,-32.391342,-0.372548,4.009117,-5.514671,1.154685,-3.924891,5.481133,-1.185667,-0.024718,0.457585,-0.014723,-51.117584,188.269630,1606.296045,-14.860548,0
0.055208,-163.004321,149.806195,33.081865,0.911012,5.194357,-4.431315,-1.045141,-5.117433,4.307790,1.038113,0.037267,0.459308,-0.018440,-70.526935,188.269436,1605.446968,-13.714856,0
0.056250,-196.497300,76.352902,84.629256,1.868052,5.898896,-2.648890,-3.345486,-5.884610,2.543462,3.330434,0.048206,0.457034,0.007577,-84.126991,188.420226,1604.245048,-13.184587,0
0.057292,-176.213934,14.163074,144.597756,3.027760,5.425534,-0.825583,-4.563316,-5.383286,0.654034,4.465171,0.084667,0.473983,-0.018440,-77.766038,188.420338,1602.414310,-12.334738,0
0.058333,-129.680842,-46.147553,188.477443,3.872208,4.460462,1.463771,-5.684493,-4.399629,-1.593436,5.550405,0.124775,0.473363,-0.025873,-57.985162,188.269505,1601.868859,-11.843454,0
0.059375,-59.384006,-101.983331,193.228746,3.928504,2.614718,3.516014,-5.657430,-2.439910,-3.595021,5.386668,0.102898,0.470401,-0.007290,-26.304236,188.269496,1600.363267,-11.468215,0
0.060417,5.319366,-161.048987,166.883922,3.466873,0.534127,5.004094,-4.980858,-0.362455,-5.100524,4.701257,0.084667,0.474948,-0.007290,2.618400,188.420256,1598.800435,-10.686097,0
0.061458,64.056378,-182.413160,110.074857,2.385980,-1.645540,5.551904,-3.256565,1.908692,-5.531900,2.877300,0.062790,0.465647,-0.025873,26.688698,188.420390,1597.888922,-9.990754,0
0.062500,122.996789,-190.810842,31.623665,0.877234,-3.689437,5.490582,-1.211384,3.986147,-5.493076,0.881991,-0.006487,0.453245,-0.007290,51.490787,188.269550,1596.627103,-9.479730,0
0.063542,162.682126,-149.785522,-33.764481,-0.327511,-4.874676,4.448108,0.965245,5.178689,-4.345615,-1.292286,-0.010133,0.452211,0.018727,70.348481,188.269631,1596.403217,-8.105943,0
0.064583,196.062106,-75.005043,-84.327587,-1.318330,-5.571876,2.677947,3.300385,5.923079,-2.602856,-3.592223,-0.064826,0.439671,-0.007290,85.265761,188.420372,1595.186251,-8.051843,0
0.065625,176.072538,-12.321924,-143.895081,-2.444260,-5.182912,0.817847,4.514349,5.509107,-0.726370,-4.772654,-0.050241,0.479082,-0.022156,77.125992,188.495595,1595.152529,-7.401223,0
0.066667,128.906650,47.166552,-187.957043,-3.333744,-4.151790,-1.406097,5.608463,4.449491,1.516786,-5.777924,-0.093995,0.456069,0.011294,57.885515,188.269523,1593.843782,-6.843034,0
0.067708,57.864019,101.757359,-193.449599,-3.491375,-2.302376,-3.478781,5.573668,2.539145,3.565823,-5.709383,-0.112226,0.453245,-0.007290,27.814530,188.194072,1593.916473,-6.718492,0
0.068750,-6.240457,160.541135,-166.800983,-2.917150,-0.196099,-4.958685,4.939623,0.427509,5.028188,-5.031587,-0.108580,0.449593,-0.018440,-2.605463,188.420450,1593.194860,-6.390081,0
0.069792,-64.107375,182.469068,-109.384334,-1.892554,1.961551,-5.543287,3.130276,-1.851234,5.519957,-3.180976,-0.046595,0.459652,-0.018440,-26.124103,188.495702,1593.640436,-6.137314,0
0.070833,-122.821787,190.537890,-31.394905,-0.372548,4.042143,-5.535111,1.208811,-3.886912,5.489761,-1.227553,-0.017425,0.456552,-0.063040,-51.725533,188.269434,1593.414338,-5.069038,0
0.071875,-162.597524,149.759215,33.689449,0.888493,5.183349,-4.464021,-0.952354,-5.079454,4.333673,0.973380,0.044560,0.457861,-0.074190,-70.166669,188.269541,1593.028136,-3.805784,0
0.072917,-195.909704,75.789142,84.787228,1.879312,5.884218,-2.677507,-3.310691,-5.820046,2.590913,3.277124,0.066437,0.454278,-0.029590,-84.284608,188.424301,1591.950838,-2.584527,0
0.073958,-176.168734,13.599313,144.524846,3.050279,5.462229,-0.854200,-4.559450,-5.364297,0.688544,4.465171,0.081021,0.463855,-0.014723,-79.308428,188.424712,1591.737279,-2.084564,0
0.075000,-129.929440,-46.370708,188.064286,3.917245,4.442115,1.435155,-5.661296,-4.373044,-1.580494,5.512327,0.091960,0.462064,-0.044457,-58.604369,188.269919,1590.989891,-2.062246,0
0.076042,-59.643904,-101.995076,193.155836,4.018579,2.633065,3.471044,-5.672894,-2.470293,-3.599335,5.386668,0.077375,0.473777,-0.003573,-28.893651,188.269930,1591.172208,-1.855128,0
0.077083,4.494472,-161.002007,166.981136,3.466873,0.548804,4.971389,-4.976991,-0.366253,-5.074641,4.701257,0.113837,0.477704,-0.011006,1.942900,188.420719,1590.944311,-1.993441,0
0.078125,63.875579,-182.201750,111.071294,2.385980,-1.630862,5.519199,-3.214038,1.893501,-5.484448,2.888724,0.059144,0.468816,-0.055607,26.654923,188.420678,1590.513154,-2.029803,0
0.079167,123.166288,-190.540707,32.826680,0.944790,-3.630725,5.511023,-1.222983,3.925380,-5.475821,0.904838,0.000805,0.459101,-0.022156,51.659662,188.345261,1589.920997,-1.679774,0
0.080208,162.772526,-150.337537,-33.217656,-0.293733,-4.848990,4.431756,0.887923,5.144508,-4.388753,-1.254208,-0.021072,0.458619,-0.033307,71.192855,188.269915,1590.020109,-1.077051,0
0.081250,195.553609,-76.308739,-84.400497,-1.295811,-5.586554,2.714740,3.273323,5.896493,-2.598542,-3.535105,-0.050241,0.454416,-0.033307,84.747878,188.420575,1589.392710,-0.938439,0
0.082292,176.377636,-13.191055,-143.846475,-2.444260,-5.142548,0.887345,4.452491,5.429351,-0.713428,-4.707920,-0.093995,0.466336,-0.025873,79.850507,188.420701,1588.037750,-1.335408,0
0.083334,129.494246,46.990377,-187.665403,-3.322485,-4.177477,-1.414274,5.562069,4.430502,1.516786,-5.732230,-0.112226,0.469298,0.007577,59.022606,188.274795,1587.400384,-1.580664,0
0.084377,58.406415,102.062729,-193.170110,-3.390041,-2.306045,-3.421547,5.546605,2.531549,3.522686,-5.659881,-0.108580,0.456758,-0.044457,27.431747,188.269499,1586.538773,-1.431746,0
0.085416,-5.505962,160.588115,-166.606556,-2.962187,-0.265819,-4.934156,4.870033,0.450297,5.028188,-4.951622,-0.093995,0.456896,-0.022156,-2.402813,188.420289,1585.706809,-1.876514,0
0.086458,-64.118675,182.175443,-110.040524,-1.858776,1.924857,-5.477877,3.168937,-1.809457,5.450937,-3.142897,-0.068472,0.443943,-0.011006,-26.079070,188.495655,1584.494332,-1.904884,0
0.087500,-122.561889,190.267755,-31.006051,-0.372548,3.924719,-5.428820,1.185614,-3.833741,5.394858,-1.231361,-0.032010,0.450557,-0.018440,-50.678509,188.344789,1582.843692,-1.635140,0
0.088541,-162.202027,150.334721,34.345639,0.899753,5.098951,-4.439492,-0.952354,-5.033879,4.286221,0.935301,0.000805,0.449248,-0.003573,-70.054086,188.269409,1581.940766,-1.291542,0
0.089583,-195.231708,75.307596,84.690015,1.890571,5.836515,-2.677507,-3.275896,-5.804854,2.582286,3.235238,0.055498,0.449662,-0.007290,-83.856792,188.420278,1581.117698,-0.851959,0
0.090625,-176.598132,12.554008,143.759291,3.027760,5.447551,-0.890993,-4.501458,-5.356701,0.727368,4.400437,0.084667,0.444356,-0.011006,-77.889880,188.495714,1580.355015,0.176069,0
0.091666,-129.262744,-47.004939,187.651129,3.894726,4.453124,1.373833,-5.587839,-4.384437,-1.537357,5.432362,0.128422,0.421482,-0.007290,-58.097745,188.344900,1579.135041,1.315926,0
0.092708,-58.491312,-101.689706,193.471780,3.984801,2.669760,3.417899,-5.607170,-2.496878,-3.513059,5.386668,0.091960,0.449317,-0.044457,-26.822119,188.269536,1578.493510,2.643619,0
0.093753,5.500165,-161.025497,166.653040,3.489392,0.589169,4.942772,-4.907401,-0.396636,-5.053072,4.739335,0.084667,0.470056,-0.011006,2.111775,188.420330,1578.547263,3.776953,0
0.094792,63.943379,-182.260475,111.435844,2.442277,-1.575820,5.523287,-3.233368,1.832734,-5.480135,2.922995,0.066437,0.460410,0.000144,26.508565,188.495711,1578.568970,4.668790,0
0.095833,122.770790,-190.388022,33.239837,0.956049,-3.590361,5.474229,-1.265510,3.891199,-5.506017,0.923878,0.019036,0.460824,-0.033307,51.389462,188.344986,1578.561973,5.022042,0
0.096875,162.795126,-151.159688,-32.913864,-0.327511,-4.779270,4.468549,0.845395,5.102731,-4.345615,-1.185667,-0.002841,0.459308,-0.033307,70.359739,188.269498,1577.818319,5.412615,0
0.097917,195.045113,-77.506730,-84.461255,-1.318330,-5.527843,2.722916,3.196000,5.873706,-2.624425,-3.462756,-0.053887,0.459308,-0.037023,85.018078,188.439709,1577.292280,6.039592,0
0.098958,177.033032,-14.459516,-143.761413,-2.478038,-5.160895,0.907785,4.421562,5.448340,-0.804017,-4.669842,-0.093995,0.467162,-0.037023,77.418709,188.514072,1577.501590,6.892138,0
0.100000,130.488639,46.226951,-187.264398,-3.345004,-4.192154,-1.361128,5.562069,4.460885,1.486590,-5.739846,-0.119518,0.465302,-0.014723,58.257040,188.281718,1577.797264,6.932446,0
0.101042,59.931905,101.463734,-193.449599,-3.401300,-2.390443,-3.401106,5.573668,2.569528,3.501117,-5.659881,-0.115872,0.468471,0.018727,28.433738,188.274810,1578.021791,6.853878,0
0.102083,-4.398569,160.482410,-166.643011,-2.984706,-0.309852,-4.934156,4.912560,0.484478,4.993678,-5.020163,-0.079410,0.471710,-0.011006,-2.143871,188.425318,1578.372661,7.434449,0
0.103125,-63.790977,182.363363,-110.696714,-1.847517,1.902840,-5.481965,3.226929,-1.744893,5.429368,-3.158129,-0.075764,0.465853,-0.022156,-26.180395,188.505899,1578.106592,7.994622,0
0.104167,-122.539289,190.267755,-31.832365,-0.395067,3.910042,-5.473789,1.177882,-3.807156,5.394858,-1.204706,-0.024718,0.452349,-0.003573,-51.421558,188.350096,1577.866916,7.612168,0
0.105208,-162.337626,150.616601,33.932482,0.899753,5.113629,-4.447668,-0.956220,-5.041475,4.286221,0.931493,0.033621,0.450420,-0.037023,-69.997794,188.365500,1578.032418,7.439946,0
0.106250,-195.141309,76.000552,84.568498,1.901830,5.836515,-2.677507,-3.333888,-5.747885,2.565030,3.235238,0.055498,0.455036,-0.018440,-83.924342,188.436760,1577.342098,7.017570,0
0.107292,-176.722431,12.647968,143.589168,3.016501,5.392509,-0.899169,-4.485993,-5.368095,0.723054,4.392822,0.117483,0.453520,0.007577,-79.511078,188.506422,1577.380786,6.991184,0
0.108343,-128.731648,-48.144205,187.930618,3.872208,4.416429,1.422890,-5.607170,-4.346458,-1.558926,5.428554,0.121129,0.448422,-0.007290,-58.030195,188.359933,1577.158954,6.981960,0
0.109385,-57.101421,-102.922932,193.155836,3.984801,2.633065,3.438339,-5.560777,-2.451303,-3.478549,5.333358,0.088314,0.424238,-0.003573,-27.959210,188.283067,1576.026410,7.524592,0
0.110421,6.166861,-160.708381,166.519372,3.556947,0.592838,4.914155,-4.930598,-0.419424,-5.018562,4.682217,0.102898,0.467782,-0.018440,2.359458,188.428248,1574.949817,7.845081,0
0.111462,64.598775,-182.131280,110.402952,2.453536,-1.612515,5.466053,-3.233368,1.832734,-5.471507,2.896340,0.073729,0.468058,-0.037023,26.992673,188.505682,1574.492817,8.127337,0
