1-Time,2-VGERA,3-VGERB,4-VGERC,5-VN,6-IGERAN,7-IGERBN,8-IGERCN,9-IGERAT,10-IGERBT,11-IGERCT,12-IN,13-IFD,14-IFAULT,15-VFAULT,16-Speed (rad/s),17-FAULT 
0.000000,131.564115,53.038061,-187.392425,-0.634602,-3.226188,-1.002061,4.380834,3.407550,0.920300,-4.262959,-0.048074,0.417318,-0.031958,-3.650791,188.721549,0
0.001042,59.006139,107.837041,-194.914205,-0.792942,-1.710219,-2.537427,4.384752,2.051198,2.608377,-4.400007,-0.051727,0.399353,-0.013287,5.578168,188.721487,0
0.002083,-5.612086,165.873704,-164.876326,-0.261372,-0.101943,-3.554655,3.765718,0.441220,3.571267,-3.646242,-0.018850,0.413137,-0.043161,11.719498,188.570578,0
0.003125,-66.589369,185.746791,-111.891478,0.733908,1.669646,-3.924209,2.167199,-1.356222,4.026524,-2.245304,-0.069992,0.406800,0.005384,18.075718,188.495159,0
0.004167,-125.740509,189.926784,-30.863068,2.260758,3.277922,-3.863252,0.588270,-2.944146,3.945947,-0.623566,-0.124787,0.399549,0.005384,25.099228,188.721440,0
0.005208,-165.280465,154.263955,38.568750,3.584028,3.995078,-3.066995,-1.029839,-3.767514,3.269105,0.941068,-0.124787,0.402358,-0.005818,25.755208,188.721458,0
0.006250,-189.553416,80.147609,90.704167,4.601928,4.577324,-1.661164,-2.973136,-4.267416,1.830814,2.855937,-0.161317,0.407323,-0.017021,25.415908,188.570703,0
0.007293,-177.212776,10.597845,148.157766,5.687688,4.186793,-0.449635,-3.748888,-4.032168,0.626195,3.712488,-0.219765,0.410197,0.009119,16.175638,188.502917,0
0.008337,-131.286991,-53.261814,187.760985,6.456768,3.285023,1.245745,-4.505050,-3.087501,-1.037709,4.367274,-0.216112,0.415685,-0.043161,8.100298,188.721431,0
0.009375,-58.479481,-107.662124,194.925758,6.592488,1.797456,2.800160,-4.367923,-1.628228,-2.629095,4.416764,-0.227071,0.415881,-0.017021,-1.139972,188.646091,0
0.010417,6.410965,-165.565897,165.010985,6.049608,0.249535,3.748810,-3.752806,-0.007222,-3.575869,3.708681,-0.212459,0.410981,-0.028224,-6.218161,188.570566,0
0.011459,66.877835,-185.378580,111.275190,5.043018,-1.529155,4.084076,-2.209138,1.782868,-4.019040,2.307744,-0.175929,0.388901,0.016587,-13.354771,188.495159,0
0.012500,124.974122,-190.126375,30.123674,3.516168,-3.116129,4.072646,-0.622373,3.282574,-3.930406,0.712654,-0.128440,0.395369,-0.031958,-20.027671,188.721318,0
0.013542,164.797641,-153.617883,-39.357386,2.215518,-3.811983,3.245911,0.909541,4.116970,-3.237448,-0.791070,-0.102869,0.399223,-0.009553,-20.344351,188.721382,0
0.014583,188.991195,-78.957896,-90.655682,1.208928,-4.397779,1.893417,2.880264,4.602169,-1.891820,-2.724973,-0.084604,0.401052,-0.017021,-21.362251,188.570546,0
0.015625,176.854720,-9.166514,-147.776894,0.145788,-3.985947,0.670459,3.601165,4.374272,-0.642885,-3.551069,-0.055380,0.372897,-0.024490,-9.916531,188.495293,0
0.016667,130.906250,54.354879,-187.072349,-0.623292,-3.133880,-1.005871,4.345573,3.429604,0.980732,-4.186821,-0.029809,0.401444,0.005384,-2.440621,188.721378,0
0.017713,56.544817,108.779352,-194.569508,-0.725082,-1.610811,-2.522188,4.263296,1.959304,2.564060,-4.224890,-0.022503,0.410720,-0.020755,5.397208,188.721605,0
0.018750,-7.336146,165.499196,-164.691667,-0.182202,-0.098392,-3.520366,3.683441,0.415489,3.482632,-3.653855,-0.033462,0.423066,-0.005818,11.267098,188.570693,0
0.019792,-67.496769,185.722629,-110.808144,0.813078,1.680297,-3.813724,2.182871,-1.348871,3.974149,-2.218656,-0.095563,0.392690,-0.024490,17.713798,188.564011,0
0.020834,-125.150699,189.781813,-29.435038,2.362548,3.171414,-3.840393,0.635285,-2.870631,3.881486,-0.608339,-0.132093,0.395695,-0.043161,25.144468,188.721407,0
0.021875,-164.826765,154.143146,39.639773,3.663198,3.913422,-3.017467,-0.916219,-3.697675,3.244932,0.853509,-0.117481,0.399027,-0.013287,25.246258,188.592953,0
0.022917,-188.441851,79.241542,91.270455,4.669788,4.516969,-1.687833,-2.839927,-4.179198,1.863045,2.737923,-0.146705,0.400464,0.020321,25.178398,188.522592,0
0.023959,-177.314858,9.679696,147.936175,5.698998,4.151291,-0.518212,-3.600007,-3.969681,0.654397,3.617316,-0.205153,0.405167,-0.005818,16.379218,188.579636,0
0.025000,-131.355046,-54.059153,186.456061,6.456768,3.256621,1.165738,-4.391430,-3.021337,-0.928931,4.237840,-0.216112,0.406670,-0.002084,8.982478,188.732929,0
0.026042,-57.515368,-107.843338,195.011932,6.626418,1.854261,2.685864,-4.293482,-1.639255,-2.596865,4.344433,-0.197847,0.415489,-0.020755,-1.422722,188.579114,0
0.027084,6.626472,-165.010176,164.444697,6.038298,0.292138,3.645944,-3.721463,-0.102791,-3.475149,3.666805,-0.154011,0.411896,-0.009553,-6.252091,188.579592,0
0.028125,67.150055,-185.596036,111.706061,5.043018,-1.468800,4.015499,-2.248318,1.727732,-3.954579,2.319164,-0.154011,0.401509,-0.009553,-13.445251,188.513754,0
0.029167,124.826670,-189.039094,31.071591,3.550098,-2.963467,4.038358,-0.649799,3.172302,-3.894147,0.765951,-0.132093,0.401640,0.009119,-20.038981,188.741574,0
0.030209,165.342082,-154.137362,-38.606440,2.215518,-3.758729,3.238291,0.823346,4.006697,-3.225362,-0.722546,-0.088257,0.407780,-0.031958,-20.672341,188.581262,0
0.031250,187.652780,-80.395524,-91.258902,1.208928,-4.252218,1.851509,2.758808,4.502923,-1.863619,-2.606959,-0.048074,0.397655,-0.013287,-21.011641,188.578750,0
0.032304,176.230882,-9.806802,-149.167993,0.100548,-3.932693,0.678078,3.503216,4.267675,-0.679144,-3.417828,-0.029809,0.408956,-0.017021,-10.583821,188.583729,0
0.033354,130.078247,54.874358,-188.217235,-0.657222,-3.048674,-1.013491,4.286804,3.293602,0.928357,-4.122104,-0.044421,0.412549,-0.028224,-3.153151,188.726843,0
0.034385,58.030684,109.359235,-194.175569,-0.770322,-1.635663,-2.445991,4.181020,1.918871,2.507657,-4.194435,-0.029809,0.421825,-0.039427,5.793058,188.574293,0
0.035424,-6.474116,166.151565,-163.866857,-0.204822,-0.158747,-3.406071,3.558067,0.459598,3.418171,-3.535842,-0.059033,0.409217,-0.020755,11.911768,188.570635,0
0.036466,-67.882414,185.191070,-110.512690,0.790458,1.637694,-3.768006,2.053579,-1.290059,3.861342,-2.180587,-0.055380,0.401378,0.009119,18.211438,188.570653,0
0.037514,-126.942814,189.105283,-28.733333,2.362548,3.125260,-3.729907,0.517747,-2.753007,3.764650,-0.619759,-0.121134,0.393213,-0.005818,25.121848,188.721529,0
0.038547,-165.405233,153.744477,39.701326,3.640578,3.817564,-2.964129,-0.920137,-3.587403,3.164355,0.842089,-0.154011,0.399680,-0.024490,25.721278,188.646060,0
0.039586,-188.215001,79.688535,91.984470,4.613238,4.367858,-1.604016,-2.836009,-4.050547,1.766353,2.699854,-0.164970,0.405167,-0.028224,25.280188,188.570685,0
0.040625,-177.190091,10.199175,148.059281,5.698998,4.051883,-0.461064,-3.556909,-3.892490,0.622166,3.529757,-0.201500,0.407584,-0.013287,16.243498,188.570691,0
0.041667,-131.695321,-54.131639,186.160607,6.456768,3.164313,1.169548,-4.273892,-2.936795,-0.924902,4.135054,-0.183235,0.411243,0.005384,8.394358,188.721503,0
0.042708,-57.889671,-108.254089,194.581061,6.603798,1.776155,2.609667,-4.191615,-1.565740,-2.520317,4.214998,-0.205153,0.409087,-0.020755,-1.309622,188.646161,0
0.043750,6.853322,-165.143066,164.050758,6.049608,0.228233,3.634515,-3.619596,-0.062358,-3.374428,3.560212,-0.179582,0.406866,-0.002084,-6.365191,188.570814,0
0.044792,67.739865,-185.052395,111.041288,5.009088,-1.429747,3.920253,-2.126862,1.698326,-3.845801,2.231606,-0.190541,0.389816,-0.013287,-13.400011,188.570615,0
0.045833,124.962780,-188.906204,29.778977,3.516168,-2.945716,3.916443,-0.661553,3.157599,-3.801484,0.693620,-0.110175,0.392690,0.009119,-19.937191,188.721425,0
0.046875,164.899724,-153.545398,-40.108333,2.170278,-3.641570,3.143045,0.842936,3.958912,-3.185073,-0.726352,-0.095563,0.396479,-0.009553,-20.310421,188.645944,0
0.047917,187.335190,-79.175353,-91.837500,1.208928,-4.248668,1.851509,2.664777,4.447787,-1.823330,-2.580311,-0.044421,0.392625,-0.005818,-21.158671,188.570747,0
0.048958,176.990830,-8.755763,-147.776894,0.111858,-3.922042,0.708557,3.456201,4.282378,-0.715403,-3.414021,-0.029809,0.389816,-0.031958,-10.007011,188.570685,0
0.050000,131.155785,55.478403,-185.718182,-0.600672,-3.009621,-0.914435,4.204527,3.289926,0.875982,-4.061193,-0.040768,0.392298,-0.020755,-2.621581,188.721469,0
0.051042,56.760324,108.900161,-194.667993,-0.792942,-1.649864,-2.388843,4.169266,1.940926,2.479455,-4.122104,-0.037115,0.413137,-0.009553,5.431138,188.570698,0
0.052083,-7.642394,165.040122,-163.928410,-0.204822,-0.155197,-3.345113,3.565903,0.477977,3.333566,-3.486352,-0.040768,0.400399,-0.013287,11.289718,188.573384,0
0.053125,-68.290744,185.577659,-110.623485,0.779148,1.531185,-3.726098,2.135856,-1.234923,3.825083,-2.203428,-0.037115,0.401836,-0.013287,17.725108,188.571151,0
0.054167,-125.275466,188.573723,-29.299621,2.317308,3.029403,-3.672760,0.658793,-2.668465,3.728391,-0.695897,-0.102869,0.394781,-0.013287,25.020058,188.721862,0
0.055208,-165.291808,154.143146,40.292235,3.663198,3.760760,-2.990798,-0.818270,-3.532266,3.136153,0.724075,-0.150358,0.399157,-0.020755,25.212328,188.571143,0
0.056250,-186.865244,79.809344,92.403031,4.647168,4.335905,-1.680213,-2.691045,-3.984384,1.822756,2.543771,-0.154011,0.400856,0.009119,24.974818,188.570973,0
0.057292,-177.326201,9.401835,148.133144,5.687688,4.030581,-0.556310,-3.431535,-3.859408,0.710801,3.442199,-0.161317,0.416534,0.016587,16.469698,188.571145,0
0.058333,-131.888144,-54.953140,185.114205,6.411528,3.210467,1.074302,-4.191615,-2.936795,-0.856412,4.077950,-0.208806,0.406866,-0.013287,9.321778,188.721925,0
0.059375,-57.674163,-108.519869,194.864205,6.603798,1.868462,2.544900,-4.207287,-1.606173,-2.443769,4.230226,-0.197847,0.400268,-0.009553,-1.513202,188.571143,0
0.060417,6.660500,-164.671910,163.841478,6.038298,0.363144,3.474501,-3.623514,-0.179982,-3.269679,3.575440,-0.208806,0.412026,-0.024490,-6.297331,188.495734,0
0.061458,67.819262,-185.378580,111.767614,5.031708,-1.330339,3.920253,-2.224810,1.558648,-3.861916,2.345813,-0.186888,0.391972,-0.002084,-13.547041,188.571149,0
0.062500,125.280370,-187.963893,30.948485,3.561408,-2.793054,3.882154,-0.724240,3.025272,-3.801484,0.823054,-0.150358,0.400072,-0.005818,-19.925881,188.721795,0
0.063542,165.659672,-154.258171,-39.283523,2.215518,-3.556363,3.230672,0.705808,3.881722,-3.253563,-0.604532,-0.110175,0.408238,-0.039427,-20.683651,188.571218,0
0.064583,186.166912,-80.878760,-92.428409,1.231548,-4.163461,1.870558,2.621680,4.348542,-1.871676,-2.477525,-0.055380,0.397198,-0.024490,-20.819371,188.495801,0
0.065625,177.183652,-10.362523,-148.392425,0.134478,-3.890090,0.746655,3.322991,4.157403,-0.779865,-3.307428,-0.033462,0.411961,-0.005818,-10.832641,188.571120,0
0.066668,132.085870,54.874358,-185.410417,-0.589362,-3.006070,-0.864907,4.130086,3.293602,0.807492,-3.977442,-0.055380,0.413202,-0.028224,-3.922231,188.722003,0
0.067709,58.677207,108.936404,-194.581819,-0.770322,-1.688917,-2.354555,4.149676,2.018116,2.382763,-4.118297,-0.033462,0.404187,0.001650,5.781748,188.571225,0
0.068750,-6.088471,165.173012,-163.546781,-0.250062,-0.194250,-3.287966,3.538478,0.533113,3.228816,-3.471124,-0.051727,0.409805,-0.009553,11.764738,188.495781,0
0.069792,-68.007181,185.481011,-111.448296,0.756528,1.524085,-3.707048,2.120184,-1.198165,3.796881,-2.203428,-0.095563,0.402881,-0.013287,18.143578,188.571042,0
0.070834,-125.763194,187.981758,-30.075189,2.339928,2.979699,-3.680379,0.643121,-2.653762,3.764650,-0.699704,-0.132093,0.394846,-0.031958,24.861718,188.646563,0
0.071875,-165.643425,154.300198,40.107576,3.674508,3.732358,-2.929841,-0.806516,-3.488157,3.196586,0.724075,-0.168623,0.400007,-0.002084,25.732588,188.571089,0
0.072917,-186.774504,80.413389,92.821591,4.669788,4.289751,-1.676403,-2.679291,-3.969681,1.826785,2.532350,-0.143052,0.394062,-0.002084,25.212328,188.495767,0
0.073959,-177.144721,9.522645,148.342425,5.710308,3.977327,-0.544881,-3.431535,-3.833678,0.718858,3.411743,-0.175929,0.411765,-0.013287,16.345288,188.571138,0
0.075000,-131.922171,-55.231001,185.200379,6.411528,3.164313,1.066682,-4.179862,-2.933119,-0.840297,4.055109,-0.223418,0.411308,-0.017021,8.552698,188.646420,0
0.076042,-57.481341,-109.003105,194.617993,6.603798,1.786805,2.563949,-4.164190,-1.620876,-2.427654,4.207385,-0.197847,0.414052,-0.020755,-1.479272,188.571114,0
0.077084,7.397762,-165.070580,163.693750,6.038298,0.359593,3.470691,-3.560827,-0.106467,-3.297880,3.544985,-0.190541,0.405494,0.020321,-6.466981,188.495664,0
0.078125,68.579210,-185.040315,110.930493,5.020398,-1.380043,3.878344,-2.162123,1.599081,-3.785368,2.292516,-0.132093,0.390339,-0.002084,-13.467871,188.571093,0
0.079167,125.359767,-188.265916,29.286553,3.504858,-2.832107,3.897394,-0.685060,3.043651,-3.732994,0.758337,-0.121134,0.390730,-0.009553,-19.891951,188.571158,0
0.080209,165.115232,-153.521236,-40.748485,2.181588,-3.545713,3.204003,0.760659,3.874370,-3.185073,-0.680670,-0.110175,0.395891,-0.020755,-20.276491,188.570921,0
0.081250,186.439132,-79.151191,-92.785417,1.163688,-4.170562,1.866749,2.613844,4.392651,-1.875705,-2.435649,-0.091910,0.371329,-0.005818,-21.034261,188.495709,0
0.082292,176.775322,-8.115475,-148.109281,0.123168,-3.893640,0.765705,3.342581,4.205188,-0.775836,-3.299814,-0.055380,0.410916,-0.017021,-9.961771,188.495779,0
0.083334,131.189813,56.372390,-185.114963,-0.578052,-3.052224,-0.838238,4.114415,3.334035,0.819579,-3.988862,-0.026156,0.396218,-0.017021,-2.666821,188.572338,0
0.084375,56.454077,109.504206,-194.471023,-0.759012,-1.696018,-2.312647,4.110497,2.051198,2.342475,-4.095455,-0.059033,0.383349,-0.017021,5.465068,188.571558,0
0.085418,-8.334286,165.281740,-163.497538,-0.148272,-0.190700,-3.261297,3.561985,0.500032,3.265076,-3.516807,-0.029809,0.394389,0.001650,11.357578,188.495814,0
0.086459,-69.039349,185.432688,-110.561932,0.824388,1.531185,-3.668950,2.163281,-1.212868,3.764650,-2.233883,-0.080951,0.403469,-0.024490,17.849518,188.571330,0
0.087501,-125.785879,188.102568,-29.078030,2.385168,2.926445,-3.703238,0.701890,-2.624356,3.752564,-0.722546,-0.124787,0.398961,-0.013287,25.042678,188.571270,0
0.088542,-165.564028,154.046499,40.772349,3.708438,3.696855,-3.017467,-0.720322,-3.488157,3.180470,0.701234,-0.154011,0.404841,-0.002084,25.223638,188.570578,0
0.089584,-186.422886,79.893910,93.314015,4.669788,4.321704,-1.703072,-2.640112,-3.969681,1.850958,2.536157,-0.175929,0.401705,-0.005818,24.952198,188.495819,0
0.090625,-177.144721,9.184379,148.625569,5.710308,4.051883,-0.590599,-3.435453,-3.896166,0.767204,3.381288,-0.186888,0.397198,-0.031958,16.481008,188.571862,0
0.091667,-131.615924,-55.557185,185.212690,6.456768,3.178514,1.036203,-4.203369,-2.988255,-0.816124,4.112212,-0.212459,0.413072,-0.005818,9.242608,188.495687,0
0.092709,-57.526711,-109.353451,194.457955,6.637728,1.886213,2.529661,-4.211205,-1.690716,-2.399452,4.268295,-0.201500,0.403534,-0.005818,-1.626302,188.571261,0
0.093750,7.046145,-165.094742,163.349054,6.049608,0.398647,3.493551,-3.662694,-0.194685,-3.261621,3.621123,-0.179582,0.410001,-0.017021,-6.444361,188.495948,0
0.094792,68.488470,-185.197366,111.656819,5.031708,-1.287736,3.889774,-2.260072,1.510863,-3.837743,2.368654,-0.216112,0.405690,-0.020755,-13.614901,188.573502,0
0.095834,125.802125,-187.710194,32.302652,3.550098,-2.782403,3.901203,-0.751665,2.981163,-3.821628,0.830668,-0.106522,0.403273,-0.020755,-19.971121,188.495770,0
0.096875,165.829809,-154.064877,-39.788258,2.204208,-3.577665,3.272580,0.678382,3.896425,-3.253563,-0.604532,-0.150358,0.408695,-0.024490,-20.638411,188.571076,0
0.097917,186.200940,-80.625061,-93.117803,1.174998,-4.124408,1.954375,2.617762,4.352218,-1.887792,-2.466104,-0.088257,0.398112,0.005384,-20.853301,188.495797,0
0.098958,176.968145,-10.012177,-148.700190,0.111858,-3.907841,0.796183,3.358252,4.234594,-0.791951,-3.341690,-0.062686,0.411634,0.001650,-10.787401,188.570870,0
0.100000,131.927075,55.381756,-185.348864,-0.589362,-3.084176,-0.838238,4.106579,3.337711,0.759147,-3.977442,-0.044421,0.407258,-0.050629,-3.876991,188.495792,0
0.101042,58.098739,109.661258,-194.471023,-0.759012,-1.731520,-2.308837,4.137922,2.014441,2.358590,-4.144945,-0.084604,0.411765,-0.043161,5.951398,188.571183,0
0.102083,-6.871104,165.680410,-163.386743,-0.182202,-0.208451,-3.265107,3.542396,0.540465,3.269105,-3.543455,-0.051727,0.412680,0.005384,11.911768,188.496054,0
0.103125,-68.767129,185.323960,-110.943561,0.790458,1.495683,-3.703238,2.155445,-1.176111,3.788823,-2.211042,-0.088257,0.403861,-0.017021,18.234058,188.571107,0
0.104167,-126.523141,188.018001,-29.385796,2.339928,2.961947,-3.714668,0.701890,-2.657438,3.744506,-0.711125,-0.124787,0.396152,-0.009553,24.940888,188.495671,0
0.105208,-165.473288,153.949852,40.907765,3.674508,3.735908,-2.986988,-0.818270,-3.535942,3.164355,0.724075,-0.150358,0.401182,-0.024490,25.721278,188.495729,0
0.106250,-187.296259,79.579807,93.437121,4.647168,4.382059,-1.718311,-2.698881,-4.013790,1.863045,2.597068,-0.164970,0.398569,-0.002084,25.212328,188.495826,0
0.107292,-176.759076,8.821952,148.674811,5.710308,4.062534,-0.537261,-3.462879,-3.859408,0.734974,3.426971,-0.168623,0.410720,-0.013287,16.220878,188.571178,0
0.108333,-131.264306,-55.665914,185.815910,6.456768,3.224668,1.059062,-4.234713,-2.969877,-0.860441,4.131247,-0.205153,0.414313,-0.013287,8.360428,188.495770,0
0.109375,-56.630653,-109.631312,194.322538,6.615108,1.815208,2.560140,-4.230795,-1.650282,-2.439741,4.256874,-0.252642,0.405755,-0.024490,-1.547132,188.495863,0
0.110417,8.237107,-165.650464,163.595266,6.038298,0.352493,3.504980,-3.635268,-0.113819,-3.378457,3.605895,-0.161317,0.374595,-0.028224,-6.568771,188.495725,0
0.111458,69.271102,-184.883263,110.487311,5.020398,-1.415546,3.916443,-2.228728,1.591729,-3.886089,2.296323,-0.194194,0.405951,-0.005818,-13.535731,188.571098,0
0.112500,125.926892,-188.507534,28.744886,3.470928,-2.885361,3.920253,-0.716404,3.084084,-3.809541,0.769758,-0.135746,0.395565,-0.017021,-19.948501,188.495707,0
0.113542,164.956437,-153.013838,-41.400947,2.181588,-3.627369,3.204003,0.792003,3.903776,-3.205217,-0.699704,-0.106522,0.400987,0.001650,-20.265181,188.495821,0
0.114583,187.380560,-78.075990,-93.216288,1.186308,-4.238017,1.893417,2.660859,4.381624,-1.871676,-2.527014,-0.066339,0.400333,-0.024490,-21.147361,188.495769,0
0.115625,176.140142,-7.547673,-148.564773,0.123168,-3.936243,0.773324,3.413104,4.275027,-0.755692,-3.383566,-0.062686,0.385766,-0.024490,-9.882601,188.495714,0
0.116667,130.407180,56.553604,-186.136743,-0.566742,-3.069975,-0.903006,4.169266,3.356089,0.863896,-4.065000,-0.033462,0.391972,0.005384,-2.508481,188.495736,0
0.117708,55.784869,110.072009,-194.150948,-0.736392,-1.653414,-2.411702,4.149676,1.951953,2.467368,-4.110683,-0.055380,0.416207,-0.017021,5.510308,188.495709,0
0.118750,-8.878726,165.934109,-163.423675,-0.193512,-0.180049,-3.318445,3.601165,0.500032,3.329537,-3.520614,-0.066339,0.386354,-0.043161,11.481988,188.495787,0
0.119792,-69.447679,185.118584,-110.007955,0.813078,1.566688,-3.741337,2.112348,-1.260653,3.800910,-2.192007,-0.084604,0.403600,-0.009553,17.906068,188.571069,0
0.120833,-126.579854,188.501237,-28.634849,2.385168,3.025852,-3.722288,0.643121,-2.701547,3.760621,-0.665442,-0.102869,0.395369,-0.020755,25.133158,188.495826,0
0.121875,-165.427918,153.357888,41.166288,3.697128,3.789162,-3.017467,-0.845696,-3.569024,3.148240,0.781178,-0.139399,0.402424,-0.017021,25.189708,188.495575,0
0.122917,-187.863384,78.697901,93.461743,4.681098,4.374958,-1.687833,-2.745896,-4.039520,1.830814,2.608488,-0.157664,0.400987,-0.017021,24.974818,188.495629,0
0.123958,-176.214636,8.834033,149.216478,5.721618,4.062534,-0.518212,-3.494222,-3.859408,0.734974,3.419357,-0.183235,0.408891,-0.031958,16.322668,188.502403,0
0.125000,-130.935374,-55.327648,186.406819,6.434148,3.189165,1.123830,-4.230795,-2.991931,-0.876556,4.161702,-0.179582,0.410393,-0.002084,8.971168,188.495848,0
0.126042,-57.016298,-109.824606,193.977841,6.581178,1.801006,2.579189,-4.250384,-1.613525,-2.508231,4.291136,-0.183235,0.410981,-0.050629,-1.648922,188.495810,0
0.127083,7.772065,-166.097457,163.496781,6.038298,0.295688,3.565937,-3.709709,-0.095440,-3.402630,3.647771,-0.183235,0.411765,-0.020755,-6.546151,188.495859,0
