1-Time,2-VGERA,3-VGERB,4-VGERC,5-VN,6-IGERAN,7-IGERBN,8-IGERCN,9-IGERAT,10-IGERBT,11-IGERCT,12-IN,13-IFD,14-IFAULT,15-VFAULT,16-Speed (rad/s),17-FAULT 
0.000000,-127.952296,-67.337741,179.886653,6.479388,6.231754,-0.742992,-5.625581,-6.211888,0.936415,5.391329,-0.270907,0.607871,-0.061832,3.938218,188.495450,0
0.001042,-49.802468,-122.461453,187.698471,6.615108,4.967855,1.672447,-6.526707,-5.006242,-1.480880,6.472488,-0.263601,0.607871,-0.024490,0.918448,188.570801,0
0.002083,21.122188,-171.973344,159.051198,6.094848,3.008101,3.706902,-6.585476,-3.061770,-3.479178,6.499136,-0.281866,0.608655,-0.058098,-0.370892,188.495436,0
0.003125,88.303818,-180.521308,104.663926,4.997778,0.363144,5.440379,-5.527632,-0.448312,-5.272005,5.528377,-0.245336,0.609112,-0.043161,-1.411412,188.495693,0
0.004167,135.806210,-184.617700,19.963018,3.323898,-2.338618,6.465226,-3.795904,2.264392,-6.408133,3.834309,-0.216112,0.602514,-0.031958,-2.678131,188.495282,0
0.005208,165.614302,-150.745505,-52.080618,1.898838,-4.500737,6.373790,-1.437305,4.547032,-6.343672,1.565399,-0.143052,0.608720,-0.043161,-2.768611,188.570750,0
0.006250,192.518713,-72.558866,-105.085163,0.847008,-6.180019,5.131782,1.458052,6.131281,-5.215601,-1.327842,-0.110175,0.600032,-0.046895,-2.881711,188.495513,0
0.007292,179.032480,0.607916,-154.414253,-0.159582,-6.407237,3.516410,3.260304,6.473126,-3.612129,-3.166573,-0.055380,0.595459,-0.061832,-0.687572,188.495725,0
0.008333,127.537527,67.973449,-180.130616,-0.668532,-6.098363,0.841901,5.571888,6.134956,-0.945047,-5.439290,-0.007891,0.587555,-0.050629,1.122028,188.495537,0
0.009375,48.865944,123.014286,-187.753344,-0.781632,-4.809612,-1.512580,6.539619,4.896229,1.488364,-6.470958,-0.022503,0.613750,-0.065566,3.994768,188.570783,0
0.010417,-22.693892,172.313069,-159.472435,-0.283992,-2.853408,-3.539415,6.473014,2.900296,3.462488,-6.402434,0.035945,0.603951,-0.028224,4.910878,188.570939,0
0.011458,-89.138260,180.813676,-103.584254,0.858318,-0.208451,-5.261463,5.415170,0.294190,5.271431,-5.405027,-0.011544,0.604147,-0.035692,6.381178,188.495291,0
0.012500,-136.107554,185.016622,-18.930618,2.486958,2.528813,-6.366317,3.714785,-2.444244,6.375329,-3.745221,-0.044421,0.595982,-0.035692,7.568728,188.495390,0
0.013542,-165.677453,150.173606,52.675745,3.912018,4.712235,-6.191064,1.277827,-4.668073,6.326983,-1.449663,-0.121134,0.604343,-0.046895,7.602658,188.495379,0
0.014583,-193.455237,72.058002,105.195744,4.986468,6.359564,-4.956676,-1.633201,-6.278052,5.074018,1.435964,-0.157664,0.601600,-0.039427,7.964578,188.495443,0
0.015625,-178.778041,-0.386584,155.056653,5.981748,6.579681,-3.364163,-3.380602,-6.612545,3.559180,3.251854,-0.201500,0.614077,-0.043161,5.295418,188.495376,0
0.016667,-128.167804,-67.029920,180.430289,6.456768,6.249505,-0.682035,-5.715693,-6.252321,0.924328,5.448433,-0.248989,0.613031,-0.043161,3.666778,188.495414,0
0.017708,-50.188113,-122.911346,187.213925,6.592488,4.907500,1.710545,-6.640327,-5.031972,-1.533255,6.506750,-0.263601,0.618388,-0.069301,1.076788,188.570550,0
0.018750,21.541860,-172.352201,159.382108,6.094848,2.954847,3.764049,-6.589394,-3.032364,-3.531552,6.468681,-0.274560,0.614795,-0.061832,-0.167312,188.495434,0
0.019792,88.995711,-180.154290,103.671199,4.952538,0.309890,5.489907,-5.543304,-0.356418,-5.368697,5.482695,-0.252642,0.603690,-0.065566,-1.377482,188.495446,0
0.020833,136.078430,-185.138629,18.710291,3.256038,-2.398973,6.564282,-3.795904,2.315852,-6.412162,3.826695,-0.216112,0.598791,-0.039427,-2.678131,188.495515,0
0.021875,165.126574,-149.597095,-53.238800,1.864908,-4.557542,6.366170,-1.394207,4.543357,-6.379932,1.474033,-0.143052,0.602449,-0.061832,-2.666821,188.570892,0
0.022917,193.097180,-70.569866,-105.286072,0.858318,-6.222622,5.192739,1.524657,6.164362,-5.199486,-1.331649,-0.110175,0.599575,-0.024490,-2.915641,188.495358,0
0.023958,178.215820,1.957595,-154.556071,-0.159582,-6.424988,3.558318,3.307319,6.447395,-3.555725,-3.132311,-0.084604,0.622046,-0.073035,-0.710192,188.495347,0
0.025000,126.868320,68.257592,-180.272435,-0.657222,-6.144516,0.887620,5.638493,6.131281,-0.997421,-5.446903,-0.022503,0.605127,-0.039427,1.065478,188.495392,0
0.026042,48.956684,123.440500,-187.186071,-0.804252,-4.834464,-1.539249,6.574880,4.947689,1.488364,-6.539482,0.006721,0.614338,-0.009553,4.130488,188.570763,0
0.027083,-22.387644,172.656409,-159.354253,-0.238752,-2.864059,-3.547035,6.543536,2.977487,3.498748,-6.482379,-0.018850,0.613946,-0.054364,4.967428,188.495367,0
0.028125,-89.376452,180.434819,-103.962435,0.835698,-0.176499,-5.326231,5.442596,0.286838,5.271431,-5.446903,0.003068,0.607479,-0.046895,6.392488,188.495416,0
0.029167,-136.402459,184.992944,-19.509709,2.464338,2.567867,-6.354888,3.722621,-2.429541,6.403531,-3.760448,-0.059033,0.607022,-0.058098,7.580038,188.504058,0
0.030208,-165.870275,150.280160,52.663927,3.889398,4.705134,-6.210114,1.285663,-4.690128,6.359214,-1.434435,-0.110175,0.606368,-0.061832,7.659208,188.571040,0
0.031250,-193.489264,72.058002,105.526654,4.975158,6.370215,-5.010014,-1.574432,-6.307458,5.146537,1.401702,-0.179582,0.607544,-0.073035,7.840168,188.570959,0
0.032292,-178.880124,-0.824637,155.068471,5.993058,6.537078,-3.356543,-3.384520,-6.660330,3.575295,3.194750,-0.216112,0.617604,-0.061832,5.419828,188.495624,0
0.033333,-127.532624,-67.763956,180.513016,6.513318,6.281458,-0.655366,-5.739201,-6.270700,0.956559,5.490309,-0.252642,0.608197,-0.054364,3.847738,188.495676,0
0.034375,-48.940438,-123.254685,187.497562,6.637728,4.957204,1.687686,-6.648163,-5.039324,-1.525197,6.514364,-0.256295,0.601012,-0.031958,0.895828,188.571020,0
0.035417,23.129810,-172.375879,159.169380,6.094848,3.011651,3.752620,-6.612901,-3.087501,-3.559754,6.506750,-0.278213,0.579781,-0.084238,-0.382202,188.571103,0
0.036458,89.676261,-180.509468,102.962108,4.907298,0.331191,5.501337,-5.531550,-0.363770,-5.360639,5.516957,-0.234377,0.599901,-0.046895,-1.422722,188.495709,0
0.037500,136.282595,-185.008397,18.273018,3.312588,-2.416724,6.606190,-3.850755,2.345258,-6.496768,3.860957,-0.227071,0.600228,-0.043161,-2.689441,188.495517,0
0.038542,165.455507,-149.656291,-53.191527,1.910148,-4.585944,6.430938,-1.437305,4.583790,-6.408133,1.561592,-0.164970,0.609047,-0.058098,-2.791231,188.495658,0
0.039583,193.335373,-70.806652,-105.628799,0.869628,-6.240374,5.166071,1.489396,6.131281,-5.155169,-1.369718,-0.128440,0.607022,-0.065566,-2.881711,188.570970,0
0.040625,178.159107,1.105166,-155.099708,-0.136962,-6.456941,3.562128,3.291647,6.502532,-3.636302,-3.170380,-0.062686,0.617343,-0.069301,-0.619712,188.495504,0
0.041667,127.163225,67.961610,-180.650616,-0.668532,-6.155167,0.891429,5.650246,6.157011,-0.961162,-5.458324,-0.029809,0.615318,-0.084238,1.110718,188.495613,0
0.042708,49.501124,123.689125,-187.292435,-0.781632,-4.845114,-1.550679,6.567044,4.940338,1.460162,-6.505220,-0.004238,0.624986,-0.050629,3.960838,188.496161,0
0.043755,-23.068194,172.786641,-159.484253,-0.261372,-2.846308,-3.623232,6.504357,2.914999,3.518892,-6.501413,-0.011544,0.618519,-0.028224,4.922188,188.570892,0
0.044792,-89.603302,180.636087,-103.111526,0.835698,-0.183599,-5.318611,5.407334,0.275811,5.279488,-5.496393,-0.026156,0.605846,-0.058098,6.403798,188.495455,0
0.045834,-136.742734,185.146854,-18.162436,2.509578,2.560766,-6.370127,3.683441,-2.433217,6.363242,-3.768062,-0.059033,0.600293,-0.069301,7.534798,188.571091,0
0.046875,-165.756850,149.190945,53.798472,3.934638,4.680282,-6.191064,1.273909,-4.675425,6.262522,-1.423014,-0.099216,0.601796,-0.050629,7.602658,188.495703,0
0.047917,-194.011019,69.938770,105.680290,4.975158,6.380865,-5.006204,-1.637119,-6.281727,5.069989,1.454999,-0.172276,0.594479,-0.043161,7.975888,188.571136,0
0.048959,-177.791243,-2.565012,155.222108,5.970438,6.569030,-3.333684,-3.427617,-6.608869,3.514863,3.206171,-0.197847,0.613554,-0.054364,5.238868,188.495700,0
0.050000,-126.613881,-68.462473,180.619380,6.490698,6.292108,-0.643936,-5.719611,-6.263349,0.928357,5.520764,-0.256295,0.614665,-0.031958,3.655468,188.495671,0
0.051042,-48.259888,-123.728257,187.001198,6.592488,4.921701,1.710545,-6.648163,-5.043000,-1.577572,6.518170,-0.263601,0.617931,-0.050629,1.065478,188.571080,0
0.052083,23.311290,-172.506112,159.311198,6.094848,2.997450,3.783098,-6.608984,-3.043392,-3.583927,6.499136,-0.281866,0.620348,-0.076769,-0.223862,188.571053,0
0.053125,89.982508,-180.083254,103.033017,4.941228,0.302789,5.508956,-5.527632,-0.396852,-5.344524,5.520764,-0.238030,0.605846,-0.043161,-1.422722,188.495723,0
0.054167,136.929118,-184.996557,18.615745,3.301278,-2.388322,6.549043,-3.807657,2.367313,-6.476623,3.803854,-0.223418,0.602710,-0.065566,-2.644201,188.495595,0
0.055209,165.580274,-149.241916,-53.144254,1.898838,-4.557542,6.430938,-1.405961,4.539681,-6.436335,1.527330,-0.143052,0.611660,-0.046895,-2.632891,188.571263,0
0.056250,193.755045,-70.889527,-105.888799,0.858318,-6.208421,5.192739,1.481560,6.186417,-5.239774,-1.331649,-0.091910,0.608851,-0.039427,-2.926951,188.571111,0
0.057292,177.614667,1.519541,-155.265162,-0.136962,-6.421438,3.531649,3.275976,6.447395,-3.620186,-3.151345,-0.073645,0.616102,-0.017021,-0.676262,188.495794,0
0.058333,126.766237,68.435181,-180.556071,-0.668532,-6.119664,0.849521,5.575806,6.164362,-0.957133,-5.443096,-0.007891,0.601077,-0.054364,1.065478,188.495756,0
0.059375,48.264791,124.174536,-187.008798,-0.815562,-4.838014,-1.531629,6.551372,4.907256,1.476277,-6.463345,-0.015197,0.613489,-0.039427,4.198348,188.571053,0
0.060417,-24.100362,172.609051,-159.094253,-0.272682,-2.874710,-3.566084,6.543536,2.944405,3.494719,-6.436696,0.021333,0.614926,-0.024490,5.023978,188.571174,0
0.061459,-90.510702,180.422980,-102.284254,0.880938,-0.187149,-5.276703,5.407334,0.253756,5.275460,-5.446903,-0.004238,0.601208,-0.024490,6.381178,188.495758,0
0.062500,-136.890187,185.016622,-17.524254,2.520888,2.486210,-6.373937,3.703031,-2.414838,6.391444,-3.756642,-0.069992,0.597092,-0.020755,7.557418,188.495749,0
0.063542,-165.552685,149.356695,53.963927,3.934638,4.666081,-6.172015,1.320924,-4.653370,6.347127,-1.461083,-0.110175,0.605976,-0.058098,7.636588,188.571154,0
0.064584,-193.806854,70.116360,106.058472,5.009088,6.352463,-4.956676,-1.586186,-6.263349,5.098191,1.447385,-0.161317,0.599770,-0.020755,7.862788,188.571015,0
0.065625,-177.802586,-1.807298,155.612108,5.970438,6.554829,-3.341304,-3.376684,-6.575787,3.539036,3.187137,-0.212459,0.617996,-0.043161,5.442448,188.495644,0
0.066667,-126.886101,-68.107295,180.654835,6.445458,6.238854,-0.742992,-5.692186,-6.252321,0.960588,5.456046,-0.248989,0.615971,-0.046895,3.847738,188.571094,0
0.067709,-49.133260,-123.894007,186.859380,6.603798,4.978505,1.691496,-6.577640,-5.035648,-1.501024,6.502943,-0.267254,0.616036,-0.009553,0.884518,188.495873,0
0.068750,22.902960,-172.648183,158.897562,6.106158,2.954847,3.737380,-6.573722,-3.087501,-3.507379,6.514364,-0.238030,0.613554,-0.009553,-0.450062,188.571232,0
0.069792,90.039221,-180.106933,102.784835,4.895988,0.327641,5.447999,-5.484535,-0.407879,-5.284091,5.494115,-0.230724,0.604147,-0.043161,-1.445342,188.495749,0
0.070834,137.110598,-184.747932,17.871200,3.267348,-2.402523,6.526184,-3.842919,2.268067,-6.412162,3.781012,-0.183235,0.600816,-0.050629,-2.644201,188.571123,0
0.071875,165.580274,-148.898577,-54.042436,1.853598,-4.514939,6.362361,-1.390289,4.495572,-6.343672,1.523523,-0.128440,0.607022,-0.039427,-2.768611,188.495758,0
0.072917,193.596250,-69.101795,-106.231526,0.824388,-6.158717,5.173690,1.454134,6.164362,-5.195457,-1.358297,-0.091910,0.561621,-0.046895,-2.870401,188.571071,0
0.073959,177.229022,3.188881,-155.253344,-0.170892,-6.378835,3.535459,3.248550,6.451071,-3.600042,-3.075207,-0.062686,0.597484,-0.043161,-0.597092,188.495685,0
0.075000,125.779440,69.441520,-180.508798,-0.691152,-6.105463,0.845711,5.611067,6.101875,-0.957133,-5.412641,-0.015197,0.604539,-0.035692,1.223818,188.571018,0
0.076042,47.255309,124.506036,-186.866980,-0.759012,-4.816712,-1.493531,6.488685,4.907256,1.431960,-6.444310,-0.007891,0.601469,-0.043161,4.006078,188.495655,0
0.077084,-24.406609,172.739284,-158.999708,-0.272682,-2.871160,-3.543225,6.512193,2.951757,3.466517,-6.436696,-0.029809,0.605388,-0.024490,4.956118,188.571018,0
0.078125,-90.737552,180.363783,-102.319708,0.869628,-0.222652,-5.276703,5.407334,0.283162,5.219056,-5.458324,-0.011544,0.607544,-0.013287,6.449038,188.495732,0
0.079167,-137.627449,184.791676,-17.878800,2.532198,2.479110,-6.339648,3.738292,-2.425866,6.363242,-3.733800,-0.037115,0.604147,-0.058098,7.534798,188.571192,0
0.080209,-166.074440,148.954160,53.573927,3.957258,4.687383,-6.156776,1.266073,-4.638667,6.282666,-1.445856,-0.124787,0.610418,-0.039427,7.602658,188.495725,0
0.081250,-194.147129,70.317628,106.413017,4.941228,6.331161,-4.975725,-1.582268,-6.270700,5.110278,1.416930,-0.154011,0.608785,-0.058098,7.998508,188.571029,0
0.082292,-177.382913,-1.736262,156.037562,5.970438,6.540628,-3.337494,-3.364930,-6.586815,3.571267,3.209978,-0.197847,0.618584,-0.080503,5.227558,188.495705,0
0.083333,-126.738649,-68.651902,180.690289,6.490698,6.249505,-0.659176,-5.672596,-6.263349,0.928357,5.475081,-0.241683,0.617016,-0.035692,3.576298,188.571107,0
0.084375,-48.135120,-124.497810,186.729380,6.626418,4.939452,1.687686,-6.608984,-5.065054,-1.488938,6.491522,-0.270907,0.616886,-0.065566,0.997618,188.495640,0
0.085417,24.592993,-172.588987,158.968471,6.094848,2.976149,3.752620,-6.597230,-3.013986,-3.543639,6.502943,-0.278213,0.601600,-0.050629,-0.291722,188.571129,0
0.086458,91.082731,-180.059576,101.673926,4.963848,0.309890,5.489907,-5.488453,-0.385824,-5.280062,5.497922,-0.252642,0.599575,-0.054364,-1.445342,188.495609,0
0.087500,137.224023,-184.878165,16.902109,3.278658,-2.391872,6.529994,-3.839001,2.308501,-6.400076,3.826695,-0.216112,0.599313,-0.058098,-2.655511,188.571129,0
0.088542,165.319397,-148.188220,-54.574254,1.910148,-4.511388,6.377600,-1.398125,4.521302,-6.379932,1.557785,-0.143052,0.605780,-0.076769,-2.655511,188.495752,0
0.089584,193.743703,-68.841331,-106.515163,0.847008,-6.169368,5.154641,1.461970,6.145984,-5.122938,-1.346876,-0.139399,0.601077,-0.028224,-2.881711,188.571035,0
0.090625,176.729952,2.667952,-155.785162,-0.193512,-6.368184,3.558318,3.240714,6.425341,-3.604071,-3.117083,-0.128440,0.607805,-0.054364,-0.687572,188.492776,0
0.091667,126.028975,68.979788,-180.650616,-0.702462,-6.109013,0.860951,5.560134,6.116578,-0.989364,-5.408834,-0.022503,0.609439,-0.061832,1.099408,188.495504,0
0.092708,48.230764,124.896732,-186.394253,-0.781632,-4.834464,-1.440193,6.480849,4.892553,1.419874,-6.425276,0.010374,0.618323,-0.065566,4.141798,188.496223,0
0.093750,-23.896197,172.916873,-158.775162,-0.295302,-2.906662,-3.543225,6.484767,2.970136,3.389969,-6.429082,0.010374,0.621981,-0.069301,5.023978,188.571540,0
0.094792,-90.987087,179.925730,-102.319708,0.835698,-0.208451,-5.227175,5.375991,0.341974,5.223085,-5.458324,-0.018850,0.607087,-0.061832,6.449038,188.496105,0
0.095834,-137.820272,184.590408,-17.276073,2.532198,2.482660,-6.297740,3.699113,-2.341323,6.343098,-3.779483,-0.044421,0.597484,-0.024490,7.591348,188.571467,0
0.096875,-165.745508,148.800249,54.637563,3.912018,4.658980,-6.088199,1.328760,-4.579855,6.246406,-1.472504,-0.121134,0.599183,-0.061832,7.636588,188.496277,0
0.097917,-193.965649,68.790360,106.673017,4.975158,6.299209,-4.945247,-1.558761,-6.204537,5.090134,1.409316,-0.168623,0.601992,-0.050629,7.908028,188.571572,0
0.098959,-177.019953,-3.500316,155.576653,5.981748,6.466072,-3.356543,-3.298325,-6.553733,3.539036,3.137647,-0.190541,0.618323,-0.046895,5.397208,188.496069,0
0.100000,-125.354864,-69.764795,180.572107,6.535938,6.242405,-0.685845,-5.653006,-6.241294,0.936415,5.417977,-0.245336,0.607740,-0.046895,3.768568,188.646996,0
0.101042,-46.921473,-124.746435,186.611198,6.592488,4.939452,1.661017,-6.558050,-5.031972,-1.480880,6.430612,-0.270907,0.617212,-0.061832,0.850588,188.496183,0
0.102083,25.046693,-172.636344,158.566653,6.117468,2.958397,3.756430,-6.585476,-3.043392,-3.475149,6.442032,-0.245336,0.611921,-0.065566,-0.450062,188.571563,0
0.103125,91.139443,-179.976701,101.945744,4.952538,0.327641,5.436569,-5.472781,-0.426258,-5.259918,5.475081,-0.219765,0.606172,-0.043161,-1.479272,188.496096,0
0.104167,137.757120,-184.546665,17.374836,3.301278,-2.338618,6.560472,-3.819411,2.275419,-6.392018,3.834309,-0.248989,0.603755,-0.061832,-2.689441,188.646898,0
0.105209,165.841152,-148.377648,-54.278799,1.864908,-4.465235,6.366170,-1.441222,4.517626,-6.375903,1.557785,-0.179582,0.608916,-0.050629,-2.757301,188.496125,0
0.106250,193.834443,-69.421456,-106.893344,0.824388,-6.137416,5.162261,1.426709,6.116578,-5.195457,-1.297387,-0.110175,0.607152,-0.050629,-2.881711,188.571489,0
0.107292,176.741295,2.324613,-156.045162,-0.148272,-6.385935,3.554508,3.244632,6.399610,-3.608100,-3.079014,-0.069992,0.616036,-0.046895,-0.574472,188.496279,0
0.108334,125.904207,69.429681,-180.674253,-0.668532,-6.077061,0.895239,5.583642,6.087172,-0.949075,-5.405027,-0.011544,0.611856,-0.061832,1.223818,188.647072,0
0.109375,47.629611,125.145357,-186.547889,-0.770322,-4.816712,-1.478292,6.453424,4.907256,1.496422,-6.425276,-0.033462,0.599575,-0.028224,3.983458,188.496288,0
0.110417,-25.314009,172.822159,-158.716071,-0.261372,-2.864059,-3.558465,6.488685,2.922351,3.482632,-6.391014,-0.015197,0.603429,-0.058098,5.012668,188.571491,0
0.111458,-91.713007,180.422980,-100.866072,0.948798,-0.197800,-5.265273,5.415170,0.319920,5.223085,-5.435483,0.017680,0.603233,-0.039427,6.482968,188.496156,0
0.112500,-138.001752,184.767997,-15.999709,2.577438,2.454258,-6.347268,3.742210,-2.407487,6.322954,-3.790904,-0.051727,0.596374,-0.061832,7.568728,188.646907,0
0.113542,-165.972358,147.983338,55.051199,3.934638,4.644779,-6.126297,1.293499,-4.598234,6.302810,-1.468697,-0.102869,0.605454,-0.061832,7.591348,188.496112,0
0.114583,-194.226527,68.281270,106.850290,4.975158,6.299209,-4.922387,-1.547007,-6.241294,5.021644,1.397895,-0.190541,0.595002,-0.050629,8.021128,188.496147,0
0.115625,-176.157923,-3.192494,156.167562,5.993058,6.473173,-3.307015,-3.329669,-6.472866,3.498748,3.175716,-0.164970,0.611921,-0.043161,5.250178,188.496304,0
0.116667,-125.570371,-69.433295,180.631198,6.490698,6.210452,-0.682035,-5.641253,-6.178806,0.908213,5.459853,-0.230724,0.607479,-0.035692,3.576298,188.646893,0
0.117708,-47.590680,-125.291042,186.055744,6.615108,4.896849,1.626729,-6.518871,-4.980512,-1.448650,6.438226,-0.267254,0.613162,-0.046895,1.008928,188.496103,0
0.118750,24.570308,-172.577147,158.602108,6.072228,2.976149,3.703092,-6.522789,-3.054419,-3.442918,6.449646,-0.230724,0.614403,-0.073035,-0.303032,188.571493,0
0.119792,91.377636,-179.586004,101.614835,4.963848,0.292138,5.444189,-5.414012,-0.422582,-5.235745,5.402750,-0.274560,0.600816,-0.050629,-1.501892,188.496138,0
0.120833,137.995313,-184.416432,17.126654,3.278658,-2.356369,6.495705,-3.760642,2.279095,-6.311442,3.800047,-0.248989,0.598595,-0.065566,-2.655511,188.647047,0
0.121875,165.636987,-147.596256,-54.928799,1.819668,-4.475885,6.293783,-1.339356,4.407354,-6.242952,1.515909,-0.164970,0.599705,-0.058098,-2.632891,188.496335,0
0.122917,194.015923,-68.178331,-107.165163,0.767838,-6.091262,5.150831,1.399283,6.076144,-5.147111,-1.259318,-0.128440,0.605127,-0.080503,-2.926951,188.571522,0
0.123959,175.970004,4.289934,-155.867889,-0.170892,-6.297178,3.539269,3.162355,6.366529,-3.575869,-3.044752,-0.095563,0.601926,-0.046895,-0.642332,188.496091,0
0.125000,124.679217,70.518895,-180.520616,-0.668532,-6.055759,0.891429,5.458267,6.039387,-0.945047,-5.328890,-0.015197,0.611529,-0.046895,1.167268,188.646831,0
0.126042,46.189114,125.512375,-186.098798,-0.747702,-4.788310,-1.466862,6.422080,4.826389,1.407787,-6.360558,-0.000585,0.614469,-0.043161,4.198348,188.496051,0
0.127083,-26.130669,172.786641,-158.243344,-0.227442,-2.821456,-3.474648,6.488685,2.918675,3.385941,-6.364365,0.003068,0.612052,-0.043161,5.069218,188.571598,0
0.128125,-92.144022,179.783658,-101.090617,0.926178,-0.233303,-5.189076,5.391663,0.319920,5.174739,-5.385993,-0.026156,0.602057,-0.024490,6.482968,188.496223,0
