1-Time,2-VGERA,3-VGERB,4-VGERC,5-VN,6-IGERAN,7-IGERBN,8-IGERCN,9-IGERAT,10-IGERBT,11-IGERCT,12-IN,13-IFD,14-IFAULT,15-VFAULT,16-Speed (rad/s),17-Active Power,18-Reactive Power,19-FAULT 
0.000000,-157.896755,155.984071,13.566280,0.516936,3.198108,-3.389898,0.090811,-2.717966,3.435625,-0.139808,-0.083563,0.407219,-0.082290,315.521016,188.495607,1060.804784,91.194886,0
0.001040,-180.846903,105.116432,76.317513,1.732941,3.814579,-2.416399,-1.366391,-3.410723,2.497123,1.370405,-0.127317,0.403912,-0.059989,279.832127,188.495597,1058.802604,93.413082,0
0.002082,-181.524899,27.340975,131.425344,2.858871,3.898977,-1.157287,-2.570001,-3.450620,1.258470,2.581603,-0.138256,0.401432,-0.112023,205.977518,188.495703,1056.589968,95.527647,0
0.003124,-152.981288,-39.323702,166.932529,3.489392,3.377912,0.182280,-3.198300,-3.069785,-0.039369,3.349957,-0.149195,0.420517,-0.082290,108.153935,188.495676,1054.692406,97.512320,0
0.004165,-83.678846,-93.526924,185.694710,3.905986,2.269731,1.992505,-3.784966,-1.927280,-1.759955,3.796587,-0.174718,0.402465,-0.082290,-16.948568,188.495696,1050.987182,99.482136,0
0.005207,-12.828314,-142.574086,176.909051,3.748356,1.014772,2.873481,-3.376193,-0.752132,-2.829510,3.561917,-0.167425,0.415418,-0.074856,-132.875537,188.420242,1050.450831,101.061953,0
0.006249,52.677353,-174.544003,129.031465,2.836352,-0.629152,3.694116,-2.498087,0.738565,-3.493225,2.600528,-0.160133,0.417554,-0.056273,-231.498461,188.495691,1046.711807,103.238005,0
0.007290,106.284199,-188.520565,51.929108,1.350125,-2.063916,3.883184,-1.283122,2.225635,-3.907519,1.453675,-0.152841,0.415143,-0.082290,-294.894087,188.497075,1046.140629,105.947540,0
0.008332,157.936158,-156.104337,-11.927927,0.089083,-3.106046,3.541253,0.037821,3.110623,-3.438268,0.110001,-0.094502,0.416590,-0.056273,-323.557781,188.495716,1043.628042,108.231452,0
0.009374,181.327003,-106.787040,-75.821417,-1.171959,-3.766552,2.515459,1.517732,3.832396,-2.508221,-1.468341,-0.072625,0.415556,-0.089723,-281.474164,188.269525,1042.731866,109.765071,0
0.010415,181.202704,-29.493129,-131.792016,-2.275370,-3.854619,1.240256,2.721342,3.825142,-1.320297,-2.653045,-0.090856,0.418312,-0.089723,-207.157963,188.495664,1040.003114,111.163108,0
0.011457,153.766485,37.864504,-167.177684,-2.950928,-3.392265,-0.095288,3.444266,3.542236,0.062091,-3.447894,-0.050748,0.422653,-0.100873,-108.872789,188.495573,1039.399817,112.533687,0
0.012499,85.740935,93.571087,-184.846215,-3.333744,-2.265737,-1.841150,3.981727,2.381596,1.748858,-3.909663,-0.028871,0.424789,-0.108307,17.096605,188.495667,1036.345754,113.502671,0
0.013540,14.235007,142.512544,-176.583078,-3.153596,-1.047472,-2.818671,3.591878,1.217329,2.780365,-3.678778,-0.032517,0.438982,-0.082290,133.496424,188.344956,1034.881223,113.804933,0
0.014582,-52.061654,174.259306,-128.875615,-2.219074,0.680850,-3.582989,2.683493,-0.327773,3.477900,-2.736315,-0.039809,0.415005,-0.067423,232.051797,188.495685,1032.963258,114.494812,0
0.015624,-106.131797,188.306338,-50.922641,-0.721587,2.119283,-3.796193,1.502592,-1.803962,3.930241,-1.566751,-0.043455,0.408528,-0.067423,294.569274,188.420282,1033.039196,115.390623,0
0.016668,-157.885455,155.619975,13.663494,0.460640,3.139396,-3.397943,0.128660,-2.674442,3.414488,-0.154948,-0.098148,0.407908,-0.108307,315.036908,188.495658,1032.311608,115.736442,0
0.017707,-180.903403,105.586232,76.645608,1.755459,3.799901,-2.424445,-1.332326,-3.396215,2.547853,1.343910,-0.156487,0.406048,-0.086006,280.417560,188.269536,1032.460316,116.500266,0
0.018749,-181.005102,27.646345,131.729136,2.791315,3.876960,-1.217628,-2.517012,-3.399842,1.279607,2.483193,-0.156487,0.398125,-0.056273,205.729834,188.495685,1031.066849,117.340786,0
0.019791,-153.195986,-39.452897,167.005439,3.466873,3.396259,0.146075,-3.202085,-3.022634,-0.022459,3.312107,-0.174718,0.391441,-0.074856,107.962543,188.420332,1030.257111,117.354475,0
0.020832,-84.006543,-93.961489,185.257250,3.860949,2.258723,1.928141,-3.758471,-1.898264,-1.772638,3.796587,-0.196595,0.395093,-0.104590,-17.196251,188.495761,1030.158733,116.972500,0
0.021874,-12.726614,-142.456636,176.884748,3.703318,1.036788,2.861413,-3.342128,-0.773894,-2.791462,3.524067,-0.171072,0.393370,-0.063706,-132.807987,188.269561,1029.405280,117.287508,0
0.022916,53.027651,-174.391318,129.323105,2.836352,-0.614474,3.661934,-2.464023,0.753073,-3.497452,2.623238,-0.156487,0.403568,-0.067423,-231.520977,188.344858,1029.701366,117.330711,0
0.023957,106.566697,-188.250430,51.941260,1.338865,-2.060247,3.879161,-1.328541,2.203873,-3.848334,1.472600,-0.152841,0.417899,-0.082290,-294.860312,188.420330,1028.928588,117.666672,0
0.024999,157.913558,-156.163062,-11.867168,0.044046,-3.106046,3.505048,0.060531,3.099742,-3.450950,0.125141,-0.116379,0.415281,-0.074856,-323.546523,188.420417,1028.941320,117.956741,0
0.026041,180.999305,-106.857510,-76.185967,-1.115662,-3.733526,2.515459,1.513947,3.836023,-2.554723,-1.400211,-0.065333,0.413489,-0.082290,-281.294030,188.269556,1028.918168,119.146910,0
0.027082,181.214004,-29.563599,-131.925685,-2.241592,-3.880305,1.296574,2.721342,3.846904,-1.324524,-2.634120,-0.068979,0.424582,-0.082290,-207.157963,188.344871,1029.037826,119.415738,0
0.028124,153.676086,37.923229,-167.092623,-2.894632,-3.410613,-0.067129,3.444266,3.524101,0.011361,-3.447894,-0.025225,0.421344,-0.089723,-108.726431,188.420305,1028.734269,119.870561,0
0.029166,85.955633,93.782497,-184.761153,-3.198633,-2.258398,-1.869309,3.985512,2.443255,1.753086,-3.936158,-0.028871,0.400949,-0.086006,17.119122,188.495564,1029.441523,120.468098,0
0.030207,14.257607,142.606504,-176.510168,-3.153596,-1.069489,-2.802580,3.633512,1.282615,2.835322,-3.724198,-0.017932,0.407839,-0.089723,133.597749,188.269521,1030.518660,121.096840,0
0.031249,-52.287653,174.024406,-129.191559,-2.275370,0.625807,-3.542761,2.728912,-0.287876,3.537085,-2.743885,-0.036163,0.416452,-0.097156,232.018022,188.344894,1031.119903,121.442987,0
0.032291,-106.425595,188.423789,-51.019855,-0.721587,2.108274,-3.860556,1.513947,-1.767692,3.921786,-1.555396,-0.054394,0.410664,-0.086006,294.839474,188.420327,1030.794420,121.666267,0
0.033332,-157.670757,155.784406,13.226034,0.528196,3.139396,-3.418057,0.140015,-2.681696,3.410260,-0.226863,-0.047102,0.410940,-0.097156,314.980617,188.420359,1030.787895,122.276486,0
0.034374,-181.163301,105.762408,76.694215,1.744200,3.810910,-2.428467,-1.320971,-3.421604,2.568991,1.366620,-0.134610,0.408253,-0.093440,280.586435,188.269548,1031.416211,122.198779,0
0.035416,-180.926003,27.564130,131.704833,2.802574,3.862282,-1.217628,-2.543506,-3.461501,1.334565,2.521043,-0.116379,0.415143,-0.074856,205.459635,188.344921,1032.522034,122.726571,0
0.036457,-152.992588,-39.582092,167.284927,3.489392,3.407268,0.154121,-3.262644,-3.149579,-0.022459,3.368882,-0.138256,0.451178,-0.063706,107.658569,188.420215,1034.302158,123.491243,0
0.037499,-84.096943,-94.290349,185.014216,3.872208,2.313765,1.948255,-3.800106,-1.974431,-1.755728,3.830651,-0.182010,0.415143,-0.067423,-17.477710,188.344921,1035.004170,124.487890,0
0.038541,-12.692715,-142.797241,176.981961,3.658281,1.040458,2.893594,-3.463246,-0.813791,-2.854874,3.542992,-0.171072,0.416039,-0.108307,-133.247062,188.269507,1035.928503,124.681045,0
0.039582,53.118050,-174.403063,129.201588,2.847611,-0.636491,3.686071,-2.535936,0.771208,-3.569320,2.645948,-0.123671,0.400812,-0.097156,-231.836210,188.344856,1036.945917,124.544536,0
0.040624,106.645797,-188.508820,51.771136,1.316347,-2.104280,3.951570,-1.362606,2.261905,-3.907519,1.483955,-0.138256,0.414385,-0.082290,-295.243095,188.420356,1038.121281,124.316656,0
0.041666,158.173456,-156.010377,-12.110202,0.100342,-3.164758,3.509071,0.052961,3.208552,-3.501680,0.083507,-0.098148,0.418519,-0.100873,-324.345864,188.344903,1039.733743,123.652565,0
0.042707,181.134904,-106.681335,-76.331787,-1.138181,-3.839941,2.547640,1.582076,3.894055,-2.567405,-1.475911,-0.047102,0.415901,-0.082290,-281.372839,188.269532,1040.863188,122.976820,0
0.043749,181.327003,-29.352188,-132.436055,-2.241592,-3.979381,1.280483,2.815966,3.937579,-1.332979,-2.717390,-0.054394,0.417141,-0.115740,-207.157963,188.344927,1042.687593,122.842048,0
0.044791,153.868185,38.169875,-167.359959,-2.928410,-3.458316,-0.155629,3.512394,3.527728,0.070546,-3.569014,-0.010640,0.428647,-0.086006,-108.557556,188.420488,1044.255059,121.794395,0
0.045832,85.074239,93.829477,-185.648225,-3.322485,-2.306101,-1.957809,4.099060,2.421493,1.829180,-4.083773,-0.014286,0.421826,-0.112023,17.918463,188.344892,1046.395657,121.109570,0
0.046874,14.201108,143.005835,-176.315742,-3.119818,-0.992430,-2.927285,3.694071,1.228210,2.936782,-3.788543,-0.025225,0.423342,-0.119457,134.093115,188.269433,1047.970352,120.243737,0
0.047915,-52.208554,175.656963,-128.268032,-2.196555,0.732222,-3.751943,2.755407,-0.389432,3.727322,-2.815800,-0.079917,0.418106,-0.097156,233.571671,188.344930,1051.175281,119.550787,0
0.048957,-106.289996,188.247613,-50.874035,-0.699068,2.262392,-3.953079,1.498807,-1.909145,4.052838,-1.597031,-0.061686,0.413696,-0.074856,294.614307,188.420383,1053.741907,119.005817,0
0.049999,-158.665150,156.031051,13.748555,0.528196,3.322870,-3.514602,0.003757,-2.863046,3.562450,-0.075463,-0.116379,0.411284,-0.074856,316.061416,188.344936,1057.341809,117.433800,0
0.051041,-180.643505,105.280862,77.083068,1.721681,3.943011,-2.432490,-1.491293,-3.570311,2.615493,1.480170,-0.160133,0.408115,-0.074856,279.685769,188.269451,1059.732535,116.635247,0
0.052082,-181.852597,27.129565,132.458236,2.768796,4.020070,-1.173378,-2.759248,-3.595700,1.233105,2.733003,-0.160133,0.399020,-0.108307,206.078842,188.344970,1063.095076,114.482282,0
0.053124,-153.105587,-40.181088,166.956832,3.556947,3.465979,0.335143,-3.440536,-3.149579,-0.161966,3.520282,-0.152841,0.386205,-0.071140,106.746644,188.420236,1064.984995,112.430856,0
0.054165,-82.096856,-93.691354,187.736191,3.894726,2.313765,2.157436,-3.977998,-1.894637,-2.005150,3.993406,-0.178364,0.354511,-0.052556,-18.693609,188.344952,1068.281216,109.598329,0
0.055207,-12.421516,-143.055631,176.070586,3.737096,0.952391,3.118867,-3.520020,-0.712235,-3.040884,3.641402,-0.141902,0.401225,-0.086006,-134.001369,188.269640,1070.746484,107.911549,0
0.056249,52.801653,-177.351061,127.889208,2.780056,-0.812626,3.963639,-2.604065,0.959812,-3.793376,2.672443,-0.174718,0.378144,-0.086006,-234.144167,188.344921,1074.496127,105.908328,0
0.057291,106.589297,-187.851100,51.029884,1.338865,-2.320779,4.076275,-1.290692,2.410612,-4.072391,1.404470,-0.160133,0.415625,-0.074856,-294.409979,188.420238,1076.857270,104.218100,0
0.058332,159.518147,-156.632863,-13.021577,0.089083,-3.406943,3.641821,0.185434,3.393529,-3.598912,-0.052753,-0.090856,0.417899,-0.100873,-328.781644,188.344910,1080.126876,102.563894,0
0.059374,180.581208,-105.976634,-76.744944,-1.126922,-3.968373,2.531549,1.733474,4.075405,-2.580088,-1.631096,-0.032517,0.418726,-0.104590,-279.807932,188.269536,1082.838918,101.026242,0
0.060416,182.637795,-28.565273,-132.861364,-2.185296,-4.085796,1.191983,3.012783,4.097167,-1.231520,-2.978554,-0.043455,0.420517,-0.059989,-207.855979,188.420323,1086.924934,98.584882,0
0.061457,153.551787,38.827595,-167.056168,-2.905891,-3.487672,-0.292402,3.712996,3.661927,0.231191,-3.792328,-0.036163,0.426580,-0.086006,-107.533048,188.420386,1090.774070,97.055614,0
0.062499,83.130652,93.077797,-188.588930,-3.356263,-2.309771,-2.183081,4.280737,2.443255,2.087057,-4.254098,-0.028871,0.421688,-0.093440,18.864162,188.420354,1094.841028,95.123748,0
0.063541,14.133308,143.334695,-175.428670,-3.176114,-0.952066,-3.116353,3.754630,1.144789,3.105881,-3.871813,-0.043455,0.426511,-0.078573,134.667289,188.269599,1097.047740,93.648761,0
0.064582,-51.643557,178.217375,-126.894893,-2.219074,0.875332,-3.997329,2.815966,-0.574409,3.909104,-2.876360,-0.058040,0.420999,-0.100873,235.294195,188.420314,1100.485390,92.000631,0
0.065624,-106.402995,187.625128,-50.120631,-0.755365,2.423849,-4.113988,1.392829,-2.115884,4.154298,-1.479696,-0.061686,0.414316,-0.115740,293.983841,188.495656,1102.437407,89.290206,0
0.066666,-160.032441,156.547831,14.489807,0.561974,3.539369,-3.627239,-0.132501,-3.109682,3.672365,0.015377,-0.120025,0.412800,-0.063706,317.277315,188.420365,1106.422777,87.871662,0
0.067707,-180.394906,104.505692,77.155978,1.721681,4.141162,-2.432490,-1.638906,-3.722645,2.573218,1.646709,-0.145548,0.420241,-0.059989,278.559936,188.269565,1108.538041,85.695949,0
0.068749,-183.140788,26.448354,132.798483,2.813834,4.229230,-1.088901,-3.005269,-3.769796,1.190830,3.001738,-0.167425,0.403912,-0.078573,206.619242,188.420263,1112.994949,83.866801,0
0.069790,-152.563190,-40.545183,167.102652,3.478132,3.579733,0.463870,-3.641138,-3.236627,-0.301473,3.743597,-0.200241,0.397918,-0.086006,105.744653,188.495689,1116.432966,82.244407,0
0.070832,-80.334068,-92.869203,190.482469,3.905986,2.291748,2.386731,-4.224019,-1.963550,-2.220751,4.258356,-0.192949,0.402603,-0.089723,-19.729375,188.420269,1121.576048,81.199331,0
0.071874,-12.466716,-143.642882,175.548064,3.669540,0.834967,3.320003,-3.603289,-0.628814,-3.269168,3.785232,-0.185656,0.388547,-0.082290,-134.733161,188.344854,1125.118706,79.628800,0
0.072915,52.157557,-180.158118,126.431007,2.757537,-0.970413,4.156729,-2.645700,1.148416,-4.059708,2.763283,-0.149195,0.379453,-0.078573,-236.215699,188.420298,1129.806425,78.020865,0
0.073957,106.464998,-187.757140,50.227874,1.338865,-2.504253,4.269366,-1.165789,2.657248,-4.245717,1.336340,-0.127317,0.419690,-0.115740,-294.173554,188.495653,1133.145656,75.597235,0
0.074999,161.156637,-157.337563,-14.030166,0.089083,-3.718848,3.798707,0.367111,3.683689,-3.738419,-0.234433,-0.094502,0.423549,-0.078573,-331.022050,188.420269,1138.032885,73.163031,0
0.076041,180.389109,-104.696428,-76.866460,-1.160699,-4.254591,2.511436,1.990849,4.274890,-2.571633,-1.914971,-0.079917,0.418519,-0.067423,-278.625808,188.344804,1141.431619,70.148489,0
0.077082,184.140685,-27.508222,-133.809194,-2.207814,-4.342659,1.123597,3.315578,4.322041,-1.176562,-3.288924,-0.032517,0.418795,-0.093440,-208.385120,188.420323,1146.942275,68.211920,0
0.078124,152.907691,39.320886,-167.432870,-2.962187,-3.612434,-0.497560,4.004436,3.694570,0.412973,-4.042138,-0.014286,0.442289,-0.067423,-106.227083,188.495703,1150.317886,65.700888,0
0.079166,80.294371,92.102961,-192.003550,-3.401300,-2.302432,-2.508922,4.572177,2.410612,2.404119,-4.545542,-0.039809,0.436984,-0.086006,20.181386,188.420254,1155.869346,62.869637,0
0.080207,14.212408,144.192081,-174.420081,-3.119818,-0.739236,-3.430125,3.924953,1.028725,3.418715,-4.015643,-0.017932,0.426994,-0.119457,135.703055,188.420287,1160.121434,60.480816,0
0.081249,-50.773463,181.999268,-125.448844,-2.128999,1.128525,-4.282942,2.880310,-0.821045,4.302260,-2.940704,-0.032517,0.420035,-0.074856,237.467052,188.420023,1166.482925,57.726025,0
0.082290,-106.120497,187.190563,-49.427986,-0.676550,2.772449,-4.278920,1.260356,-2.351639,4.399492,-1.354792,-0.098148,0.415281,-0.078573,293.758675,188.496141,1170.242092,54.897274,0
0.083332,-161.998628,157.945487,15.656368,0.539455,3.961358,-3.780102,-0.306608,-3.508652,3.849919,0.250046,-0.101794,0.413627,-0.056273,318.819705,188.496172,1176.899055,51.485666,0
0.084374,-179.942909,102.649980,77.119523,1.732941,4.409034,-2.388240,-1.979550,-3.998297,2.492896,1.972219,-0.145548,0.422102,-0.063706,276.803638,188.420689,1180.743727,47.348813,0
0.085416,-185.208675,25.461774,133.879982,2.858871,4.489762,-0.952128,-3.364838,-4.012805,1.076688,3.353742,-0.196595,0.417003,-0.112023,207.441100,188.496159,1186.890294,44.462146,0
0.086457,-151.094200,-41.003238,167.685932,3.545688,3.656792,0.701211,-3.981783,-3.338183,-0.572032,4.050181,-0.167425,0.416865,-0.041406,103.583055,188.495962,1191.589478,41.377256,0
0.087499,-76.774591,-91.718192,194.298094,4.086135,2.291748,2.700504,-4.492749,-1.992566,-2.546268,4.546016,-0.211179,0.440705,-0.089723,-21.350573,188.496098,1197.509933,39.205095,0
0.088541,-12.297217,-144.465032,173.992650,3.624503,0.688188,3.686071,-3.762256,-0.458345,-3.527045,3.891211,-0.196595,0.411698,-0.074856,-136.388134,188.495989,1200.642541,36.497175,0
0.089582,51.276163,-183.857796,124.705470,2.701241,-1.285988,4.518774,-2.679764,1.391425,-4.419044,2.782208,-0.130964,0.404601,-0.052556,-237.870672,188.496214,1206.236054,33.519851,0
0.090624,106.126000,-186.758814,49.425864,1.293828,-2.841844,4.414184,-1.052241,2.947408,-4.469774,1.166015,-0.109087,0.417899,-0.056273,-293.734479,188.496125,1209.813168,29.714611,0
0.091665,162.749926,-158.758710,-15.500518,0.032786,-4.137168,3.895252,0.650981,4.097167,-3.861016,-0.503168,-0.076271,0.419759,-0.056273,-331.292250,188.496098,1216.088100,25.514419,0
0.092707,179.948412,-102.570581,-76.550517,-1.126922,-4.518793,2.443050,2.312569,4.539661,-2.508221,-2.225340,-0.058040,0.415556,-0.052556,-276.768184,188.496058,1219.773644,21.727935,0
0.093749,186.208571,-26.768286,-134.307412,-2.286629,-4.599522,0.930506,3.667577,4.565050,-1.011690,-3.637143,-0.047102,0.420310,-0.082290,-209.274528,188.495978,1225.706863,18.129881,0
0.094790,151.144903,39.555786,-168.198425,-2.950928,-3.652798,-0.726856,4.326156,3.817888,0.615892,-4.299518,-0.017932,0.421964,-0.033973,-104.234359,188.496149,1229.904273,16.173823,0
0.095832,77.480689,91.034165,-195.357411,-3.480115,-2.276746,-2.782467,4.776564,2.436001,2.729635,-4.821847,0.011237,0.425616,-0.067423,21.374769,188.496101,1235.690696,13.825392,0
0.096874,14.133308,145.002486,-173.119852,-3.074780,-0.607135,-3.776079,4.019576,0.887272,3.685047,-4.079988,-0.017932,0.429612,-0.108307,137.245446,188.571549,1238.583108,11.144765,0
0.097915,-50.016368,184.794580,-124.014947,-2.140259,1.363371,-4.572578,2.853815,-1.064054,4.577047,-2.963414,-0.036163,0.422446,-0.093440,238.514076,188.571504,1243.104169,8.311005,0
0.098957,-106.018798,186.321432,-48.346487,-0.676550,2.999956,-4.447874,1.173303,-2.634545,4.492497,-1.279092,-0.068979,0.416039,-0.119457,293.488475,188.496029,1245.563205,5.461493,0
0.099999,-163.185120,158.838108,17.029507,0.550714,4.262255,-3.840443,-0.548844,-3.798812,3.938696,0.458221,-0.116379,0.413076,-0.093440,319.179972,188.571594,1250.037331,2.430060,0
0.101040,-180.044609,100.594603,76.536243,1.721681,4.625533,-2.315831,-2.286130,-4.197782,2.492896,2.240954,-0.149195,0.409700,-0.082290,275.463897,188.646915,1253.305183,-0.277683,0
0.102082,-186.858464,24.839288,134.208077,2.858871,4.665897,-0.819378,-3.641138,-4.255814,0.903361,3.686822,-0.167425,0.420517,-0.100873,207.790108,188.571533,1258.976145,-3.887460,0
0.103124,-149.602610,-40.827063,168.694521,3.579466,3.708165,0.938551,-4.224019,-3.428858,-0.758041,4.296206,-0.207533,0.432712,-0.100873,102.108215,188.496210,1262.836474,-5.968439,0
0.104165,-74.435507,-90.496711,197.141585,4.052357,2.240375,3.002208,-4.700921,-1.967177,-2.842192,4.750405,-0.214826,0.425960,-0.108307,-22.172431,188.571581,1267.242015,-8.725117,0
0.105207,-12.218118,-145.240203,173.020516,3.680800,0.497376,3.951570,-3.849310,-0.353162,-3.793376,3.993406,-0.196595,0.409424,-0.063706,-137.817941,188.646875,1270.657358,-10.834703,0
0.106249,50.699866,-186.171563,123.356634,2.735018,-1.480470,4.768183,-2.664624,1.587283,-4.685376,2.842768,-0.138256,0.425547,-0.086006,-238.816372,188.571542,1275.134641,-12.795120,0
0.107290,105.911302,-186.664854,48.222848,1.282569,-3.153750,4.603251,-0.908413,3.201298,-4.571234,1.063820,-0.101794,0.416659,-0.056273,-294.173554,188.496185,1277.576126,-15.674073,0
0.108332,163.529621,-159.580860,-16.825051,0.021527,-4.408709,3.955593,0.859153,4.419970,-3.966703,-0.718912,-0.098148,0.415832,-0.086006,-331.145892,188.646862,1282.458331,-18.918512,0
0.109374,180.479509,-100.104129,-76.100905,-1.138181,-4.819690,2.430981,2.615364,4.768162,-2.503993,-2.482720,-0.039809,0.421688,-0.067423,-275.732418,188.646935,1286.054768,-21.417934,0
0.110415,187.406363,-25.875666,-134.757024,-2.275370,-4.782996,0.874188,3.947662,4.771789,-0.927141,-3.966438,-0.036163,0.417899,-0.074856,-209.297045,188.571585,1291.407376,-23.979603,0
