1-Time,2-VGERA,3-VGERB,4-VGERC,5-VN,6-IGERAN,7-IGERBN,8-IGERCN,9-IGERAT,10-IGERBT,11-IGERCT,12-IN,13-IFD,14-IFAULT,15-VFAULT,16-Speed (rad/s),17-FAULT 
0.000000,119.404955,76.245477,-185.841288,-0.645912,-6.027357,0.506635,5.759949,5.995278,-0.570366,-5.641055,-0.011544,0.594153,-0.065566,5.193628,188.495278,0
0.001042,40.937536,129.848448,-189.645266,-0.713772,-4.667600,-1.897374,6.641485,4.712441,1.774410,-6.539482,0.006721,0.605192,-0.054364,-3.843061,188.570624,0
0.002083,-33.956995,172.095370,-161.761743,-0.204822,-2.775302,-4.000406,6.782531,2.837809,3.905659,-6.745055,-0.007891,0.608916,-0.028224,-11.386831,188.570747,0
0.003125,-95.773622,182.968183,-99.962500,0.960108,-0.148096,-5.459575,5.466103,0.246405,5.408411,-5.530655,-0.048074,0.604931,-0.039427,-15.243541,188.570770,0
0.004167,-141.971627,188.295862,-14.243750,2.566128,2.248342,-6.160586,3.769636,-2.201645,6.258493,-3.806131,-0.048074,0.596635,-0.020755,-19.145491,188.492068,0
0.005208,-168.694558,144.985821,58.979735,3.968568,4.307503,-5.714834,1.148535,-4.212280,5.831437,-1.320228,-0.091910,0.586836,-0.031958,-20.581861,188.646194,0
0.006250,-194.748282,62.050415,110.548864,4.975158,6.047139,-4.533784,-1.691971,-5.983992,4.695309,1.557785,-0.150358,0.587359,-0.046895,-20.333041,188.495276,0
0.007292,-165.700138,-8.151718,159.508144,5.913888,6.462522,-2.880313,-3.811575,-6.458163,3.059606,3.594474,-0.179582,0.598856,-0.031958,-9.690331,188.570687,0
0.008333,-119.683613,-75.611486,185.815910,6.411528,6.103944,-0.358198,-5.892001,-6.134697,0.589936,5.726336,-0.234377,0.598856,-0.050629,-0.845912,188.495436,0
0.009375,-41.091428,-129.697693,189.496781,6.513318,4.758388,1.981044,-6.738275,-4.848185,-1.754840,6.620957,-0.259948,0.607871,-0.024490,9.491428,188.646150,0
0.010417,33.859816,-172.089585,161.539394,5.981748,2.901593,4.129794,-6.918501,-2.980904,-3.938464,6.841757,-0.256295,0.612052,-0.054364,15.632758,188.495361,0
0.011458,95.687786,-182.503325,100.466478,4.794198,0.206932,5.600392,-5.637335,-0.374797,-5.453302,5.619743,-0.234377,0.604082,-0.013287,20.529988,188.570631,0
0.012500,141.590885,-188.060541,14.390720,3.188178,-2.164654,6.343311,-3.858591,2.121037,-6.283240,3.891412,-0.219765,0.598464,-0.020755,24.352768,188.495383,0
0.013542,168.189049,-144.375992,-58.918940,1.797048,-4.174112,5.840412,-1.233572,4.120645,-5.827983,1.405509,-0.157664,0.588992,-0.058098,25.325428,188.721491,0
0.014583,194.367540,-61.307696,-110.475758,0.824388,-5.935050,4.735559,1.556001,5.899708,-4.736171,-1.453470,-0.095563,0.587032,-0.035692,26.105818,188.495376,0
0.015625,165.285369,8.761548,-159.558144,-0.114342,-6.353983,3.024940,3.722621,6.344474,-3.084353,-3.513000,-0.080951,0.596962,-0.043161,13.936258,188.502605,0
0.016667,119.166762,76.330044,-185.668940,-0.623292,-6.016706,0.502826,5.803046,6.050414,-0.606625,-5.663896,-0.029809,0.600097,-0.046895,5.804368,188.496118,0
0.017708,40.359069,129.981338,-189.571402,-0.702462,-4.664050,-1.859276,6.696336,4.708765,1.750238,-6.592779,-0.007891,0.605846,-0.046895,-4.329391,188.721654,0
0.018750,-34.569490,171.938318,-161.724811,-0.238752,-2.789503,-4.000406,6.806038,2.826781,3.945947,-6.790738,0.006721,0.608067,-0.031958,-11.748751,188.495347,0
0.019792,-96.091212,183.318530,-99.408523,0.994038,-0.112594,-5.497673,5.528790,0.213323,5.412440,-5.530655,-0.004238,0.602188,-0.046895,-15.186991,188.570665,0
0.020833,-141.778804,188.271700,-13.517424,2.600058,2.241241,-6.187255,3.765718,-2.234727,6.238349,-3.813745,-0.040768,0.593565,-0.058098,-19.428241,188.495206,0
0.021875,-168.876038,144.055592,59.312121,4.002498,4.321704,-5.726264,1.121109,-4.249038,5.803236,-1.293580,-0.139399,0.586836,-0.043161,-20.909851,188.721210,0
0.022917,-194.680227,60.890648,110.462690,4.963848,6.025838,-4.564262,-1.680217,-6.002370,4.671136,1.561592,-0.143052,0.586314,-0.013287,-20.627101,188.495334,0
0.023958,-165.030930,-9.287323,159.569697,5.936508,6.473173,-2.826975,-3.882098,-6.436109,3.071692,3.655385,-0.168623,0.581937,-0.028224,-9.170071,188.570687,0
0.025000,-119.116488,-76.457149,185.606629,6.411528,6.114595,-0.339149,-5.911590,-6.123670,0.553676,5.714915,-0.234377,0.591474,-0.013287,-0.461372,188.495300,0
0.026042,-39.582875,-129.963473,189.546023,6.524628,4.754838,2.007713,-6.781373,-4.807752,-1.787071,6.601922,-0.267254,0.602906,-0.024490,8.597938,188.721407,0
0.027084,35.436423,-171.533864,161.625569,6.015678,2.858989,4.148843,-6.922419,-2.955174,-3.950550,6.803688,-0.278213,0.604801,-0.035692,14.920228,188.495208,0
0.028127,96.062088,-183.228179,99.075379,4.816818,0.210482,5.627061,-5.586402,-0.323337,-5.433158,5.615936,-0.252642,0.600554,-0.035692,20.292478,188.570655,0
0.029167,141.330008,-188.012217,13.381250,3.142938,-2.185956,6.289974,-3.862509,2.106334,-6.255038,3.883798,-0.223418,0.590364,-0.054364,23.809888,188.495387,0
0.030209,168.234419,-143.675299,-59.509849,1.797048,-4.227366,5.828983,-1.245326,4.120645,-5.799781,1.375054,-0.154011,0.582721,-0.043161,25.585558,188.721521,0
0.031250,194.242773,-59.785502,-110.463447,0.835698,-5.892446,4.720319,1.536411,5.921763,-4.752286,-1.472504,-0.095563,0.566063,-0.050629,26.343328,188.495273,0
0.032292,165.058519,10.368308,-159.422728,-0.114342,-6.339782,3.005891,3.699113,6.359177,-3.104497,-3.532035,-0.048074,0.589580,-0.020755,13.585648,188.570767,0
0.033333,118.259362,77.103222,-185.607387,-0.611982,-6.016706,0.510445,5.716851,6.006305,-0.586481,-5.622021,-0.015197,0.582851,-0.013287,5.125768,188.495369,0
0.034375,39.258846,129.945096,-189.534470,-0.725082,-4.671151,-1.844036,6.637567,4.649953,1.742180,-6.509027,0.003068,0.599640,-0.039427,-3.933541,188.721675,0
0.035417,-35.442862,171.962480,-161.466288,-0.204822,-2.785953,-3.969927,6.802120,2.834133,3.893573,-6.733634,0.010374,0.612378,-0.020755,-11.420761,188.570645,0
0.036458,-96.238665,183.028588,-99.322349,0.971418,-0.133895,-5.432906,5.489611,0.264784,5.384238,-5.481165,-0.015197,0.598399,-0.017021,-15.209611,188.570635,0
0.037500,-141.744777,188.235457,-13.197349,2.611368,2.241241,-6.137727,3.718703,-2.197969,6.165830,-3.790904,-0.033462,0.588077,-0.054364,-19.100251,188.495327,0
0.038542,-168.365626,144.285129,59.693750,3.979878,4.254249,-5.653877,1.168125,-4.179198,5.775034,-1.350683,-0.124787,0.583047,-0.046895,-20.570551,188.721496,0
0.039583,-194.612172,60.407412,110.770455,4.986468,5.993885,-4.549023,-1.660627,-5.906801,4.679193,1.534944,-0.154011,0.563646,0.001650,-20.287801,188.570691,0
0.040625,-165.382548,-9.541022,159.249622,5.902578,6.427019,-2.819355,-3.858591,-6.395676,3.007231,3.586861,-0.190541,0.576711,-0.035692,-9.531991,188.570808,0
0.041667,-119.014406,-76.324259,185.680493,6.388908,6.086192,-0.373438,-5.876329,-6.116319,0.549648,5.714915,-0.223418,0.588143,-0.002084,-0.597092,188.570749,0
0.042709,-40.342822,-129.770179,189.459849,6.456768,4.683832,1.977234,-6.738275,-4.826130,-1.746783,6.567660,-0.256295,0.600358,-0.017021,9.661078,188.721509,0
0.043750,34.597078,-171.944615,161.416288,5.959128,2.894492,4.068836,-6.902829,-2.980904,-3.934435,6.818915,-0.259948,0.602514,-0.035692,15.689308,188.570655,0
0.044792,95.960006,-182.624134,100.195644,4.760268,0.214032,5.608012,-5.617745,-0.360094,-5.449273,5.604515,-0.241683,0.598137,-0.031958,20.507368,188.570667,0
0.045833,141.590885,-188.133026,14.132197,3.176868,-2.178855,6.282354,-3.799822,2.106334,-6.194606,3.872378,-0.216112,0.594936,-0.043161,24.296218,188.570772,0
0.046875,168.291132,-144.218940,-59.239015,1.797048,-4.181212,5.809934,-1.221818,4.142700,-5.823954,1.409316,-0.143052,0.585138,-0.046895,25.359358,188.721454,0
0.047917,194.344855,-61.102320,-110.697349,0.801768,-5.906648,4.708890,1.575590,5.907060,-4.728113,-1.468697,-0.102869,0.584811,-0.073035,26.128438,188.570689,0
0.048958,165.205972,8.882357,-159.730493,-0.170892,-6.364633,3.013511,3.714785,6.373880,-3.076295,-3.570104,-0.062686,0.595394,-0.035692,13.868398,188.570642,0
0.050001,119.427640,76.535419,-185.619698,-0.668532,-5.991854,0.495206,5.791292,6.035711,-0.590510,-5.675317,-0.007891,0.596439,-0.065566,5.679958,188.570680,0
0.051042,40.688001,130.210876,-189.349811,-0.759012,-4.646299,-1.851656,6.649321,4.745523,1.746209,-6.550903,-0.018850,0.602318,-0.054364,-4.453801,188.721646,0
0.052084,-34.490092,171.889994,-161.614016,-0.227442,-2.764651,-4.011836,6.809956,2.819430,3.925803,-6.764089,0.010374,0.612835,-0.043161,-11.839231,188.572802,0
0.053125,-96.091212,183.318530,-99.580872,0.948798,-0.112594,-5.512913,5.513119,0.239053,5.424526,-5.511621,-0.011544,0.601012,-0.058098,-15.220921,188.495758,0
0.054167,-142.051024,187.981758,-13.849811,2.588748,2.301596,-6.191064,3.710867,-2.256781,6.214176,-3.794711,-0.051727,0.599444,-0.054364,-19.405621,188.646467,0
0.055208,-169.363766,144.128077,59.041288,3.979878,4.311053,-5.695785,1.089766,-4.226983,5.766976,-1.305001,-0.099216,0.586444,-0.035692,-20.932471,188.721853,0
0.056250,-194.702912,61.434289,110.758144,4.963848,6.054240,-4.529974,-1.742904,-6.017073,4.711424,1.561592,-0.143052,0.586510,-0.017021,-20.638411,188.571125,0
0.057292,-165.110328,-8.465822,159.963637,5.925198,6.455421,-2.807926,-3.901688,-6.450812,2.987087,3.655385,-0.194194,0.595198,-0.028224,-9.181381,188.571129,0
0.058333,-119.683613,-76.227612,185.582008,6.411528,6.118145,-0.320100,-5.892001,-6.134697,0.541590,5.772019,-0.259948,0.602775,-0.028224,-0.517922,188.646482,0
0.059375,-40.501617,-130.217172,189.275190,6.468078,4.726436,2.034382,-6.781373,-4.826130,-1.799157,6.639991,-0.267254,0.607936,-0.046895,8.473528,188.720378,0
0.060417,34.789901,-171.582187,161.724054,5.993058,2.883841,4.133604,-6.891075,-2.977228,-3.966665,6.811301,-0.259948,0.613946,-0.043161,14.988088,188.570779,0
0.061458,95.891951,-183.312745,99.469318,4.782888,0.203381,5.646110,-5.621663,-0.341715,-5.465388,5.593095,-0.212459,0.603821,-0.043161,20.394268,188.571514,0
0.062500,141.579543,-187.867246,13.836742,3.188178,-2.210808,6.301403,-3.827247,2.117362,-6.255038,3.860957,-0.216112,0.597353,-0.024490,23.775958,188.646828,0
0.063543,168.880942,-143.433681,-59.374432,1.819668,-4.234467,5.851842,-1.198310,4.150051,-5.864242,1.359826,-0.172276,0.590625,-0.073035,25.721278,188.722219,0
0.064583,194.322170,-60.558680,-110.623485,0.813078,-5.906648,4.666981,1.583426,5.907060,-4.711998,-1.533414,-0.091910,0.584288,-0.035692,26.365948,188.571533,0
0.065625,164.899724,9.450159,-159.828978,-0.148272,-6.368184,2.998271,3.738292,6.359177,-3.088382,-3.570104,-0.029809,0.593695,-0.031958,13.630888,188.571420,0
0.066667,118.701719,76.849523,-185.742804,-0.657222,-5.995405,0.460917,5.759949,5.984251,-0.558279,-5.648669,-0.040768,0.597615,-0.024490,5.216248,188.646844,0
0.067708,39.667176,130.295442,-189.374432,-0.747702,-4.632098,-1.866895,6.676746,4.686711,1.762324,-6.535676,0.021333,0.600881,-0.050629,-3.809131,188.720076,0
0.068750,-35.522260,171.865833,-161.675569,-0.216132,-2.761101,-3.962308,6.782531,2.804727,3.929832,-6.745055,0.028639,0.602645,-0.039427,-11.522551,188.567892,0
0.069792,-96.295377,183.354772,-98.953031,1.016658,-0.094842,-5.486244,5.493529,0.202296,5.436613,-5.496393,-0.000585,0.598856,-0.046895,-15.311401,188.571397,0
0.070833,-142.062367,188.066325,-13.000379,2.611368,2.248342,-6.164396,3.706949,-2.238402,6.198061,-3.787097,-0.037115,0.591801,-0.028224,-19.055011,188.722152,0
0.071875,-168.796641,143.717326,59.878409,4.025118,4.293302,-5.691975,1.113274,-4.204929,5.791149,-1.320228,-0.106522,0.583766,-0.017021,-20.638411,188.722168,0
0.072917,-194.714254,59.948338,110.881250,4.975158,6.043589,-4.560453,-1.680217,-5.972964,4.675165,1.546364,-0.143052,0.582394,-0.028224,-20.219941,188.571259,0
0.073958,-165.076300,-9.927611,159.618940,5.891268,6.462522,-2.781257,-3.889934,-6.384648,3.015289,3.666805,-0.216112,0.581610,-0.039427,-9.486751,188.495930,0
0.075000,-118.243116,-77.012871,185.729735,6.434148,6.057790,-0.331529,-5.907672,-6.083237,0.477129,5.737757,-0.256295,0.588012,-0.069301,-0.506612,188.722143,0
0.076042,-38.902325,-130.132606,189.398296,6.547248,4.687383,2.003903,-6.785291,-4.804076,-1.787071,6.643798,-0.256295,0.604474,-0.046895,9.581908,188.722192,0
0.077083,36.151001,-171.727158,161.477841,5.993058,2.848339,4.164082,-6.871485,-2.855928,-3.970694,6.807494,-0.252642,0.577756,-0.046895,15.791098,188.571364,0
0.078125,96.413706,-183.216098,98.804546,4.805508,0.189180,5.615632,-5.602073,-0.290255,-5.453302,5.535991,-0.219765,0.598464,-0.046895,20.507368,188.489316,0
0.079167,141.500145,-187.915570,13.036553,3.165558,-2.217909,6.339501,-3.831165,2.150443,-6.263096,3.807661,-0.227071,0.590690,-0.039427,24.262288,188.722290,0
0.080208,168.517982,-143.022930,-59.768371,1.763118,-4.216715,5.802314,-1.210064,4.179457,-5.803810,1.344599,-0.124787,0.581284,-0.035692,25.472458,188.722219,0
0.081250,194.469623,-59.084809,-110.697349,0.813078,-5.938600,4.693650,1.587344,5.962196,-4.707969,-1.514380,-0.095563,0.578409,-0.031958,26.184988,188.571480,0
0.082292,164.559449,10.754897,-159.828978,-0.125652,-6.346882,2.918265,3.789226,6.362853,-3.068237,-3.592945,-0.022503,0.596896,-0.046895,13.743988,188.496177,0
0.083333,118.111909,77.598539,-185.705872,-0.645912,-6.016706,0.403770,5.826554,6.043063,-0.522020,-5.694352,-0.033462,0.559596,-0.058098,5.453758,188.722275,0
0.084375,38.782461,130.512898,-189.509849,-0.713772,-4.617897,-1.893564,6.708090,4.657305,1.790526,-6.573745,-0.007891,0.608328,-0.050629,-4.510351,188.797675,0
0.085417,-36.270865,171.491325,-161.823296,-0.238752,-2.704297,-4.027075,6.747269,2.815754,3.954005,-6.748862,0.010374,0.575078,-0.054364,-11.895781,188.571511,0
0.086458,-96.340747,183.958817,-98.152841,1.005348,-0.030937,-5.528152,5.430842,0.161863,5.456757,-5.439290,-0.018850,0.594740,-0.035692,-15.107821,188.496145,0
0.087500,-142.028339,187.969678,-12.828030,2.600058,2.340649,-6.156776,3.671687,-2.264133,6.218205,-3.707152,-0.044421,0.587163,-0.035692,-19.337761,188.722324,0
0.088542,-169.635986,142.968310,59.558334,4.002498,4.371408,-5.672926,1.030997,-4.300498,5.754890,-1.206021,-0.088257,0.582329,-0.039427,-21.045571,188.646759,0
0.089583,-194.861707,60.008742,110.721212,4.929918,6.015187,-4.518544,-1.766411,-5.972964,4.667107,1.641537,-0.175929,0.556068,-0.017021,-20.672341,188.571565,0
0.090625,-164.747368,-9.710155,160.222160,5.925198,6.444770,-2.769828,-3.933031,-6.476542,3.011260,3.704874,-0.190541,0.592389,-0.031958,-9.023041,188.496013,0
0.091667,-119.343338,-76.807496,185.643561,6.388908,6.061340,-0.255333,-5.942934,-6.119994,0.485186,5.798667,-0.219765,0.587751,-0.058098,-0.235172,188.722322,0
0.092708,-39.798382,-130.434628,189.213637,6.434148,4.683832,2.068670,-6.828388,-4.752615,-1.855561,6.651412,-0.248989,0.602122,-0.046895,8.484838,188.701940,0
0.093750,35.515821,-171.256003,161.834849,5.959128,2.823487,4.167892,-6.910665,-2.929443,-4.023069,6.822722,-0.285519,0.608459,-0.039427,15.067258,188.530384,0
0.094792,95.880608,-183.735577,98.767614,4.771578,0.150127,5.676589,-5.602073,-0.260849,-5.505677,5.547412,-0.245336,0.601142,-0.065566,20.349028,188.626032,0
0.095833,141.817735,-187.613547,13.578220,3.154248,-2.246311,6.328072,-3.768478,2.172498,-6.271153,3.819081,-0.223418,0.593761,-0.035692,23.730718,188.704924,0
0.096875,169.255244,-143.083335,-59.066667,1.785738,-4.262869,5.798504,-1.108198,4.179457,-5.832011,1.302723,-0.179582,0.584746,-0.039427,25.845688,188.711244,0
0.097917,194.367540,-60.208333,-110.758902,0.790458,-5.970553,4.644122,1.626524,5.958520,-4.736171,-1.563870,-0.102869,0.586248,-0.054364,26.343328,188.571087,0
0.098958,164.638846,9.293107,-160.296781,-0.125652,-6.350432,2.952553,3.820569,6.370204,-3.068237,-3.615786,-0.091910,0.598464,-0.046895,13.596958,188.495627,0
0.100000,118.973939,76.922008,-185.705872,-0.645912,-5.988304,0.449488,5.791292,6.054090,-0.517991,-5.690545,-0.026156,0.596635,-0.046895,5.159698,188.721905,0
0.101042,40.120876,130.476655,-189.239016,-0.736392,-4.628547,-1.943092,6.696336,4.675684,1.778439,-6.569938,-0.007891,0.607609,-0.061832,-3.763891,188.721835,0
0.102083,-35.238697,171.587972,-161.749432,-0.159582,-2.743350,-4.053744,6.739433,2.764294,3.994293,-6.703179,-0.015197,0.613946,-0.080503,-11.567791,188.571223,0
0.103125,-96.454172,183.668876,-98.743750,0.971418,-0.048689,-5.509103,5.466103,0.172890,5.472872,-5.492586,-0.066339,0.598268,-0.058098,-15.379261,188.495770,0
0.104167,-142.289217,187.836788,-13.283523,2.600058,2.290945,-6.164396,3.644262,-2.267808,6.238349,-3.737607,-0.026156,0.597484,-0.061832,-19.032391,188.721947,0
0.105208,-169.477191,143.439465,59.472159,4.002498,4.364307,-5.707215,1.019243,-4.274768,5.758919,-1.255511,-0.077298,0.591213,-0.024490,-20.774131,188.721726,0
0.106250,-194.839022,60.516140,110.844319,4.975158,6.068441,-4.533784,-1.723314,-6.031776,4.630848,1.599661,-0.150358,0.584680,-0.039427,-20.276491,188.571058,0
0.107292,-164.781395,-9.251080,160.148296,5.936508,6.490924,-2.785067,-3.936949,-6.480218,2.999173,3.643964,-0.208806,0.596962,-0.039427,-9.531991,188.571006,0
0.108333,-118.844268,-76.710848,185.815910,6.422838,6.082642,-0.285811,-5.935098,-6.134697,0.489215,5.749177,-0.234377,0.598268,-0.046895,-0.608402,188.725252,0
0.109375,-39.616902,-130.470871,189.090531,6.468078,4.708684,2.034382,-6.832306,-4.789373,-1.835417,6.670446,-0.278213,0.605192,-0.031958,9.378328,188.646552,0
0.110417,35.742671,-171.521783,161.576326,5.981748,2.837688,4.202181,-6.867567,-2.933119,-4.010982,6.853177,-0.263601,0.610876,-0.050629,15.904198,188.571087,0
0.111458,96.277596,-183.433554,98.632197,4.794198,0.125275,5.649920,-5.594237,-0.268200,-5.505677,5.577867,-0.248989,0.601142,-0.028224,20.620468,188.571098,0
0.112500,141.919818,-187.601466,13.011932,3.142938,-2.228559,6.339501,-3.807657,2.176174,-6.246980,3.822888,-0.212459,0.594610,-0.046895,24.239668,188.721846,0
0.113542,169.130477,-142.805474,-59.472917,1.797048,-4.266419,5.825173,-1.151295,4.227242,-5.848127,1.287495,-0.157664,0.587816,-0.054364,25.540318,188.646447,0
0.114583,194.673788,-59.543884,-110.660417,0.790458,-5.995405,4.678411,1.622606,5.951169,-4.728113,-1.582904,-0.113828,0.584288,-0.069301,26.218918,188.571093,0
0.115625,164.241859,10.319984,-160.346023,-0.125652,-6.417888,2.910645,3.879338,6.370204,-2.999747,-3.634821,-0.062686,0.593957,-0.031958,13.743988,188.646565,0
0.116667,118.168622,77.791833,-185.742804,-0.645912,-6.048659,0.369481,5.842225,6.006305,-0.517991,-5.740034,-0.022503,0.601208,-0.024490,5.532928,188.721967,0
0.117708,38.589638,130.827002,-189.325190,-0.736392,-4.610796,-1.973571,6.727680,4.679359,1.834843,-6.638462,0.006721,0.588665,-0.039427,-4.363321,188.571089,0
0.118750,-36.701880,171.261787,-161.934091,-0.238752,-2.697196,-4.065173,6.766859,2.709157,4.066812,-6.748862,0.021333,0.607348,-0.043161,-11.918401,188.571080,0
0.119792,-96.488200,184.490377,-97.352652,1.061898,0.015216,-5.600539,5.462185,0.069969,5.517189,-5.462131,-0.044421,0.599444,-0.013287,-15.186991,188.646487,0
0.120850,-142.765602,186.628697,-10.698295,2.656608,2.440057,-6.248212,3.620754,-2.425866,6.298781,-3.657662,-0.044421,0.590756,-0.028224,-19.224661,188.721958,0
0.121883,-170.724866,140.854152,60.346212,4.047738,4.495668,-5.688165,0.940884,-4.381365,5.783092,-1.095621,-0.102869,0.583635,-0.039427,-21.237841,188.571060,0
0.122917,-194.975132,58.836895,110.635038,5.031708,6.118145,-4.503305,-1.813427,-6.075885,4.614732,1.694833,-0.139399,0.581741,-0.046895,-20.706271,188.568591,0
0.123958,-164.157558,-10.966569,160.492993,5.947818,6.540628,-2.754588,-4.050570,-6.498597,2.934712,3.792433,-0.212459,0.598399,-0.043161,-8.989111,188.646473,0
0.125000,-118.061636,-77.882696,185.606629,6.434148,6.111044,-0.179136,-5.993867,-6.075885,0.420725,5.829122,-0.241683,0.580826,-0.013287,-0.088142,188.721898,0
0.126042,-37.926870,-130.784975,189.275190,6.547248,4.698033,2.160106,-6.863650,-4.730561,-1.924051,6.678060,-0.292825,0.565932,-0.065566,8.473528,188.571351,0
0.127083,37.194511,-170.821091,161.859470,6.004368,2.787984,4.232660,-6.887157,-2.877983,-4.039184,6.815108,-0.256295,0.611333,-0.031958,15.191668,188.571089,0
