1-Time,2-VGERA,3-VGERB,4-VGERC,5-VN,6-IGERAN,7-IGERBN,8-IGERCN,9-IGERAT,10-IGERBT,11-IGERCT,12-IN,13-IFD,14-IFAULT,15-VFAULT,16-Speed (rad/s),17-Active Power,18-Reactive Power,19-FAULT 
0.000000,100.453438,97.493920,-184.433058,-3.243670,-5.696694,-0.775128,6.339743,5.497189,0.641257,-6.199585,0.003945,0.622876,-0.063706,5.342914,188.194094,1705.212536,828.294618,0
0.001042,17.805784,145.096446,-188.710447,-3.345004,-4.078457,-3.088194,6.824215,3.952087,3.042469,-6.843034,0.069576,0.618260,-0.082290,131.481184,188.194013,1705.699153,828.375433,0
0.002084,-54.073041,172.203930,-146.519843,-2.534334,-1.652935,-5.047260,6.086152,1.645315,4.898336,-6.161735,0.011237,0.639343,-0.074856,230.903448,188.194036,1705.522370,829.149189,0
0.003125,-108.527381,197.937247,-63.220133,-0.969291,1.216593,-6.487394,4.708435,-1.125713,6.470960,-4.772642,-0.006994,0.637965,-0.093440,307.572639,188.194116,1706.020642,828.835244,0
0.004167,-158.371352,166.765990,6.238822,0.325528,3.392590,-6.531644,2.634289,-3.171341,6.614695,-2.724960,-0.032517,0.629077,-0.097156,318.223014,188.194081,1704.829341,829.137179,0
0.005208,-188.474353,119.950380,74.567672,1.699163,5.528223,-5.755259,-0.068157,-5.187953,5.841065,0.079722,-0.105440,0.617020,-0.063706,318.166722,188.194128,1703.924584,829.545033,0
0.006250,-188.677752,36.560808,130.404604,2.746278,6.474947,-4.166283,-2.380754,-6.181751,4.378355,2.380998,-0.145548,0.603102,-0.097156,219.656382,188.194081,1702.730012,831.022701,0
0.007292,-162.156827,-34.332073,172.813938,3.658281,6.794191,-2.042286,-4.504104,-6.424760,2.268839,4.667135,-0.185656,0.575887,-0.097156,122.744724,188.269499,1700.940607,831.323980,0
0.008333,-101.284129,-97.449757,183.653229,3.872208,5.719036,0.729370,-6.055929,-5.499875,-0.436752,6.158423,-0.214826,0.602344,-0.082290,-4.080303,188.193939,1698.281752,832.384302,0
0.009375,-17.630782,-144.793893,189.072875,3.996060,4.221891,3.058526,-6.582035,-3.987416,-2.871784,6.832152,-0.243995,0.622050,-0.093440,-130.646389,188.118723,1696.676131,833.379362,0
0.010417,54.451442,-171.302380,147.623523,3.174131,1.781691,4.953228,-5.923456,-1.774946,-4.757243,6.158423,-0.229410,0.636863,-0.093440,-229.179246,188.194094,1694.480262,834.358705,0
0.011458,108.442485,-197.857848,64.190145,1.575311,-1.087836,6.489908,-4.545738,0.974320,-6.308731,4.841245,-0.171072,0.631902,-0.093440,-311.522632,188.194164,1692.703654,835.861345,0
0.012500,157.823159,-167.532232,-5.074384,0.145379,-3.219800,6.590476,-2.524582,3.023575,-6.515878,2.850338,-0.167425,0.631833,-0.052556,-331.855166,188.194139,1691.927868,837.268846,0
0.013542,188.536356,-120.505212,-73.694874,-1.194477,-5.410475,5.826159,0.189219,5.105473,-5.788750,0.064582,-0.098148,0.616400,-0.078573,-303.641805,188.194154,1689.654081,838.244145,0
0.014583,188.965753,-37.832086,-129.762687,-2.275370,-6.408572,4.293502,2.486676,6.128287,-4.321812,-2.289685,-0.043455,0.620534,-0.078573,-220.510336,188.194372,1688.112513,839.308807,0
0.015625,162.004131,32.990325,-172.852515,-3.097299,-6.691121,2.177550,4.655446,6.440209,-2.241889,-4.519047,0.033114,0.605789,-0.067423,-123.272186,188.194029,1686.326012,839.393633,0
0.016667,102.385725,96.812710,-183.302953,-3.311226,-5.689355,-0.614219,6.173206,5.522578,0.442565,-6.055755,0.029468,0.602758,-0.086006,3.575357,188.118678,1683.776999,840.823678,0
0.017708,17.918783,144.356511,-189.074997,-3.333744,-4.173863,-2.943376,6.801505,4.002865,2.864915,-6.755979,0.069576,0.612610,-0.045123,130.929526,188.194159,1681.264067,841.983419,0
0.018750,-54.366839,170.923724,-147.892981,-2.556853,-1.729994,-4.850146,6.089937,1.721482,4.767283,-6.165520,0.033114,0.640170,-0.063706,229.237216,188.194065,1679.681167,842.841329,0
0.019792,-108.064084,197.385231,-64.508210,-0.969291,1.069814,-6.374758,4.761424,-0.977006,6.356818,-4.848342,0.025822,0.635003,-0.071140,306.818331,188.194081,1677.782200,844.285903,0
0.020833,-157.309159,167.764316,4.598347,0.348047,3.223794,-6.479349,2.751622,-3.077039,6.513235,-2.853650,-0.025225,0.634452,-0.093440,318.268047,188.193986,1676.261925,844.775101,0
0.021875,-188.169255,121.453741,72.975803,1.654126,5.414469,-5.791463,0.011327,-5.082770,5.841065,-0.056538,-0.101794,0.621843,-0.097156,318.369372,188.194065,1674.873650,845.462920,0
0.022917,-189.276648,39.203435,129.651200,2.735018,6.408897,-4.238692,-2.233141,-6.123719,4.399492,2.290159,-0.134610,0.615297,-0.104590,222.324605,188.194132,1674.336058,845.272580,0
0.023958,-162.405425,-31.395820,173.093426,3.613244,6.753827,-2.118718,-4.382986,-6.428387,2.349161,4.508166,-0.174718,0.622807,-0.071140,125.412947,188.194076,1673.060852,845.920557,0
0.025000,-103.668413,-96.240021,183.179314,3.849689,5.719036,0.648915,-5.923456,-5.488994,-0.381795,6.041088,-0.203887,0.599657,-0.071140,-1.648505,188.194110,1671.881964,845.331425,0
0.026042,-18.873774,-143.983487,189.303756,3.984801,4.214552,2.990140,-6.491196,-4.056329,-2.732277,6.688323,-0.233057,0.638999,-0.082290,-129.723206,188.194056,1669.350398,845.809352,0
0.027083,54.530541,-170.304055,148.960206,3.185390,1.833064,4.872774,-5.855327,-1.832978,-4.676921,6.143283,-0.243995,0.622876,-0.067423,-228.120963,188.194119,1668.342057,846.159647,0
0.028125,108.035688,-197.470263,65.308098,1.597829,-0.985091,6.441636,-4.591158,0.887272,-6.270683,4.898020,-0.207533,0.631627,-0.086006,-310.610708,188.194101,1667.710927,847.032321,0
0.029167,156.670566,-168.612773,-4.187312,0.246713,-3.095038,6.550249,-2.622990,2.893003,-6.465148,2.941178,-0.156487,0.633418,-0.078573,-331.765100,188.194031,1666.226597,847.865323,0
0.030208,188.016559,-122.020318,-72.103005,-1.104403,-5.256358,5.846273,0.045391,4.967647,-5.801432,0.181916,-0.112733,0.618742,-0.056273,-306.546453,188.194184,1664.574974,848.479041,0
0.031250,189.553349,-40.462968,-128.827009,-2.230333,-6.316835,4.394070,2.312569,6.048493,-4.406362,-2.130716,-0.072625,0.629215,-0.074856,-223.606375,188.194143,1663.379125,849.479424,0
0.032292,161.800732,29.443332,-173.375037,-3.041003,-6.680113,2.362595,4.496478,6.382177,-2.419443,-4.348723,0.003945,0.634107,-0.082290,-126.413259,188.194201,1661.219689,850.754556,0
0.033333,105.832202,95.391564,-182.586004,-3.198633,-5.718711,-0.413083,6.033163,5.537086,0.269238,-5.934635,0.044053,0.639206,-0.052556,-0.590223,188.269545,1659.736473,851.318528,0
0.034375,20.257868,143.604830,-189.050693,-3.356263,-4.199549,-2.794535,6.691742,4.042762,2.687360,-6.653784,0.062284,0.621016,-0.067423,129.308327,188.194101,1657.446680,851.603144,0
0.035417,-53.993942,169.255932,-150.141041,-2.635668,-1.917137,-4.681192,6.108862,1.920967,4.610866,-6.165520,0.058637,0.635830,-0.074856,227.221976,188.194146,1655.505745,853.486548,0
0.036458,-107.849386,196.316435,-65.869197,-1.014329,0.934043,-6.262122,4.837123,-0.810164,6.183491,-4.867267,-0.003348,0.630386,-0.082290,306.334223,188.194110,1652.378541,854.428457,0
0.037500,-155.433371,169.537812,4.452527,0.381825,3.021973,-6.423031,2.986288,-2.805014,6.483643,-3.058039,-0.036163,0.628802,-0.048839,318.223014,188.269559,1649.701530,857.663278,0
0.038542,-187.321761,122.181932,71.651271,1.687904,5.212648,-5.771350,0.283842,-4.872404,5.862202,-0.272283,-0.098148,0.618536,-0.082290,318.369372,188.194137,1646.434327,859.766962,0
0.039583,-190.180642,41.200087,128.241606,2.723759,6.306151,-4.411669,-1.930346,-6.022163,4.500952,2.013854,-0.127317,0.623772,-0.048839,225.510711,188.194224,1643.955085,861.969620,0
0.040625,-161.388432,-27.790102,173.980498,3.613244,6.709793,-2.380195,-4.178599,-6.402998,2.568991,4.277281,-0.163779,0.639275,-0.100873,128.542761,188.194163,1641.196844,864.402713,0
0.041667,-107.679887,-94.490014,182.158573,3.815911,5.818111,0.363302,-5.726639,-5.615939,-0.090098,5.840484,-0.203887,0.642168,-0.086006,3.935624,188.194089,1638.880773,867.082358,0
0.042708,-21.879554,-143.231806,188.890600,3.973542,4.342983,2.752799,-6.415498,-4.161512,-2.499766,6.586128,-0.192949,0.629077,-0.059989,-127.336441,188.194060,1636.235405,868.348774,0
0.043750,53.513548,-168.976868,151.742939,3.241687,2.075249,4.603251,-5.878036,-2.050598,-4.419044,6.165993,-0.222118,0.606409,-0.089723,-225.756715,188.194145,1633.696152,870.755560,0
0.044792,108.148687,-195.379651,67.313124,1.642866,-0.735567,6.228431,-4.663071,0.615247,-6.067764,4.928300,-0.200241,0.628871,-0.033973,-309.282225,188.194007,1629.382533,872.627239,0
0.045833,154.625280,-170.773855,-3.992885,0.257972,-2.816158,6.505999,-2.823592,2.631859,-6.376371,3.141782,-0.160133,0.630180,-0.097156,-331.652517,188.194177,1626.371743,875.351856,0
0.046875,186.445869,-122.678039,-71.276691,-1.104403,-5.017842,5.862364,-0.155210,4.706503,-5.801432,0.416586,-0.130964,0.619776,-0.045123,-306.872944,188.269494,1622.035609,877.619954,0
0.047917,190.762441,-41.696194,-127.672600,-2.140259,-6.177395,4.542911,2.040054,5.925175,-4.571234,-1.914971,-0.050748,0.620120,-0.086006,-226.285856,188.193989,1619.966786,880.353021,0
0.048958,160.987138,26.706745,-173.715284,-3.052262,-6.661766,2.503390,4.276952,6.295129,-2.626590,-4.129193,0.007591,0.628044,-0.089723,-129.385456,188.194179,1616.590900,882.321613,0
0.050000,108.883182,93.688537,-182.087786,-3.176114,-5.784762,-0.183788,5.862841,5.580610,0.053636,-5.787021,0.022176,0.643684,-0.089723,-5.712760,188.194181,1614.728055,883.684355,0
0.051042,23.489646,142.794424,-188.248683,-3.401300,-4.305964,-2.597422,6.574409,4.129810,2.492896,-6.555375,0.069576,0.640653,-0.048839,126.065929,188.269509,1612.368544,884.402403,0
0.052083,-52.502352,168.809622,-152.449858,-2.725742,-2.082264,-4.508215,6.078582,2.044285,4.441767,-6.142810,0.025822,0.628595,-0.086006,225.364353,188.194116,1610.865945,885.214177,0
0.053125,-107.894586,194.225824,-68.664082,-1.115662,0.739561,-6.133395,4.920391,-0.588917,6.031302,-4.908902,-0.003348,0.624392,-0.074856,305.084549,188.194157,1607.829311,886.572382,0
0.054167,-154.167780,171.334799,3.978611,0.314269,2.827491,-6.390849,3.069557,-2.649053,6.416003,-3.133739,-0.021578,0.622601,-0.052556,318.245531,188.194107,1606.149480,887.461099,0
0.055208,-185.502473,122.957102,71.201659,1.654126,5.003489,-5.771350,0.427670,-4.680173,5.836838,-0.465318,-0.079917,0.616193,-0.074856,318.313081,188.269462,1602.609985,888.989009,0
0.056250,-190.881237,41.599417,127.208714,2.746278,6.192398,-4.431783,-1.828153,-5.920607,4.610866,1.847314,-0.120025,0.616606,-0.056273,226.996810,188.194112,1600.636839,890.975683,0
0.057292,-160.902535,-26.204526,173.725313,3.590725,6.625396,-2.472717,-4.027202,-6.334085,2.695815,4.084246,-0.178364,0.632798,-0.045123,130.816942,188.194103,1597.656959,892.255108,0
0.058333,-109.216677,-93.268533,181.927692,3.838430,5.796095,0.190325,-5.594166,-5.601431,0.028271,5.742074,-0.185656,0.632798,-0.078573,8.056171,188.194154,1596.162886,892.548331,0
0.059375,-24.557636,-142.621066,188.307319,3.939764,4.416373,2.603958,-6.271670,-4.215917,-2.351804,6.525568,-0.222118,0.639964,-0.082290,-124.206627,188.420343,1594.589793,892.970894,0
0.060417,51.603860,-168.565793,153.675055,3.275465,2.211020,4.498661,-5.859112,-2.195678,-4.334495,6.196273,-0.225764,0.643271,-0.074856,-223.662667,188.194116,1594.379332,894.129704,0
0.061458,107.764489,-193.500450,70.739896,1.665385,-0.574110,6.131886,-4.712276,0.466540,-5.962077,4.947225,-0.174718,0.627424,-0.086006,-306.940494,188.269454,1592.570047,894.309953,0
0.062500,153.676086,-172.277216,-3.008600,0.246713,-2.702404,6.429567,-2.952279,2.523049,-6.342551,3.221267,-0.167425,0.627562,-0.086006,-331.573708,188.194128,1591.765898,895.082617,0
0.063542,184.694381,-123.817305,-70.742018,-1.070625,-4.874732,5.850295,-0.306608,4.565050,-5.809887,0.537706,-0.105440,0.603171,-0.056273,-305.769628,188.342632,1589.565197,895.959960,0
0.064583,191.519536,-41.989819,-126.311613,-2.140259,-6.092997,4.567047,1.915151,5.838127,-4.588144,-1.748431,-0.054394,0.614057,-0.071140,-227.377914,188.194119,1587.426126,896.855990,0
0.065625,160.410841,25.508754,-173.059094,-3.074780,-6.577368,2.644186,4.083920,6.244351,-2.753415,-3.928588,0.011237,0.608545,-0.082290,-130.556322,188.269489,1584.354378,898.331163,0
0.066667,109.854976,92.537526,-181.723235,-3.277448,-5.810448,-0.022879,5.768217,5.551594,-0.094326,-5.639406,0.025822,0.642237,-0.067423,-9.563107,188.194000,1581.771686,898.909728,0
0.067708,25.715732,141.878314,-187.580341,-3.412560,-4.386692,-2.448581,6.536560,4.205977,2.315341,-6.464535,0.025822,0.638379,-0.045123,122.868565,188.420155,1579.449868,899.702663,0
0.068750,-50.716963,168.222371,-154.503491,-2.737001,-2.258398,-4.327192,6.097507,2.232889,4.302260,-6.142810,0.022176,0.641755,-0.067423,222.673613,188.194215,1578.238726,901.294581,0
0.069792,-107.566888,191.665411,-72.613375,-1.183218,0.501045,-6.000645,4.943101,-0.403940,5.934070,-4.973247,0.007591,0.631833,-0.071140,303.170634,188.269622,1576.437315,902.135983,0
0.070833,-153.252486,173.331451,2.459652,0.269232,2.633009,-6.354644,3.213384,-2.493092,6.390638,-3.273784,-0.047102,0.625977,-0.048839,318.290564,188.194089,1575.583701,903.827848,0
0.071875,-183.479786,124.965499,70.496862,1.564051,4.812676,-5.795486,0.609347,-4.513331,5.815700,-0.662137,-0.072625,0.613299,-0.071140,318.436922,188.344896,1572.818289,905.081442,0
0.072917,-192.451927,42.750428,125.750513,2.678722,6.071305,-4.556487,-1.604842,-5.851694,4.703871,1.692129,-0.123671,0.611715,-0.071140,228.989533,188.269499,1571.780578,906.636707,0
0.073958,-159.953342,-25.253180,172.874696,3.647022,6.555676,-2.649717,-3.826600,-6.218021,2.831095,3.860931,-0.189302,0.641204,-0.097156,131.177209,188.269563,1567.597339,907.921050,0
0.075000,-110.222370,-91.953092,182.292242,3.860949,5.862145,-0.006788,-5.442769,-5.623193,0.248101,5.609599,-0.203887,0.618605,-0.078573,11.478701,188.194164,1565.398105,909.837603,0
0.076042,-25.744128,-141.517035,187.274427,3.984801,4.504440,2.374663,-6.248960,-4.331981,-2.123519,6.396878,-0.236703,0.642031,-0.089723,-121.189396,188.344896,1561.844115,911.538757,0
0.077083,50.078371,-168.471833,155.631474,3.309243,2.434858,4.325684,-5.878036,-2.402417,-4.123120,6.222768,-0.211179,0.635554,-0.097156,-221.365969,188.269481,1560.089389,914.067960,0
0.078125,107.866189,-190.258827,74.835009,1.721681,-0.353942,5.983045,-4.761480,0.223531,-5.805660,5.045635,-0.200241,0.635072,-0.063706,-303.968296,188.269530,1557.207186,915.808505,0
0.079167,153.133690,-174.450043,-1.064332,0.246713,-2.445541,6.425545,-3.069613,2.327191,-6.329868,3.418087,-0.189302,0.631351,-0.056273,-331.900200,188.194052,1556.339454,918.519530,0
0.080208,182.502195,-126.295502,-69.830642,-1.081884,-4.687589,5.866386,-0.442866,4.387327,-5.835252,0.757236,-0.076271,0.620740,-0.074856,-305.792145,188.344813,1553.861449,920.303866,0
0.081250,192.920727,-43.704591,-125.375934,-2.128999,-5.982913,4.711865,1.756183,5.816365,-4.668466,-1.559181,-0.058040,0.589667,-0.063706,-229.449446,188.344901,1553.231171,922.188514,0
0.082292,160.060544,24.627878,-172.427207,-3.029743,-6.492970,2.772913,3.970372,6.150049,-2.833737,-3.735553,-0.003348,0.606409,-0.071140,-130.781489,188.269501,1549.955778,922.930547,0
0.083333,110.555571,91.550945,-182.403729,-3.243670,-5.825126,0.117916,5.613035,5.566102,-0.225378,-5.582631,0.018530,0.634038,-0.063706,-11.758481,188.194013,1549.131859,924.090012,0
0.084375,26.066029,141.114888,-187.106426,-3.390041,-4.474760,-2.243422,6.449506,4.271263,2.099740,-6.350985,0.044053,0.644373,-0.086006,120.887100,188.344966,1545.822594,925.567871,0
0.085417,-49.858169,168.410291,-155.925236,-2.737001,-2.419855,-4.198465,6.158066,2.330818,4.196573,-6.226080,0.062284,0.638172,-0.067423,221.131222,188.420305,1545.833275,927.343381,0
0.086458,-107.578188,189.375134,-75.882175,-1.228255,0.376283,-5.940304,5.015015,-0.284249,5.828383,-5.075442,0.018530,0.634038,-0.045123,301.358044,188.269539,1544.517133,928.323637,0
0.087500,-152.766589,174.811322,0.539688,0.235454,2.515586,-6.302349,3.315578,-2.358893,6.356818,-3.379764,-0.014286,0.630869,-0.041406,318.346856,188.269523,1543.764360,929.462999,0
0.088542,-182.055995,126.903426,69.463970,1.597829,4.706261,-5.759281,0.692616,-4.390013,5.845292,-0.749192,-0.050748,0.617227,-0.056273,318.324339,188.269481,1542.554400,929.923622,0
0.089583,-193.096023,44.700100,125.167233,2.667463,6.027271,-4.596715,-1.532928,-5.764646,4.737691,1.623999,-0.123671,0.600897,-0.033973,230.790865,188.420341,1541.841281,930.032019,0
0.090625,-160.394039,-23.691094,172.291416,3.590725,6.518981,-2.710058,-3.724407,-6.149108,2.919872,3.777662,-0.174718,0.588289,-0.078573,131.863967,188.269512,1540.445898,930.272517,0
0.091667,-110.730867,-91.260137,182.510972,3.804652,5.843798,-0.071152,-5.367070,-5.677598,0.281920,5.564179,-0.222118,0.631489,-0.078573,12.503209,188.269499,1540.332099,930.885688,0
0.092708,-25.970127,-140.882804,187.323034,3.962282,4.522788,2.270073,-6.199756,-4.342862,-2.038970,6.377953,-0.214826,0.619914,-0.052556,-120.041047,188.269510,1539.368502,931.267019,0
0.093750,49.987971,-168.366128,156.749428,3.309243,2.460544,4.305570,-5.934811,-2.413298,-4.135803,6.226553,-0.182010,0.640997,-0.056273,-220.375236,188.420301,1539.935867,931.206631,0
0.094792,107.233393,-189.049091,77.326102,1.800497,-0.295230,5.954886,-4.840964,0.125602,-5.738020,5.125120,-0.178364,0.640170,-0.045123,-301.694115,188.269487,1539.245190,931.903108,0
0.095833,152.421794,-175.530584,0.685508,0.291750,-2.405177,6.389340,-3.137741,2.290921,-6.329868,3.474862,-0.160133,0.632936,-0.071140,-331.990266,188.269532,1539.586806,931.986740,0
0.096875,181.485202,-128.362624,-68.591172,-1.070625,-4.647225,5.886500,-0.563984,4.271263,-5.784523,0.885925,-0.105440,0.624943,-0.067423,-307.030561,188.344894,1537.879486,932.189592,0
0.097917,193.429223,-46.276748,-124.586075,-2.128999,-5.986583,4.703820,1.699409,5.761960,-4.706513,-1.517546,-0.054394,0.628733,-0.037689,-232.072635,188.420305,1537.897061,931.937066,0
0.098958,160.659440,22.419816,-171.758865,-3.029743,-6.485631,2.768890,3.879533,6.128287,-2.914059,-3.671208,-0.010640,0.607581,-0.078573,-132.278846,188.344979,1537.339817,932.053712,0
0.100000,111.527364,90.329464,-182.646762,-3.277448,-5.821456,0.194348,5.597895,5.671285,-0.297245,-5.514501,0.044053,0.598141,-0.074856,-13.008155,188.269523,1537.258634,933.316292,0
0.101042,26.642325,140.175287,-187.191488,-3.288707,-4.489438,-2.166990,6.449506,4.322041,2.061692,-6.309350,0.047699,0.620534,-0.041406,119.907626,188.344912,1536.618167,933.523613,0
0.102083,-49.790370,168.445526,-156.994584,-2.714483,-2.478567,-4.186397,6.173206,2.436001,4.103568,-6.267715,0.051345,0.622876,-0.100873,220.658373,188.420233,1536.111970,935.291655,0
0.103125,-107.160090,187.683853,-78.118083,-1.216996,0.258860,-5.867895,5.086929,-0.171812,5.718468,-5.105722,0.007591,0.638241,-0.071140,299.297770,188.420258,1534.337525,935.615355,0
0.104167,-151.986894,176.326428,-0.857754,0.246713,2.423849,-6.350622,3.432911,-2.340758,6.449823,-3.432754,0.000299,0.638172,-0.059989,318.301822,188.269507,1535.919687,936.160656,0
0.105208,-180.202808,129.087998,68.455381,1.552792,4.592508,-5.799509,0.844013,-4.284830,5.841065,-0.881667,-0.083563,0.628388,-0.048839,318.346856,188.344999,1534.485228,936.664473,0
0.106250,-194.079116,47.683333,124.304465,2.622425,6.049288,-4.681192,-1.449659,-5.764646,4.805331,1.510450,-0.123671,0.621636,-0.074856,234.596179,188.420260,1534.952017,937.465146,0
0.107292,-160.778236,-21.048466,171.623074,3.579466,6.478617,-2.810626,-3.618429,-6.192632,3.034014,3.656542,-0.171072,0.641273,-0.041406,134.070598,188.420263,1534.389280,938.567119,0
0.108333,-112.516255,-89.345700,183.300831,3.827171,5.902509,-0.163675,-5.340575,-5.681225,0.404518,5.499834,-0.196595,0.615228,-0.056273,15.238982,188.269433,1533.924831,939.064461,0
0.109375,-27.484317,-139.696558,186.970635,3.928504,4.544804,2.165482,-6.165692,-4.313846,-1.937510,6.306038,-0.200241,0.582914,-0.045123,-118.701306,188.269548,1532.255066,938.318197,0
0.110417,49.422975,-168.730223,157.466377,3.399317,2.563289,4.225116,-5.953735,-2.471330,-4.021661,6.294683,-0.214826,0.593525,-0.056273,-220.127553,188.420363,1531.894848,939.788518,0
