1-Time,2-VGERA,3-VGERB,4-VGERC,5-VN,6-IGERAN,7-IGERBN,8-IGERCN,9-IGERAT,10-IGERBT,11-IGERCT,12-IN,13-IFD,14-IFAULT,15-VFAULT,16-Speed (rad/s),17-Active Power,18-Reactive Power,19-FAULT 
0.000000,-182.498381,123.022738,5.194697,3.063768,5.553651,0.240590,-5.419619,-5.142245,0.135527,5.321085,-0.234377,0.193580,-0.031958,-205.534287,188.722560,981.317980,-1285.142121,0
0.001042,-191.390902,68.598265,71.056440,4.240008,4.037682,2.709049,-6.199475,-3.403615,-2.411866,5.997075,-0.227071,0.193776,-0.039427,-181.579708,188.495870,979.999825,-1284.804085,0
0.002083,-165.892960,21.917652,150.546023,5.778168,2.269643,4.336168,-5.859920,-1.771582,-4.115723,5.794278,-0.223418,0.208408,-0.043161,-123.287969,188.495676,979.335331,-1284.591874,0
0.003125,-106.877930,-25.814000,199.825379,6.705588,-0.219102,5.403717,-4.423343,0.654413,-5.093552,4.324887,-0.194194,0.209127,-0.035692,-43.269721,188.495539,978.020484,-1284.195861,0
0.004167,-58.195918,-96.136942,193.842425,6.592488,-2.640392,6.094251,-2.606166,3.161275,-5.945481,2.730972,-0.135746,0.187112,-0.002084,29.725018,188.646404,978.283138,-1283.789525,0
0.005208,-14.515949,-167.196819,146.052652,5.710308,-4.440383,5.677550,-0.415852,4.977095,-5.483845,0.574917,-0.154011,0.187439,-0.009553,100.536926,188.495626,977.236757,-1282.596592,0
0.006250,39.372271,-206.544324,88.106629,4.635858,-5.643927,3.986933,2.184913,6.193768,-3.960445,-1.912018,-0.084604,0.184108,-0.035692,164.630695,188.495135,977.580539,-1282.097813,0
0.007292,115.741327,-175.218540,40.353788,3.719748,-6.130315,2.070107,4.378959,6.697346,-1.983803,-4.124999,-0.015197,0.174897,-0.054364,204.634164,188.495504,975.965587,-1281.553876,0
0.008347,182.015557,-121.543083,-6.660417,2.848878,-5.260497,0.010412,5.304338,5.998954,0.005429,-5.149658,0.006721,0.193188,-0.043161,210.187374,188.646129,976.214688,-1280.837375,0
0.009378,190.998818,-67.928031,-71.611174,1.604778,-3.776481,-2.489796,6.158822,4.348542,2.443708,-5.822092,0.021333,0.198806,0.012853,186.447684,188.494723,976.165270,-1279.864787,0
0.010418,165.580274,-21.174933,-150.374432,0.089238,-2.043945,-4.085166,5.770760,2.672400,4.231499,-5.640641,-0.000585,0.208931,-0.028224,127.488656,188.494422,976.082925,-1280.089867,0
0.011462,106.179599,26.617124,-200.490910,-0.894732,0.483853,-5.164621,4.293137,0.187593,5.234508,-4.199713,-0.015197,0.215921,-0.024490,47.289447,188.494221,976.178506,-1280.703586,0
0.012504,57.758464,96.783014,-193.498485,-0.770322,2.912244,-5.863092,2.490885,-2.227375,6.069650,-2.541757,-0.048074,0.196519,-0.002084,-24.223681,188.645747,975.859583,-1280.480555,0
0.013544,14.101180,168.386532,-145.265531,0.179718,4.712235,-5.446391,0.367736,-4.116711,5.578637,-0.410607,-0.077298,0.206057,-0.024490,-95.668949,188.494710,975.838582,-1280.476580,0
0.014585,-39.560190,206.538027,-87.836553,1.208928,5.866075,-3.755774,-2.259148,-5.281923,4.059435,2.101233,-0.146705,0.185218,-0.035692,-162.137818,188.495472,975.934780,-1280.517636,0
0.015628,-116.847988,175.272647,-39.948296,2.158968,6.416368,-1.858791,-4.497970,-5.763447,2.149939,4.303540,-0.234377,0.174374,0.009119,-201.112077,188.496024,977.158420,-1280.795712,0
0.016669,-182.124079,122.817362,5.982576,3.029838,5.553651,0.212810,-5.412156,-5.134893,0.122937,5.278390,-0.267254,0.192469,0.005384,-207.988557,188.646741,977.042263,-1280.104144,0
0.017714,-191.538354,67.788845,72.669129,4.319178,4.037682,2.744766,-6.240520,-3.477130,-2.411866,6.029096,-0.230724,0.196323,-0.035692,-182.416648,188.496078,978.793618,-1280.177751,0
0.018762,-165.257780,20.431701,151.026137,5.766858,2.212839,4.336168,-5.848726,-1.731149,-4.119920,5.780047,-0.219765,0.208016,-0.009553,-123.140939,188.495964,978.715851,-1279.736685,0
0.019801,-105.777708,-26.925443,201.327273,6.739518,-0.258155,5.399749,-4.378567,0.676468,-5.156503,4.332003,-0.186888,0.221343,-0.028224,-43.880461,188.497091,979.628519,-1280.404210,0
0.020842,-57.651478,-97.236304,192.808334,6.547248,-2.679445,6.074408,-2.557658,3.201708,-5.958071,2.663373,-0.146705,0.206187,-0.002084,32.507278,188.647826,979.095234,-1280.498554,0
0.021889,-13.540494,-170.313693,144.169129,5.721618,-4.536240,5.669613,-0.441971,5.043259,-5.517418,0.532223,-0.102869,0.192012,-0.002084,102.448316,188.497079,980.278291,-1281.156225,0
0.022924,39.996109,-205.795308,87.725000,4.624548,-5.629726,3.955184,2.203570,6.223174,-3.956249,-1.929807,-0.051727,0.177118,-0.031958,166.428985,188.497379,980.307582,-1281.206027,0
0.023970,118.123252,-175.073569,39.258144,3.674508,-6.204871,2.050264,4.408810,6.730428,-1.983803,-4.142788,-0.000585,0.176269,-0.046895,208.762314,188.497088,981.677425,-1281.361985,0
0.025011,181.788707,-121.712216,-6.746591,2.826258,-5.264047,0.026286,5.326727,5.965872,-0.032341,-5.096291,0.021333,0.191751,-0.020755,210.911214,188.571310,981.538324,-1280.355729,0
0.026054,191.350435,-66.538727,-73.248485,1.570848,-3.787131,-2.473921,6.140165,4.311784,2.523445,-5.807860,0.017680,0.191947,-0.002084,186.639954,188.559091,981.515983,-1280.593176,0
0.027094,165.013149,-20.329269,-151.076137,0.123168,-1.958738,-4.120884,5.733446,2.617264,4.164352,-5.594389,-0.015197,0.210564,-0.039427,125.509406,188.492940,981.001111,-1279.410848,0
0.028138,105.544419,27.523191,-201.463448,-0.894732,0.515806,-5.176527,4.315525,0.172890,5.217722,-4.160577,-0.029809,0.213112,-0.024490,45.864387,188.497133,980.986039,-1279.105333,0
0.029179,57.293422,98.027347,-192.587501,-0.691152,2.894492,-5.831343,2.475960,-2.300890,6.036077,-2.484831,-0.059033,0.209388,-0.013287,-27.300001,188.722661,980.164819,-1279.185378,0
0.030218,13.216465,169.425490,-144.576137,0.224958,4.712235,-5.382893,0.337885,-4.105683,5.545064,-0.396375,-0.062686,0.199851,-0.031958,-98.032739,188.495946,980.285612,-1278.632257,0
0.031255,-40.172685,206.223924,-87.713447,1.242858,5.848324,-3.680371,-2.292731,-5.274572,4.025861,2.126138,-0.164970,0.189334,-0.058098,-160.825858,188.495770,979.866717,-1278.540920,0
0.032292,-116.144753,175.320971,-40.169886,2.158968,6.356013,-1.874665,-4.483045,-5.689932,2.091186,4.271520,-0.238030,0.175550,-0.024490,-200.704917,188.495801,978.442229,-1277.849219,0
0.033333,-182.668519,123.167708,5.822538,3.029838,5.578502,0.185030,-5.415887,-5.116515,0.139723,5.289064,-0.208806,0.192469,-0.020755,-205.443807,188.721987,978.553772,-1278.013454,0
0.034375,-191.198079,67.571388,71.265720,4.307868,3.987978,2.689206,-6.199475,-3.429345,-2.365702,6.004191,-0.227071,0.192861,-0.035692,-181.115998,188.495821,977.554269,-1277.157003,0
0.035417,-165.892960,21.736438,150.779925,5.755548,2.227040,4.312357,-5.818875,-1.782609,-4.082150,5.790720,-0.219765,0.197760,-0.024490,-123.401069,188.495756,977.881429,-1277.132916,0
0.036458,-107.274918,-26.176427,199.542235,6.671658,-0.212001,5.344189,-4.344984,0.676468,-5.043192,4.282193,-0.197847,0.213765,-0.028224,-43.269721,188.495830,976.197119,-1275.998055,0
0.037500,-58.059808,-96.608097,193.928599,6.637728,-2.636841,6.078377,-2.565121,3.124517,-5.916104,2.695394,-0.183235,0.199328,0.009119,30.584578,188.646418,976.488517,-1275.310969,0
0.038542,-13.619891,-166.979363,146.015720,5.710308,-4.443933,5.633895,-0.471822,4.962392,-5.446075,0.550012,-0.110175,0.192992,-0.020755,100.887536,188.495792,974.876690,-1274.155984,0
0.039583,39.769259,-206.653052,88.143561,4.624548,-5.626176,3.959153,2.192376,6.219499,-3.939462,-1.890671,-0.080951,0.180776,-0.035692,164.981305,188.494753,975.027644,-1274.137819,0
0.040625,115.922807,-175.230620,40.366099,3.719748,-6.116114,2.074076,4.345376,6.620156,-1.971213,-4.064515,0.010374,0.176464,-0.028224,204.713334,188.496715,973.179978,-1272.743165,0
0.041667,182.253750,-122.920306,-5.909470,2.826258,-5.331503,0.050098,5.293144,6.068793,-0.028144,-5.106964,-0.007891,0.192208,-0.002084,211.227894,188.642737,974.076651,-1274.001759,0
0.042718,190.862708,-66.140057,-73.100758,1.570848,-3.758729,-2.465984,6.128971,4.322812,2.489871,-5.836323,0.035945,0.190313,-0.028224,185.520264,188.508188,974.422436,-1273.685444,0
0.043759,165.183287,-20.220541,-150.977652,0.168408,-1.969389,-4.120884,5.707326,2.591533,4.193729,-5.565927,0.017680,0.201680,-0.020755,126.663026,188.495166,973.877025,-1273.941950,0
0.044800,106.247654,27.426544,-200.638637,-0.849492,0.469652,-5.132873,4.274480,0.180241,5.200935,-4.107209,-0.029809,0.201745,-0.005818,46.701327,188.494920,973.019732,-1273.628515,0
0.045842,57.429532,97.930700,-192.993751,-0.634602,2.898042,-5.831343,2.446109,-2.300890,6.015093,-2.495505,-0.062686,0.196715,0.001650,-25.524331,188.634202,973.000077,-1273.609893,0
0.046884,12.921560,169.485894,-144.305303,0.191028,4.708684,-5.367019,0.322960,-4.079953,5.536670,-0.367912,-0.095563,0.163073,-0.024490,-97.184489,188.551223,972.742391,-1273.277697,0
0.047924,-40.376850,206.320571,-87.578031,1.231548,5.869625,-3.708151,-2.326313,-5.256193,4.021664,2.136812,-0.128440,0.168821,0.012853,-162.703318,188.477031,972.663494,-1273.132015,0
0.048967,-118.107006,174.994787,-39.418940,2.158968,6.398617,-1.823074,-4.483045,-5.730365,2.086989,4.253730,-0.201500,0.175942,-0.009553,-201.903777,188.494619,973.869835,-1272.994156,0
0.050013,-182.294216,121.923375,7.385985,3.075078,5.482645,0.272339,-5.438276,-5.076081,0.030609,5.292622,-0.216112,0.190444,-0.050629,-207.423057,188.571152,972.907604,-1272.860164,0
0.051053,-191.447614,66.351217,73.617046,4.341798,3.977327,2.784452,-6.229326,-3.388912,-2.462226,6.050443,-0.234377,0.193580,-0.031958,-181.387438,188.492777,973.315866,-1273.876084,0
0.052095,-165.167040,20.190083,151.186175,5.721618,2.191537,4.348074,-5.803950,-1.723797,-4.094740,5.744468,-0.234377,0.206253,-0.028224,-123.355829,188.493391,972.723082,-1273.332643,0
0.053137,-106.049928,-27.565731,201.462690,6.705588,-0.236853,5.415623,-4.348716,0.716901,-5.135519,4.328445,-0.216112,0.212393,0.005384,-43.563781,188.552204,974.227055,-1274.591435,0
0.054179,-57.526711,-97.997401,192.488258,6.524628,-2.714947,6.074408,-2.524076,3.209059,-5.907711,2.606447,-0.128440,0.198479,-0.035692,33.332908,188.549182,973.148692,-1274.860648,0
0.055220,-13.052766,-169.915023,144.206061,5.687688,-4.522039,5.657707,-0.371075,5.050610,-5.446075,0.482413,-0.099216,0.186198,-0.058098,102.640586,188.557947,973.572061,-1275.841193,0
0.056262,40.619946,-205.565770,87.355682,4.658478,-5.626176,3.915499,2.248346,6.259932,-3.889102,-1.979617,-0.037115,0.184369,-0.013287,166.813525,188.477763,972.693015,-1276.346246,0
0.057304,118.701719,-174.868193,39.282765,3.697128,-6.158717,2.070107,4.412541,6.715725,-2.017377,-4.107209,-0.004238,0.176987,-0.024490,209.011134,188.487711,975.089216,-1277.075352,0
0.058345,181.981530,-121.724297,-7.140530,2.803638,-5.253396,-0.017368,5.300607,5.936466,0.026413,-5.082059,0.006721,0.193122,-0.009553,210.911214,188.564226,973.554979,-1275.920015,0
0.059387,191.214325,-65.886358,-73.433144,1.548228,-3.794232,-2.505670,6.125240,4.278703,2.552822,-5.846996,0.054210,0.195474,-0.005818,186.040524,188.483258,973.041039,-1276.647883,0
0.060429,164.355284,-19.556091,-151.211553,0.123168,-1.958738,-4.105009,5.666281,2.624615,4.193729,-5.544579,0.014027,0.202203,-0.031958,125.068316,188.474228,973.337820,-1275.930749,0
0.061472,105.782611,27.921861,-201.438826,-0.849492,0.547758,-5.168590,4.240898,0.128781,5.196738,-4.089420,-0.011544,0.211217,-0.039427,45.796527,188.555782,973.113921,-1276.186690,0
0.062516,57.361477,98.776363,-192.205872,-0.713772,2.951297,-5.795626,2.412527,-2.278836,6.002503,-2.481273,-0.048074,0.198675,0.012853,-27.899431,188.645600,973.156549,-1275.594966,0
0.063555,12.649340,170.452367,-143.640531,0.213648,4.719335,-5.347176,0.274452,-4.046871,5.545064,-0.328776,-0.102869,0.172284,-0.017021,-99.401249,188.494484,973.251472,-1275.328635,0
0.064593,-40.739810,206.066872,-87.184091,1.265478,5.855424,-3.688308,-2.341239,-5.256193,3.988091,2.175948,-0.183235,0.175681,-0.017021,-161.176468,188.489652,972.725665,-1275.399566,0
0.065634,-118.072978,174.910220,-39.382008,2.158968,6.359564,-1.799262,-4.512896,-5.704635,2.057612,4.296425,-0.190541,0.176269,-0.031958,-202.480587,188.494325,972.077117,-1275.722573,0
0.066679,-182.781944,121.899214,7.435227,3.052458,5.457793,0.300119,-5.378574,-5.043000,0.047396,5.239254,-0.219765,0.192077,-0.017021,-204.369357,188.624113,971.984003,-1274.918893,0
0.067718,-191.322847,66.387460,73.198485,4.262628,3.973777,2.736829,-6.173355,-3.344803,-2.466423,5.943708,-0.219765,0.192600,-0.024490,-179.973688,188.548342,970.657191,-1273.888141,0
0.068761,-164.894820,19.863898,151.506250,5.800788,2.187987,4.363948,-5.736785,-1.690716,-4.103133,5.748026,-0.208806,0.189399,-0.013287,-121.602779,188.475080,970.501888,-1274.000286,0
0.069799,-106.730478,-27.154980,200.490152,6.705588,-0.261705,5.375937,-4.352447,0.761010,-5.064176,4.232383,-0.190541,0.202660,-0.017021,-42.263131,188.481101,968.438553,-1273.372988,0
0.070844,-57.878328,-97.985320,192.820645,6.569868,-2.714947,6.034722,-2.509150,3.201708,-5.949678,2.620679,-0.154011,0.199328,-0.035692,31.839988,188.554611,968.918139,-1273.872800,0
0.071885,-12.905314,-169.238492,144.439963,5.665068,-4.514939,5.614052,-0.356150,4.991798,-5.395714,0.496644,-0.121134,0.183716,-0.050629,103.172156,188.554298,968.391985,-1272.819859,0
0.072926,40.563234,-206.097330,87.023296,4.647168,-5.622625,3.927404,2.192376,6.204796,-3.947855,-1.972501,-0.077298,0.188092,-0.069301,165.411085,188.477136,969.030183,-1272.285458,0
0.073969,117.953114,-174.626575,39.492046,3.708438,-6.140966,2.042327,4.382690,6.667940,-1.954426,-4.092978,-0.018850,0.178163,-0.031958,206.613414,188.484763,967.655771,-1271.907675,0
0.075009,182.435230,-122.110886,-7.042045,2.781018,-5.249846,-0.017368,5.296876,5.973223,-0.007161,-5.106964,0.046904,0.193645,-0.005818,210.594534,188.500448,968.482624,-1272.344648,0
0.076053,190.840023,-66.115895,-73.445455,1.570848,-3.762280,-2.493764,6.162554,4.300757,2.557018,-5.797187,0.039598,0.195409,-0.024490,185.067864,188.489540,968.289294,-1271.871980,0
0.077089,164.911067,-19.471525,-150.817614,0.123168,-1.980040,-4.081198,5.688670,2.661373,4.206319,-5.594389,0.003068,0.189856,-0.009553,126.391586,188.475489,969.064729,-1272.333017,0
0.078136,105.884694,27.837295,-200.983334,-0.860802,0.476753,-5.168590,4.281943,0.194944,5.192542,-4.149904,-0.040768,0.203248,-0.028224,46.463817,188.476609,970.093419,-1271.885539,0
0.079179,57.622354,98.570988,-192.562879,-0.668532,2.919344,-5.791658,2.449840,-2.271484,5.989913,-2.488389,-0.077298,0.198414,-0.005818,-25.795771,188.478364,970.055020,-1271.896770,0
0.080214,13.000957,169.425490,-144.391478,0.224958,4.708684,-5.382893,0.349079,-4.057899,5.519884,-0.367912,-0.066339,0.198544,-0.013287,-97.365449,188.552398,969.758246,-1271.872115,0
0.081261,-40.796522,206.103115,-86.556250,1.288098,5.866075,-3.692277,-2.311388,-5.296626,4.000681,2.143927,-0.146705,0.182344,0.005384,-162.906898,188.497193,970.389177,-1271.794946,0
0.082307,-119.297968,174.789411,-39.025000,2.181588,6.395066,-1.874665,-4.497970,-5.763447,2.091186,4.253730,-0.186888,0.175223,-0.035692,-202.853817,188.476209,971.861499,-1271.572470,0
0.083336,-182.453011,122.889848,6.770455,3.041148,5.503947,0.228684,-5.419619,-5.120190,0.127133,5.260601,-0.230724,0.193057,-0.009553,-208.067727,188.555315,973.035195,-1271.999784,0
0.084384,-191.492984,66.701563,73.580114,4.330488,3.998629,2.764609,-6.240520,-3.414642,-2.470619,5.965055,-0.248989,0.193057,-0.013287,-181.353508,188.477543,974.049552,-1272.411752,0
0.085431,-164.770053,19.139044,151.358523,5.766858,2.148934,4.359980,-5.770368,-1.694391,-4.132510,5.755142,-0.227071,0.181429,-0.043161,-122.383169,188.477968,974.240514,-1272.527526,0
0.086464,-105.913818,-27.203304,200.994887,6.728208,-0.258155,5.395780,-4.359910,0.761010,-5.139716,4.314214,-0.197847,0.192861,-0.061832,-44.344171,188.549401,975.559934,-1273.377863,0
0.087500,-58.660961,-96.946363,193.263826,6.569868,-2.651042,6.066471,-2.602434,3.157599,-5.949678,2.698951,-0.161317,0.196258,-0.017021,31.749508,188.549364,976.202171,-1273.212455,0
0.088541,-13.461096,-168.416991,145.412500,5.687688,-4.511388,5.649770,-0.423314,5.010177,-5.462861,0.542896,-0.146705,0.188942,0.005384,101.453036,188.551039,976.900814,-1273.887082,0
0.089583,39.973424,-206.242301,87.306440,4.590618,-5.608424,3.963122,2.173719,6.179065,-3.981429,-1.940481,-0.048074,0.189007,-0.050629,166.440295,188.477508,977.179601,-1273.579187,0
0.090625,117.000344,-175.242701,39.910606,3.719748,-6.190670,2.137573,4.371496,6.723077,-2.025770,-4.078747,-0.011544,0.178032,-0.024490,207.834894,188.480551,978.026111,-1273.937441,0
0.091666,182.117640,-123.029034,-6.241856,2.792328,-5.296000,0.010412,5.326727,6.017332,-0.028144,-5.085617,-0.000585,0.195147,-0.024490,211.793394,188.548653,978.239715,-1274.152378,0
0.092708,191.202983,-67.215258,-72.103599,1.570848,-3.765830,-2.473921,6.173748,4.355893,2.477281,-5.832765,0.021333,0.195931,0.009119,186.628644,188.471969,978.925014,-1274.222945,0
0.093750,165.081204,-19.991004,-150.522160,0.123168,-1.994241,-4.089135,5.707326,2.646670,4.189532,-5.619294,0.010374,0.195409,-0.005818,125.916566,188.476016,978.804360,-1274.421813,0
0.094791,106.179599,26.919146,-200.220076,-0.826872,0.441250,-5.140810,4.311794,0.224350,5.163165,-4.164135,-0.029809,0.215006,-0.054364,47.493027,188.491073,978.577046,-1273.967220,0
0.095833,58.382302,97.399140,-193.203031,-0.702462,2.876741,-5.815469,2.505811,-2.253105,5.968930,-2.538199,-0.029809,0.206971,-0.005818,-26.089831,188.420519,978.623469,-1273.987753,0
0.096884,12.819477,170.404043,-143.923675,0.191028,4.733536,-5.394799,0.352811,-4.087305,5.566047,-0.343008,-0.106522,0.193514,0.001650,-99.265529,188.497041,979.198040,-1274.628201,0
0.097928,-41.057400,206.018548,-86.457765,1.254168,5.837673,-3.664497,-2.333776,-5.307654,3.988091,2.175948,-0.183235,0.191097,-0.024490,-161.300878,188.499961,978.967524,-1274.929796,0
0.098968,-118.503993,174.873978,-38.951136,2.158968,6.402167,-1.807199,-4.501702,-5.741392,2.120562,4.299983,-0.212459,0.176791,-0.024490,-202.842507,188.484771,978.710647,-1275.164340,0
0.100009,-182.861341,122.309964,7.250568,3.063768,5.489746,0.248527,-5.408425,-5.061378,0.106150,5.289064,-0.230724,0.195735,-0.035692,-204.742587,188.476504,978.281598,-1275.152557,0
0.101050,-191.436272,66.677401,73.666288,4.330488,4.012830,2.732861,-6.233057,-3.407291,-2.416062,5.965055,-0.212459,0.195213,-0.017021,-180.165958,188.480224,978.514915,-1274.586256,0
0.102094,-164.747368,19.549795,151.506250,5.766858,2.195087,4.336168,-5.740517,-1.694391,-4.094740,5.730237,-0.252642,0.181364,-0.017021,-120.811079,188.479080,978.274194,-1274.108246,0
0.103134,-105.324008,-27.807349,201.425758,6.728208,-0.261705,5.407686,-4.341253,0.764686,-5.143913,4.292867,-0.212459,0.192469,0.005384,-41.494051,188.474442,978.356293,-1273.921093,0
0.104179,-58.173233,-98.516880,192.537501,6.535938,-2.690096,6.094251,-2.531538,3.190681,-5.895121,2.634910,-0.186888,0.189660,-0.002084,31.839988,188.473606,977.636631,-1273.477789,0
0.105220,-12.950684,-170.446582,143.824432,5.653758,-4.486536,5.590241,-0.382269,5.046934,-5.479648,0.521549,-0.106522,0.195605,-0.046895,104.054336,188.473723,978.381267,-1273.671230,0
0.106261,40.982906,-205.976521,86.653978,4.613238,-5.629726,3.895656,2.222227,6.186417,-3.901692,-1.983175,-0.084604,0.194168,-0.013287,165.614665,188.485968,977.605321,-1273.618365,0
0.107302,118.406814,-174.578252,39.036553,3.753678,-6.165818,2.022484,4.408810,6.708374,-1.992197,-4.082304,-0.029809,0.174897,0.020321,206.986644,188.477098,977.786406,-1273.213898,0
0.108344,182.423887,-121.675973,-7.608333,2.814948,-5.196592,-0.009431,5.315533,6.013657,-0.002964,-5.106964,0.003068,0.194364,-0.046895,210.232614,188.478053,978.134166,-1272.961090,0
0.109385,191.055530,-66.357514,-74.048674,1.559538,-3.797782,-2.533450,6.125240,4.326487,2.523445,-5.814976,0.014027,0.195931,-0.005818,185.248824,188.548593,978.261695,-1272.875723,0
0.110431,164.241859,-18.456729,-151.593182,0.100548,-1.951638,-4.101041,5.707326,2.595209,4.227302,-5.530348,0.035945,0.201941,-0.054364,124.570676,188.479366,977.538146,-1272.344468,0
