1-Time,2-VGERA,3-VGERB,4-VGERC,5-VN,6-IGERAN,7-IGERBN,8-IGERCN,9-IGERAT,10-IGERBT,11-IGERCT,12-IN,13-IFD,14-IFAULT,15-VFAULT,16-Speed (rad/s),17-FAULT 
0.000000,118.928569,-194.644633,35.860417,3.629268,-3.705475,5.574367,-1.251679,3.859667,-5.467058,1.297160,-0.164970,0.441749,-0.076769,-5.177641,188.495430,0
0.001042,160.271984,-154.282333,-30.579924,2.373858,-4.937422,4.558409,0.882665,5.135152,-4.585753,-0.659656,-0.132093,0.443774,-0.028224,-8.864701,188.495437,0
0.002083,194.061293,-78.897492,-81.804356,1.389888,-5.693631,2.847949,3.140144,5.833545,-2.923862,-2.915331,-0.077298,0.445016,-0.050629,-12.370801,188.269136,0
0.003125,176.661897,-15.811011,-140.649053,0.258888,-5.303100,0.998589,4.423735,5.554188,-1.064727,-4.160577,-0.037115,0.454880,-0.050629,-11.839231,188.419873,0
0.004167,130.554633,45.366687,-185.299622,-0.611982,-4.376478,-1.307158,5.520758,4.580114,1.222470,-5.256394,-0.022503,0.459714,-0.061832,-8.593261,188.495323,0
0.005208,60.696172,102.014046,-196.933145,-0.849492,-2.516132,-3.263670,5.468519,2.778997,3.257866,-5.263510,0.006721,0.462980,-0.024490,-5.460391,188.495300,0
0.006250,-3.014653,162.696426,-169.258902,-0.351852,-0.421468,-4.870946,4.800603,0.676468,4.848413,-4.694254,-0.018850,0.450503,-0.031958,2.569708,188.269167,0
0.007292,-61.167653,185.493092,-114.784470,0.711288,1.868462,-5.418611,3.076711,-1.591470,5.477917,-3.089665,-0.084604,0.448674,-0.080503,4.888258,188.495255,0
0.008333,-119.592873,195.037006,-35.848864,2.170278,3.916972,-5.430516,1.058039,-3.660918,5.482113,-1.132850,-0.084604,0.437699,-0.050629,10.339678,188.495423,0
0.009375,-160.561985,153.804881,30.505303,3.448308,5.102765,-4.386779,-1.098692,-4.906997,4.550448,0.966280,-0.157664,0.435217,-0.028224,13.823158,188.495410,0
0.010417,-195.020502,77.960966,81.298864,4.409658,5.926430,-2.652508,-3.371097,-5.700959,2.854984,3.189934,-0.212459,0.437895,-0.028224,16.888168,188.269192,0
0.011458,-176.373431,14.499977,140.574432,5.529348,5.468444,-0.771399,-4.576329,-5.362790,1.004242,4.378255,-0.216112,0.459452,-0.054364,16.254808,188.419985,0
0.012500,-129.665014,-45.904543,185.705114,6.366288,4.516969,1.451008,-5.684546,-4.344607,-1.287152,5.481188,-0.252642,0.431820,-0.028224,13.099318,188.419949,0
0.013542,-59.137346,-101.827048,197.043182,6.615108,2.624671,3.478954,-5.636038,-2.547165,-3.314155,5.477630,-0.238030,0.446583,-0.069301,8.959858,188.495047,0
0.014583,3.847559,-162.195325,169.725947,6.151398,0.501605,5.094168,-4.945735,-0.404203,-4.917291,4.847891,-0.223418,0.470492,-0.031958,2.886388,188.269214,0
0.015625,60.752884,-185.149043,114.722159,5.122188,-1.788325,5.681518,-3.154677,1.896817,-5.550992,3.182819,-0.183235,0.437373,-0.054364,0.036268,188.495463,0
0.016667,119.268845,-195.055384,36.266667,3.651888,-3.819084,5.677550,-1.165857,3.995670,-5.576172,1.254466,-0.154011,0.441357,-0.046895,-5.279431,188.419947,0
0.017708,160.657629,-153.569560,-29.976705,2.328618,-5.036829,4.566346,0.987143,5.204992,-4.535392,-0.791296,-0.128440,0.441227,-0.024490,-8.955181,188.495244,0
0.018750,195.365680,-79.018301,-81.188826,1.355958,-5.800139,2.816201,3.263279,5.958520,-2.890289,-2.986488,-0.051727,0.444820,-0.039427,-12.438661,188.269194,0
0.019792,176.174169,-15.943901,-140.870644,0.236268,-5.363455,0.895406,4.528213,5.583594,-0.997580,-4.249523,-0.062686,0.454488,-0.058098,-11.420761,188.495475,0
0.020833,130.066905,45.161311,-186.038258,-0.634602,-4.369377,-1.370655,5.569266,4.583790,1.302207,-5.345340,0.014027,0.460236,-0.046895,-7.914661,188.495197,0
0.021875,60.151732,101.941560,-196.908523,-0.826872,-2.487730,-3.350978,5.494638,2.764294,3.345997,-5.323993,-0.018850,0.459387,-0.039427,-5.392531,188.495376,0
0.022917,-3.922053,162.720588,-169.652841,-0.363162,-0.361113,-4.950318,4.811798,0.599277,4.949133,-4.733390,-0.033462,0.457950,-0.043161,2.603638,188.269104,0
0.023958,-60.850063,185.662225,-114.132008,0.711288,1.957219,-5.482108,3.028203,-1.676013,5.553457,-3.043413,-0.080951,0.459518,-0.013287,4.718608,188.419891,0
0.025000,-119.354681,195.435676,-35.479546,2.170278,4.012830,-5.521794,1.035651,-3.763839,5.599621,-1.065250,-0.106522,0.437895,-0.035692,10.430158,188.495463,0
0.026042,-160.459903,153.418292,30.246780,3.436998,5.191522,-4.351062,-1.136006,-5.031972,4.625988,0.994743,-0.146705,0.437634,-0.050629,13.845778,188.495332,0
0.027083,-195.791792,77.393163,80.732576,4.420968,6.032938,-2.672351,-3.449455,-5.774474,2.800427,3.318017,-0.183235,0.441553,-0.024490,16.956028,188.269125,0
0.028125,-176.067183,14.802000,140.808334,5.551968,5.539449,-0.723776,-4.695733,-5.384844,0.941292,4.484991,-0.223418,0.442011,-0.020755,16.673278,188.495164,0
0.029167,-129.596959,-44.950152,186.480682,6.445458,4.577324,1.574034,-5.785293,-4.396068,-1.350103,5.577249,-0.285519,0.445799,-0.061832,13.144558,188.495403,0
0.030208,-60.056088,-101.585430,197.055493,6.660348,2.653073,3.609918,-5.662158,-2.547165,-3.410679,5.552345,-0.252642,0.457558,-0.024490,9.955138,188.495336,0
0.031250,3.110297,-162.714804,169.959849,6.128778,0.448350,5.233068,-4.979317,-0.315985,-5.018012,4.915490,-0.263601,0.454422,-0.054364,2.841148,188.269122,0
0.032292,59.879512,-185.608117,114.672917,5.088258,-1.894833,5.741047,-3.094975,1.944601,-5.630729,3.204166,-0.208806,0.449784,-0.069301,-0.054212,188.495332,0
0.033333,119.597777,-195.466135,36.857576,3.629268,-3.953995,5.717236,-1.102424,4.124321,-5.672696,1.201098,-0.154011,0.439855,-0.043161,-5.098471,188.495041,0
0.034375,160.884479,-153.110485,-28.917993,2.373858,-5.178841,4.606032,1.099085,5.340994,-4.631916,-0.869569,-0.113828,0.444820,-0.024490,-8.989111,188.495352,0
0.035417,196.477245,-78.124314,-80.093182,1.412508,-5.935050,2.804295,3.405071,6.083496,-2.844125,-3.203516,-0.051727,0.445669,-0.024490,-12.393421,188.269214,0
0.036458,175.709127,-15.412341,-140.747538,0.247578,-5.445111,0.859689,4.725976,5.712245,-0.892663,-4.452321,-0.040768,0.457819,-0.050629,-11.850541,188.495443,0
0.037500,129.306957,45.088826,-187.109281,-0.657222,-4.436832,-1.509556,5.744640,4.653629,1.432305,-5.505443,-0.000585,0.450895,-0.046895,-8.423611,188.495184,0
0.038542,58.836002,101.748266,-197.179357,-0.849492,-2.473529,-3.553376,5.666281,2.727536,3.530651,-5.459191,-0.011544,0.461935,-0.024490,-5.109781,188.495389,0
0.039583,-4.795426,162.756831,-170.157576,-0.351852,-0.247504,-5.200339,4.957321,0.525762,5.112804,-4.818779,-0.018850,0.430905,-0.035692,2.648878,188.269214,0
0.040625,-60.441733,186.677021,-112.999432,0.711288,2.109881,-5.660694,3.058054,-1.819367,5.708735,-3.043413,-0.069992,0.434825,-0.035692,4.831708,188.495349,0
0.041667,-119.490791,196.124288,-35.344129,2.158968,4.183243,-5.648789,1.005800,-3.925572,5.771685,-1.029672,-0.080951,0.438483,-0.039427,10.170028,188.495314,0
0.042708,-161.185823,152.173959,29.471212,3.448308,5.415190,-4.462182,-1.259141,-5.230463,4.630185,1.122825,-0.154011,0.444493,-0.080503,14.060668,188.495327,0
0.043750,-197.164234,77.405244,79.920076,4.398348,6.192701,-2.624728,-3.594979,-5.947234,2.842394,3.453215,-0.227071,0.443382,-0.050629,16.865548,188.269169,0
0.044792,-175.273208,15.889281,141.423864,5.563278,5.674360,-0.616624,-4.942003,-5.502468,0.823784,4.737598,-0.263601,0.444558,-0.039427,16.345288,188.495401,0
0.045833,-130.062001,-43.971598,187.625569,6.479388,4.598626,1.728809,-5.975593,-4.513692,-1.492790,5.801394,-0.267254,0.468075,-0.039427,12.952288,188.419873,0
0.046875,-60.691268,-101.512944,197.055493,6.637728,2.596269,3.808347,-5.837532,-2.506732,-3.586940,5.662638,-0.245336,0.465201,-0.050629,8.812828,188.495278,0
0.047917,2.951502,-162.618157,170.796970,6.174018,0.363144,5.411655,-5.053944,-0.235118,-5.185880,4.979531,-0.296478,0.460236,-0.039427,2.863768,188.269142,0
0.048958,59.357757,-186.659156,113.725000,5.065638,-2.047495,5.895822,-3.072587,2.128389,-5.752433,3.147240,-0.194194,0.451287,-0.035692,0.081508,188.495363,0
0.050000,119.473010,-196.106423,36.315909,3.651888,-4.145710,5.808513,-1.016602,4.297081,-5.756630,1.115710,-0.150358,0.440835,-0.050629,-5.030611,188.495378,0
0.051042,161.281466,-151.636615,-28.831818,2.385168,-5.370556,4.602064,1.285653,5.550512,-4.640310,-1.075924,-0.113828,0.440312,0.012853,-9.170071,188.495311,0
0.052083,197.554783,-76.614201,-79.576137,1.423818,-6.094812,2.776515,3.558057,6.215823,-2.776978,-3.352946,-0.055380,0.446975,-0.046895,-12.382111,188.344608,0
0.053125,174.949179,-14.518354,-141.436932,0.224958,-5.509016,0.728726,4.882694,5.818842,-0.817123,-4.566172,-0.033462,0.398765,-0.050629,-11.522551,188.495229,0
0.054167,128.875942,44.810965,-188.094129,-0.668532,-4.451034,-1.577021,5.860313,4.697738,1.558206,-5.647757,-0.015197,0.470623,-0.054364,-7.858111,188.495334,0
0.055208,58.427672,101.567052,-197.216288,-0.883422,-2.409624,-3.648622,5.770760,2.687103,3.648159,-5.544579,-0.007891,0.456839,-0.043161,-5.121091,188.496954,0
0.056251,-5.147043,162.938044,-170.760796,-0.295302,-0.215552,-5.291616,4.990903,0.422841,5.305852,-4.833010,-0.044421,0.453638,-0.035692,2.581018,188.345191,0
0.057292,-59.829238,187.208581,-112.802462,0.733908,2.205738,-5.748003,3.020740,-1.863476,5.763292,-3.007835,-0.102869,0.432734,-0.050629,4.650748,188.495915,0
0.058333,-119.842408,196.390068,-35.811932,2.181588,4.250698,-5.692443,0.968487,-4.076277,5.805259,-0.994093,-0.091910,0.441292,-0.046895,10.294438,188.496241,0
0.059375,-161.764290,151.908179,28.744886,3.436998,5.482645,-4.450276,-1.367351,-5.322357,4.646971,1.218887,-0.132093,0.444950,-0.050629,14.139838,188.496324,0
0.060417,-198.014922,77.864318,79.390720,4.387038,6.249505,-2.573136,-3.744234,-6.046479,2.796230,3.538603,-0.245336,0.445669,-0.058098,16.989958,188.345182,0
0.061458,-175.193811,16.602054,141.559281,5.540658,5.706313,-0.521378,-5.042750,-5.568632,0.802801,4.822986,-0.230724,0.458799,-0.043161,16.650658,188.495247,0
0.062500,-129.755754,-43.234663,188.364205,6.456768,4.641229,1.839929,-6.039026,-4.495313,-1.580921,5.872551,-0.281866,0.463437,-0.046895,12.986218,188.487677,0
0.063542,-60.373678,-101.271326,197.141667,6.637728,2.553665,3.899624,-5.859920,-2.492029,-3.696054,5.765815,-0.259948,0.459714,-0.035692,9.661078,188.495721,0
0.064584,3.756819,-162.714804,170.969319,6.140088,0.277937,5.502932,-5.057676,-0.135873,-5.328567,4.993763,-0.223418,0.456513,-0.076769,2.648878,188.420294,0
0.065627,58.994797,-187.335686,112.690909,5.054328,-2.125601,5.963288,-3.080050,2.216607,-5.865744,3.086757,-0.190541,0.455794,-0.017021,-0.042902,188.495647,0
0.066668,119.518380,-196.529254,35.897349,3.640578,-4.252218,5.899790,-0.956900,4.433084,-5.798597,1.065900,-0.164970,0.438026,-0.043161,-4.985371,188.495705,0
0.067709,161.496974,-150.742628,-28.524053,2.396478,-5.462863,4.617938,1.360280,5.638730,-4.631916,-1.150639,-0.110175,0.436066,-0.043161,-9.181381,188.495700,0
0.068751,198.337415,-75.563162,-78.911364,1.412508,-6.158717,2.728892,3.666267,6.344474,-2.802158,-3.452566,-0.040768,0.428619,-0.050629,-12.370801,188.420204,0
0.069792,174.416082,-14.373384,-141.670834,0.213648,-5.594223,0.649354,5.002097,5.811490,-0.733189,-4.708485,-0.044421,0.461608,-0.050629,-11.873161,188.495560,0
0.070834,128.569695,44.351891,-188.808145,-0.668532,-4.490087,-1.672268,5.975985,4.723468,1.642139,-5.758050,-0.044421,0.455664,-0.039427,-8.253961,188.495727,0
0.071875,58.870029,101.410000,-197.351705,-0.826872,-2.367020,-3.831177,5.815536,2.661373,3.790846,-5.619294,0.003068,0.449850,-0.046895,-4.838341,188.489598,0
0.072917,-4.364411,162.648103,-171.277841,-0.363162,-0.119694,-5.446391,5.024486,0.341974,5.427556,-4.879262,-0.018850,0.462131,-0.054364,2.490538,188.345587,0
0.073960,-58.967208,188.247538,-111.989962,0.779148,2.319347,-5.902778,2.972232,-2.032560,5.914373,-2.997161,-0.080951,0.454422,-0.046895,4.695988,188.496570,0
0.075000,-119.921806,197.936423,-36.255114,2.204208,4.435313,-5.692443,0.837889,-4.197577,5.880799,-0.858895,-0.110175,0.440508,-0.035692,10.102168,188.496221,0
0.076042,-162.932568,150.688008,27.661553,3.391758,5.681461,-4.442339,-1.535263,-5.439981,4.680545,1.354085,-0.183235,0.444624,-0.031958,14.388658,188.497417,0
0.077084,-198.820239,77.187788,78.627462,4.353108,6.348913,-2.513607,-3.863637,-6.123670,2.775247,3.705822,-0.230724,0.442533,-0.054364,16.741138,188.345241,0
0.078125,-174.479233,16.106737,142.113258,5.551968,5.784419,-0.366603,-5.236782,-5.645823,0.693687,4.951068,-0.245336,0.455598,-0.046895,16.447078,188.496078,0
0.079167,-129.404136,-43.464200,188.819698,6.479388,4.627028,1.935175,-6.102459,-4.513692,-1.723608,5.993518,-0.285519,0.463568,-0.046895,12.703468,188.420622,0
0.080208,-59.205401,-101.150517,197.326326,6.637728,2.486210,4.054399,-5.945742,-2.396460,-3.826151,5.794278,-0.248989,0.450176,-0.046895,8.484838,188.496125,0
0.081250,4.754960,-162.110759,171.449432,6.174018,0.210482,5.590241,-5.046482,-0.102791,-5.458665,4.997320,-0.252642,0.461739,-0.043161,2.761978,188.420622,0
0.082292,58.427672,-188.302159,111.730682,5.009088,-2.260512,6.054565,-3.050199,2.326879,-5.916104,3.065410,-0.157664,0.424634,-0.073035,0.115438,188.496009,0
0.083333,118.973939,-196.541335,35.774243,3.629268,-4.316123,5.923602,-0.923318,4.502923,-5.853154,1.008974,-0.132093,0.437699,-0.076769,-4.872271,188.420698,0
0.084375,162.075441,-149.909046,-27.723864,2.419098,-5.509016,4.610001,1.483416,5.719597,-4.577359,-1.253816,-0.084604,0.440443,-0.024490,-9.373651,188.495982,0
0.085417,198.575608,-75.828942,-78.098864,1.469058,-6.204871,2.744766,3.778208,6.410638,-2.739208,-3.530838,-0.069992,0.443186,-0.046895,-12.280321,188.496051,0
0.086458,174.325342,-15.243209,-141.867803,0.224958,-5.643927,0.625543,5.099113,5.840896,-0.716402,-4.797432,-0.037115,0.450699,-0.043161,-11.590411,188.473094,0
0.087500,129.057422,43.397499,-189.017425,-0.713772,-4.493637,-1.763545,6.065538,4.741847,1.696696,-5.811418,-0.018850,0.460040,-0.065566,-7.869421,188.461084,0
0.088542,59.890854,101.132140,-197.351705,-0.883422,-2.345719,-3.906580,5.852850,2.646670,3.799240,-5.615736,0.006721,0.462588,-0.046895,-5.075851,188.478767,0
0.089583,-3.366271,162.720588,-171.511743,-0.385782,-0.091292,-5.430516,4.968515,0.301541,5.494703,-4.833010,-0.018850,0.459910,-0.046895,2.422678,188.625878,0
0.090625,-58.195918,188.320024,-112.470076,0.767838,2.354850,-5.890872,2.931187,-2.087697,5.922766,-2.975814,-0.062686,0.451287,-0.073035,4.537648,188.480962,0
0.091667,-119.944491,196.643767,-36.316667,2.181588,4.449514,-5.751972,0.841620,-4.201253,5.884996,-0.862453,-0.117481,0.439463,-0.046895,10.147408,188.490316,0
0.092708,-162.751088,150.748412,27.550758,3.369138,5.674360,-4.446308,-1.520337,-5.447332,4.642775,1.378990,-0.150358,0.441749,-0.035692,14.275558,188.489415,0
0.093750,-199.001719,76.692471,78.135038,4.364418,6.363114,-2.565199,-3.859906,-6.138373,2.729083,3.698706,-0.223418,0.442207,-0.050629,16.989958,188.420891,0
0.094792,-174.638028,15.490611,141.620834,5.551968,5.741815,-0.430101,-5.199468,-5.634795,0.697884,4.968858,-0.219765,0.461020,-0.013287,16.661968,188.496058,0
0.095833,-128.871039,-43.282987,189.102841,6.456768,4.651880,1.895489,-6.150967,-4.510016,-1.723608,5.965055,-0.256295,0.443382,-0.013287,12.884428,188.420623,0
0.096875,-58.899153,-100.643119,197.486364,6.637728,2.514612,4.074242,-5.953205,-2.392784,-3.859725,5.787162,-0.245336,0.436327,-0.039427,9.491428,188.496170,0
0.097917,4.698247,-162.400700,171.338637,6.174018,0.224683,5.606115,-5.083795,-0.088088,-5.483845,5.015110,-0.248989,0.476959,-0.035692,2.648878,188.420634,0
0.098958,58.246192,-188.060541,112.013826,5.054328,-2.214358,6.090282,-3.087513,2.319528,-5.937088,3.108104,-0.172276,0.433714,-0.054364,0.070198,188.496013,0
0.100000,119.076022,-196.686306,36.082008,3.663198,-4.333874,5.935508,-0.941975,4.499248,-5.890924,1.044553,-0.113828,0.442076,-0.046895,-4.928821,188.420745,0
0.101042,162.041414,-150.428525,-27.354546,2.453028,-5.601324,4.673498,1.475953,5.737975,-4.682277,-1.236027,-0.128440,0.446126,-0.054364,-9.249241,188.496036,0
0.102084,198.757088,-76.892062,-77.852652,1.480368,-6.265226,2.764609,3.778208,6.425341,-2.755995,-3.566417,-0.077298,0.448216,-0.050629,-12.325561,188.420611,0
0.103125,174.484137,-16.439218,-141.757008,0.247578,-5.651028,0.601731,5.110307,5.914411,-0.682828,-4.815221,0.010374,0.457754,-0.046895,-11.941021,188.420768,0
0.104167,129.760657,42.612241,-189.189773,-0.702462,-4.504288,-1.763545,6.054344,4.767577,1.696696,-5.871901,-0.011544,0.458799,-0.065566,-8.253961,188.420551,0
0.105208,60.582747,100.660984,-197.536364,-0.838182,-2.363470,-3.922455,5.882701,2.620939,3.845403,-5.658431,0.003068,0.463699,-0.058098,-4.815721,188.496060,0
0.106250,-3.060023,162.394404,-171.819508,-0.408402,-0.023837,-5.501951,5.020754,0.286838,5.532474,-4.900609,-0.015197,0.460498,-0.039427,2.433988,188.496056,0
0.107292,-57.866986,188.887826,-112.371591,0.745218,2.404554,-5.934527,2.942381,-2.117103,5.952143,-2.972256,-0.062686,0.451809,-0.069301,4.650748,188.420775,0
0.108333,-119.468106,196.969951,-36.168940,2.158968,4.495668,-5.736097,0.822963,-4.238010,5.864012,-0.855337,-0.099216,0.439006,-0.039427,10.000378,188.420732,0
0.109375,-162.739745,150.277257,27.415341,3.403068,5.688561,-4.454245,-1.576308,-5.484090,4.621791,1.435916,-0.161317,0.439920,-0.054364,14.377348,188.496114,0
0.110417,-199.126487,76.172992,77.839584,4.341798,6.348913,-2.517576,-3.919608,-6.164103,2.712296,3.695149,-0.227071,0.439267,-0.065566,16.797688,188.496089,0
0.111458,-174.479233,15.224831,141.522349,5.529348,5.763117,-0.445975,-5.195737,-5.579659,0.681097,4.947511,-0.219765,0.440247,-0.039427,16.458388,188.345287,0
0.112500,-128.893724,-43.234663,188.893561,6.445458,4.637679,1.911364,-6.143505,-4.476934,-1.761378,5.993518,-0.263601,0.447890,-0.069301,12.748708,188.420667,0
0.113542,-58.831098,-100.461906,197.424811,6.637728,2.518163,4.046462,-6.005444,-2.414838,-3.855528,5.815625,-0.230724,0.464417,-0.076769,8.575318,188.496045,0
0.114584,3.960984,-161.953707,171.621781,6.196638,0.217582,5.590241,-5.080064,-0.099116,-5.441878,5.011552,-0.245336,0.458603,-0.017021,2.863768,188.495980,0
0.115625,57.633697,-188.133026,112.457008,5.076948,-2.196607,6.050597,-3.042736,2.315852,-5.878334,3.115220,-0.201500,0.443317,-0.069301,0.217228,188.345277,0
0.116667,118.656349,-196.493012,36.869886,3.640578,-4.319673,5.919633,-0.919587,4.484545,-5.907711,1.062342,-0.146705,0.443970,-0.058098,-4.883581,188.493013,0
0.117708,162.166181,-150.899680,-26.751326,2.419098,-5.526768,4.625875,1.453565,5.675488,-4.627720,-1.204006,-0.091910,0.446387,-0.020755,-9.351031,188.496286,0
0.118750,198.507553,-77.798130,-77.643371,1.446438,-6.158717,2.768578,3.748357,6.384907,-2.755995,-3.491702,-0.084604,0.447041,-0.028224,-12.348181,188.495980,0
0.119792,174.881124,-16.741241,-141.264584,0.236268,-5.608424,0.617605,5.031948,5.811490,-0.741582,-4.697812,-0.033462,0.455598,-0.039427,-11.613031,188.345129,0
0.120833,129.624547,42.588079,-188.721970,-0.634602,-4.408430,-1.692110,5.961060,4.712441,1.654730,-5.726030,0.003068,0.466181,-0.017021,-7.892041,188.496038,0
0.121875,60.265157,100.165667,-197.499432,-0.826872,-2.338618,-3.843083,5.774491,2.595209,3.774059,-5.605063,0.006721,0.468010,-0.031958,-5.087161,188.496105,0
0.122917,-3.241503,162.237352,-171.462501,-0.351852,-0.084191,-5.359082,4.934933,0.334623,5.398180,-4.815221,-0.018850,0.457689,-0.013287,2.524468,188.496018,0
0.123958,-57.844301,187.993839,-112.999432,0.699978,2.344199,-5.771815,2.908799,-1.984776,5.838832,-2.926004,-0.095563,0.416860,-0.061832,4.492408,188.345171,0
0.125000,-118.651446,196.933708,-36.181250,2.136348,4.417562,-5.660694,0.837889,-4.182874,5.780079,-0.855337,-0.110175,0.434629,-0.043161,10.124788,188.420779,0
0.126042,-161.673550,151.352458,27.858523,3.391758,5.550100,-4.462182,-1.434516,-5.370141,4.630185,1.300718,-0.143052,0.434956,-0.031958,14.128528,188.496053,0
0.127083,-198.548019,76.668309,77.913447,4.364418,6.245955,-2.529482,-3.695726,-6.017073,2.733280,3.606202,-0.201500,0.440377,-0.043161,17.046508,188.496076,0
