1-Time,2-VGERA,3-VGERB,4-VGERC,5-VN,6-IGERAN,7-IGERBN,8-IGERCN,9-IGERAT,10-IGERBT,11-IGERCT,12-IN,13-IFD,14-IFAULT,15-VFAULT,16-Speed (rad/s),17-Active Power,18-Reactive Power,19-FAULT 
0.000000,-55.813230,-97.849087,199.170914,4.119912,-0.126379,6.011043,-4.942196,0.498552,-6.066978,4.398319,0.139360,0.316134,-0.007290,-51.770566,188.421770,1475.548177,-894.138141,0
0.001042,-3.935273,-156.856018,161.002513,3.399317,-2.401452,6.323157,-2.943409,2.766175,-6.291856,2.376355,0.055498,0.327364,-0.022156,-1.288239,188.421470,1475.131019,-892.730568,0
0.002083,46.134697,-203.765588,93.256943,1.665385,-4.438009,5.798805,-0.364702,4.855945,-5.745093,-0.152052,0.008098,0.317167,-0.029590,49.396739,188.496927,1474.916236,-891.665400,0
0.003125,117.538925,-181.262149,39.169853,1.046123,-5.553529,4.396369,2.020698,5.960115,-4.232674,-2.566224,-0.039302,0.320474,-0.029590,119.558618,188.420318,1474.907013,-891.110377,0
0.004166,182.671694,-132.355927,-13.288914,0.077824,-5.975518,2.511197,4.120004,6.323231,-2.341049,-4.515839,-0.057533,0.328398,-0.025873,181.873445,188.420282,1473.979400,-890.354968,0
0.005208,195.847407,-71.176169,-72.346039,-1.093144,-5.113192,-0.106405,5.554337,5.493251,0.317810,-6.031360,-0.093995,0.329018,-0.029590,189.664205,188.420359,1474.595825,-890.952157,0
0.006249,171.981965,-17.994764,-151.186084,-2.613149,-3.876580,-2.399408,6.362358,4.240871,2.588642,-6.739619,-0.075764,0.339491,-0.003573,166.888614,188.495607,1474.347274,-890.707334,0
0.007291,121.143601,33.812476,-190.994961,-3.322485,-1.799658,-4.134766,5.766974,2.110343,4.246570,-6.012321,-0.119518,0.344451,-0.040740,113.693031,188.344936,1474.110033,-889.733226,0
0.008333,56.519328,97.869761,-199.100126,-3.502634,0.765303,-5.957516,4.916426,-0.405533,6.089693,-5.109862,-0.086703,0.338664,-0.007290,51.772245,188.420296,1473.054156,-889.625820,0
0.009374,3.963375,156.759241,-160.725147,-2.793298,3.058724,-6.332053,2.921505,-2.650925,6.354256,-3.110745,-0.072118,0.329982,-0.011006,1.042234,188.420251,1473.265289,-888.888528,0
0.010416,-45.982295,203.598342,-91.995292,-1.498478,5.113629,-5.778570,0.389192,-4.781453,5.776626,-0.574723,-0.002841,0.344038,-0.029590,-48.809627,188.495732,1473.211960,-888.239046,0
0.011458,-117.397823,180.906982,-37.434286,-0.428845,6.262174,-4.363650,-2.034869,-5.833749,4.281845,1.835641,0.055498,0.317512,-0.011006,-119.219189,188.344836,1473.839966,-887.519862,0
0.012499,-182.530592,131.812840,14.307532,0.550714,6.654807,-2.478477,-4.110979,-6.263560,2.399039,3.796680,0.077375,0.324608,-0.025873,-181.365141,188.420269,1474.824271,-886.496211,0
0.013541,-195.717605,70.527377,72.623405,1.676644,5.810828,0.184902,-5.607170,-5.370591,-0.295095,5.274122,0.132068,0.330534,-0.029590,-189.155902,188.420260,1475.576039,-885.908520,0
0.014583,-172.134661,18.238592,151.439147,3.185390,4.537521,2.482066,-6.419057,-4.155263,-2.535062,6.024267,0.110191,0.327364,-0.014723,-166.819386,188.495698,1475.934179,-886.095931,0
0.015624,-121.431896,-33.580392,191.004990,3.917245,2.398219,4.213262,-5.827539,-2.009914,-4.316453,5.296969,0.088314,0.348930,-0.007290,-113.691352,188.420263,1477.140536,-886.284468,0
0.016666,-57.237020,-98.365868,199.110156,4.131172,-0.133718,5.981912,-4.934464,0.531899,-6.062569,4.417358,0.128422,0.336046,0.011294,-51.928183,188.344983,1477.312753,-887.031779,0
0.017708,-4.432469,-157.043938,160.832390,3.365539,-2.394113,6.360611,-2.924078,2.795817,-6.287447,2.349700,0.095606,0.336115,-0.025873,-0.882939,188.420162,1476.954032,-887.617574,0
0.018749,46.292896,-203.906528,92.710118,2.104498,-4.415992,5.827935,-0.376301,4.855945,-5.758321,-0.167284,0.022683,0.322266,-0.011006,49.385480,188.495758,1477.082528,-887.544235,0
0.019791,117.527625,-181.038994,38.015444,1.057383,-5.571876,4.388046,2.036162,5.956410,-4.179762,-2.558608,-0.028364,0.317787,-0.022156,119.446034,188.420278,1476.589015,-887.103023,0
0.020833,182.355296,-131.780421,-14.261048,0.044046,-5.993866,2.469581,4.104540,6.371400,-2.349868,-4.565341,-0.086703,0.321370,-0.033307,181.603245,188.269590,1477.301315,-887.331713,0
0.021874,195.632709,-69.661063,-72.467555,-1.070625,-5.127870,-0.152182,5.554337,5.463609,0.375132,-5.959011,-0.126811,0.333910,-0.003573,189.596655,188.420263,1476.205419,-886.509370,0
0.022916,171.789866,-16.726303,-151.040264,-2.534334,-3.755487,-2.428539,6.373956,4.200113,2.504864,-6.705348,-0.104934,0.290847,0.000144,166.742256,188.495794,1475.661428,-884.988057,0
0.023958,120.307406,34.270531,-190.946354,-3.356263,-1.759294,-4.122281,5.712848,2.114048,4.290664,-6.035168,-0.108580,0.339766,-0.029590,113.873164,188.495674,1476.093551,-885.065490,0
0.024999,56.078631,98.339561,-198.990761,-3.491375,0.809337,-5.936708,4.877765,-0.401828,6.023552,-5.155556,-0.075764,0.319992,-0.011006,52.537811,188.344834,1476.326589,-884.102195,0
0.026041,4.098974,156.900182,-160.834512,-2.804557,2.977995,-6.282115,2.952434,-2.613872,6.301343,-3.129785,-0.046595,0.348310,-0.011006,1.470051,188.418844,1476.052994,-883.363853,0
0.027083,-46.355192,203.422166,-92.712240,-1.543516,5.139315,-5.736955,0.358263,-4.729580,5.798673,-0.521413,0.015390,0.319647,-0.018440,-49.136118,188.495586,1475.765769,-883.491556,0
0.028124,-118.064518,180.801277,-38.297054,-0.473882,6.243826,-4.334519,-2.046468,-5.826339,4.250980,1.858488,0.077375,0.321921,0.003860,-119.545681,188.495564,1475.406046,-883.987307,0
0.029166,-182.892190,131.918545,14.271077,0.550714,6.643799,-2.461831,-4.134176,-6.219097,2.359354,3.792872,0.081021,0.324746,0.011294,-181.646599,188.344919,1474.728275,-884.078235,0
0.030208,-195.582006,70.245497,72.829983,1.676644,5.763125,0.193225,-5.553044,-5.289075,-0.374464,5.281738,0.088314,0.323299,0.000144,-189.088352,188.420301,1473.433255,-884.754888,0
0.031249,-171.784363,17.205032,151.499906,3.185390,4.497157,2.490389,-6.403592,-4.092274,-2.610021,6.001420,0.132068,0.322266,-0.025873,-166.155145,188.495682,1472.554537,-885.225198,0
0.032291,-120.279304,-34.296838,191.114356,3.939764,2.372532,4.188293,-5.719288,-1.946924,-4.303224,5.274122,0.132068,0.340180,0.000144,-112.711878,188.420256,1471.841747,-884.910025,0
0.033333,-55.440332,-98.682983,199.207369,4.097394,-0.137387,5.981912,-4.891937,0.539310,-6.036112,4.413550,0.081021,0.324057,-0.007290,-50.599701,188.344744,1471.771729,-884.043431,0
0.034374,-3.042578,-157.161388,160.492143,3.388058,-2.394113,6.318996,-2.885417,2.755059,-6.265400,2.345892,0.070083,0.325159,-0.022156,-0.061081,188.420757,1471.753093,-882.876420,0
0.035416,46.722293,-203.988744,91.956714,2.115757,-4.452687,5.811289,-0.353104,4.870767,-5.718637,-0.182515,0.019036,0.323781,-0.022156,49.835813,188.495691,1471.404927,-882.732655,0
0.036458,117.889222,-180.968524,37.978989,1.057383,-5.597563,4.338108,2.055493,5.960115,-4.228265,-2.581455,-0.042949,0.323988,-0.037023,119.997692,188.420251,1472.012797,-882.791458,0
0.037499,183.101091,-131.874382,-13.969408,0.055305,-6.026891,2.519520,4.100674,6.349168,-2.411599,-4.527262,-0.061180,0.329500,-0.044457,182.222453,188.269445,1472.492440,-881.956674,0
0.038541,195.553609,-70.964759,-73.148049,-1.104403,-5.168234,-0.123051,5.581400,5.478430,0.282534,-6.004705,-0.112226,0.333841,-0.025873,189.506589,188.420274,1473.638330,-881.889135,0
0.039583,171.981965,-18.112214,-151.890881,-2.635668,-3.894927,-2.407731,6.381688,4.281629,2.579823,-6.739619,-0.130457,0.342591,0.011294,166.922389,188.495703,1474.883393,-883.166869,0
0.040624,121.177501,34.129591,-191.080023,-3.356263,-1.762963,-4.151412,5.778573,2.058469,4.330349,-6.023744,-0.097641,0.350170,-0.029590,113.535414,188.420253,1474.538999,-884.384861,0
0.041666,56.677527,98.903322,-198.917851,-3.513893,0.761634,-5.936708,4.904828,-0.420354,6.080874,-5.155556,-0.064826,0.337286,-0.040740,51.682179,188.344887,1475.027234,-885.221997,0
0.042708,3.850376,157.381727,-160.081108,-2.748261,3.033038,-6.361184,2.909907,-2.702799,6.336618,-3.084090,-0.035656,0.324264,-0.033307,0.772035,188.420202,1475.009964,-886.351964,0
0.043749,-46.716790,203.774517,-91.582135,-1.464701,5.150323,-5.799377,0.342799,-4.833327,5.785445,-0.536644,0.026329,0.323437,-0.029590,-49.395060,188.420311,1475.621934,-886.817746,0
0.044791,-118.177518,180.378457,-36.972522,-0.451364,6.309877,-4.359488,-2.085129,-5.900444,4.233342,1.885143,0.084667,0.318752,0.026161,-119.872172,188.420211,1476.047284,-887.157857,0
0.045833,-183.265087,131.155119,14.988026,0.550714,6.636460,-2.453508,-4.130310,-6.263560,2.315260,3.819527,0.106545,0.320336,-0.014723,-181.488983,188.269460,1476.393651,-887.499236,0
0.046874,-195.356008,69.094486,73.230988,1.687904,5.796151,0.214032,-5.634233,-5.403938,-0.330370,5.316009,0.091960,0.329982,-0.029590,-189.020802,188.420332,1478.226953,-886.867000,0
0.047916,-171.863463,16.617781,151.657878,3.196650,4.537521,2.507035,-6.442253,-4.147853,-2.561518,6.024267,0.117483,0.315789,-0.029590,-166.673027,188.420184,1479.268154,-886.057559,0
0.048958,-120.008105,-34.426033,191.272327,3.939764,2.449591,4.246554,-5.819807,-1.954335,-4.325271,5.331240,0.117483,0.324677,-0.040740,-113.083402,188.420245,1480.102270,-886.291836,0
0.049999,-56.321726,-99.199763,199.037245,4.108653,-0.148395,6.065143,-4.938330,0.531899,-6.115481,4.417358,0.124775,0.328260,0.003860,-51.973216,188.269490,1480.854082,-887.137672,0
0.051041,-4.206471,-157.513739,160.224806,3.320502,-2.416130,6.368934,-2.943409,2.832870,-6.335950,2.383970,0.051852,0.335288,-0.018440,-0.905456,188.420240,1481.811899,-888.507466,0
0.052083,46.970891,-204.094449,92.515691,2.070720,-4.463695,5.840420,-0.376301,4.889293,-5.780368,-0.167284,0.019036,0.325366,-0.025873,50.072238,188.420305,1482.812375,-888.814681,0
0.053124,118.454219,-180.463488,38.088354,1.102420,-5.604902,4.429662,2.020698,6.008283,-4.250312,-2.581455,-0.061180,0.322197,-0.022156,120.425509,188.495725,1483.494921,-888.966868,0
0.054166,183.451389,-131.604246,-14.467626,0.021527,-6.019552,2.494551,4.116138,6.386221,-2.314592,-4.550110,-0.075764,0.325848,-0.033307,182.053578,188.269398,1483.293397,-889.847036,0
0.055208,195.214611,-69.496633,-73.281717,-1.104403,-5.138878,-0.168828,5.600731,5.493251,0.304581,-6.019936,-0.072118,0.328536,-0.018440,189.461555,188.420263,1483.376998,-889.559428,0
0.056249,171.789866,-16.444422,-151.684303,-2.601890,-3.894927,-2.445185,6.381688,4.237166,2.593051,-6.758658,-0.075764,0.331223,-0.048173,166.607156,188.420285,1483.203569,-889.375860,0
0.057291,119.685911,34.857782,-191.189388,-3.378782,-1.751955,-4.172219,5.759242,2.054764,4.299483,-6.023744,-0.093995,0.346656,-0.022156,112.432098,188.495721,1483.141720,-888.331240,0
0.058333,55.208537,99.079497,-199.173036,-3.581449,0.794659,-5.961677,4.893230,-0.387007,6.050008,-5.132709,-0.086703,0.319647,-0.025873,51.164296,188.269510,1482.991571,-887.212147,0
0.059374,3.127181,157.229042,-159.777316,-2.737001,3.055054,-6.319569,2.925371,-2.643514,6.371893,-3.141208,-0.021072,0.301527,0.000144,0.873360,188.495609,1483.939765,-886.027304,0
0.060416,-46.874989,203.950692,-91.582135,-1.464701,5.150323,-5.782731,0.369862,-4.748106,5.789855,-0.555683,-0.002841,0.327089,-0.025873,-49.676518,188.420368,1483.871482,-884.940047,0
0.061458,-118.550415,180.167047,-37.653016,-0.451364,6.269513,-4.359488,-2.011672,-5.900444,4.268617,1.847065,0.055498,0.320612,-0.022156,-120.390055,188.495674,1484.356876,-884.544518,0
0.062499,-183.683185,131.601430,14.392594,0.528196,6.695171,-2.436862,-4.107113,-6.226507,2.416676,3.811911,0.128422,0.327295,-0.029590,-182.063157,188.269293,1484.919548,-883.923305,0
0.063541,-195.288208,70.280732,73.729207,1.699163,5.774134,0.184902,-5.626501,-5.352064,-0.290685,5.277930,0.132068,0.332118,-0.018440,-188.941994,188.420222,1484.460888,-883.514528,0
0.064583,-171.897363,17.322482,152.338371,3.151613,4.515505,2.519520,-6.434521,-4.125621,-2.574746,6.043306,0.175822,0.336872,-0.007290,-166.245211,188.420216,1484.547533,-884.144120,0
0.065624,-120.290604,-34.555228,191.320934,3.962282,2.357855,4.200778,-5.812075,-1.972861,-4.329681,5.342664,0.168530,0.368429,-0.025873,-112.340353,188.495694,1484.931439,-884.154027,0
0.066666,-55.677631,-99.563859,199.195217,4.153690,-0.163073,6.085950,-4.919000,0.524489,-6.097844,4.390703,0.091960,0.340662,-0.018440,-50.689767,188.269460,1484.730595,-883.701193,0
0.067708,-3.166878,-157.666424,159.787346,3.331761,-2.408791,6.339804,-2.900881,2.792112,-6.327132,2.361123,0.088314,0.334185,0.022444,0.085277,188.344929,1484.588017,-882.803514,0
0.068749,47.321189,-204.611229,91.057491,2.059460,-4.522407,5.873712,-0.337640,4.907819,-5.802415,-0.167284,0.019036,0.321025,-0.033307,50.364955,188.420222,1485.179585,-882.449090,0
0.069791,118.454219,-180.357783,37.043310,1.046123,-5.604902,4.425500,2.055493,6.019399,-4.241493,-2.600494,-0.032010,0.319992,-0.029590,120.583125,188.495693,1485.228111,-882.366214,0
0.070833,183.925986,-130.735116,-14.637750,0.044046,-6.037899,2.482066,4.112272,6.397336,-2.376324,-4.565341,-0.075764,0.329293,-0.003573,182.481394,188.269481,1486.022421,-881.799522,0
0.071874,195.169412,-68.968108,-73.694874,-1.115662,-5.142548,-0.181313,5.627794,5.515483,0.335447,-6.012321,-0.097641,0.337768,-0.007290,189.292680,188.344880,1486.199367,-881.745961,0
0.072916,171.699467,-16.808518,-152.401252,-2.613149,-3.909605,-2.457669,6.455145,4.292745,2.615098,-6.823391,-0.126811,0.331292,-0.003573,166.832323,188.420336,1487.562570,-882.302991,0
0.073958,120.262207,34.728587,-191.408118,-3.356263,-1.792319,-4.205512,5.824966,2.099227,4.383261,-6.096093,-0.130457,0.343418,-0.048173,112.995014,188.495606,1489.119998,-883.347682,0
0.074999,56.530628,99.901648,-198.905699,-3.491375,0.735948,-6.044908,4.935757,-0.398123,6.164652,-5.212674,-0.104934,0.344796,-0.048173,51.941120,188.269604,1490.992529,-884.678480,0
0.076041,4.042475,158.274348,-159.206188,-2.748261,3.044046,-6.394476,2.940836,-2.699093,6.420396,-3.080283,-0.035656,0.314411,-0.025873,0.985943,188.420236,1491.013455,-886.068079,0
0.077083,-47.360886,204.408747,-91.181130,-1.487219,5.209035,-5.828508,0.362129,-4.818506,5.820720,-0.529029,0.015390,0.320750,-0.007290,-49.969234,188.420325,1491.776668,-886.893442,0
0.078125,-119.217111,179.521071,-37.008977,-0.462623,6.339233,-4.409427,-2.092861,-5.970844,4.295074,1.919414,0.040913,0.321714,-0.018440,-120.986746,188.495788,1492.575834,-887.694127,0
0.079166,-184.383780,130.661829,15.279666,0.561974,6.808925,-2.465992,-4.196034,-6.337665,2.359354,3.910915,0.106545,0.324539,0.003860,-182.040641,188.269574,1493.779436,-889.154134,0
0.080208,-194.926610,68.495491,74.178819,1.687904,5.821837,0.247325,-5.746351,-5.437286,-0.365645,5.395973,0.132068,0.328329,-0.003573,-188.863185,188.420303,1495.099398,-890.244160,0
0.081249,-171.784363,15.842610,152.204703,3.162872,4.585225,2.594427,-6.542773,-4.244190,-2.614431,6.134695,0.157591,0.334392,-0.048173,-166.267728,188.420350,1497.319535,-890.256119,0
0.082291,-118.426116,-35.177713,191.831304,3.962282,2.390880,4.321462,-5.831405,-1.972861,-4.387003,5.403589,0.117483,0.322128,-0.011006,-110.955579,188.495645,1498.323811,-890.256168,0
0.083333,-54.423339,-100.245069,199.183066,4.074875,-0.163073,6.119243,-4.976991,0.546720,-6.168394,4.520170,0.073729,0.330327,0.026161,-50.734801,188.269608,1500.501519,-890.305734,0
0.084374,-3.110378,-158.512064,158.693695,3.388058,-2.460163,6.431357,-2.989802,2.836575,-6.432957,2.425857,0.073729,0.326469,-0.048173,-0.601481,188.344885,1502.359743,-890.600878,0
0.085416,47.727986,-204.857874,91.567861,2.115757,-4.573780,5.931974,-0.356970,5.000451,-5.855328,-0.182515,0.019036,0.317649,-0.033307,50.646413,188.420265,1503.465021,-891.926253,0
0.086458,119.459912,-179.453417,38.100506,1.046123,-5.670952,4.429662,2.090288,6.037926,-4.298815,-2.653804,0.000805,0.324746,-0.037023,121.776508,188.495747,1504.067169,-892.501425,0
0.087499,184.886480,-131.310621,-14.564840,0.032786,-6.118628,2.523681,4.201193,6.452915,-2.420418,-4.633882,-0.072118,0.331705,-0.029590,182.706561,188.269485,1505.594525,-893.490378,0
0.088541,194.751314,-69.543613,-74.302458,-1.126922,-5.182912,-0.177151,5.666455,5.548830,0.331038,-6.149403,-0.064826,0.336735,-0.029590,189.416522,188.344833,1506.875911,-894.878709,0
0.089583,171.948065,-16.644088,-152.510617,-2.590631,-3.942630,-2.503446,6.574995,4.329798,2.676830,-6.861469,-0.104934,0.345347,0.000144,166.742256,188.420325,1507.683731,-895.693530,0
0.090624,118.906216,35.174897,-191.906336,-3.356263,-1.810667,-4.263773,5.817234,2.095522,4.449402,-6.107517,-0.097641,0.353133,-0.018440,111.182424,188.495687,1508.139210,-895.910142,0
0.091666,54.982538,100.383193,-199.173036,-3.480115,0.831354,-6.086523,4.962820,-0.438881,6.208746,-5.243137,-0.108580,0.333221,-0.011006,50.500054,188.344655,1508.924708,-896.069037,0
0.092708,2.968982,158.403543,-158.282661,-2.748261,3.132113,-6.361184,2.886710,-2.747262,6.442443,-3.129785,-0.064826,0.332394,0.003860,0.265410,188.344925,1509.724594,-895.731262,0
0.093749,-47.519085,204.902038,-89.990266,-1.475960,5.220043,-5.890931,0.350531,-4.903727,5.851586,-0.521413,0.000805,0.321646,-0.022156,-50.160626,188.420222,1510.594686,-896.306284,0
0.094791,-119.386610,179.109996,-36.279877,-0.440104,6.353910,-4.384457,-2.131522,-5.989370,4.321530,1.938453,0.081021,0.319923,-0.025873,-121.470854,188.495389,1511.027510,-896.172201,0
0.095833,-185.039176,130.074578,15.194604,0.550714,6.772230,-2.474316,-4.211498,-6.363602,2.368173,3.872837,0.132068,0.329362,-0.025873,-182.671107,188.269442,1511.469604,-895.609573,0
0.096874,-194.734512,69.035761,74.725644,1.744200,5.829176,0.209871,-5.742484,-5.444696,-0.343598,5.422628,0.143006,0.332807,0.003860,-188.818152,188.344939,1511.955353,-895.748380,0
0.097916,-171.840863,17.075836,153.164685,3.219168,4.596233,2.532004,-6.554371,-4.247895,-2.684981,6.108040,0.146652,0.343142,0.003860,-166.402828,188.420233,1511.855386,-896.792738,0
0.098958,-119.284910,-34.942813,191.904214,3.984801,2.387210,4.346431,-5.870067,-1.976566,-4.373775,5.395973,0.146652,0.336183,0.000144,-111.135712,188.495741,1511.823618,-896.996619,0
0.099999,-56.050528,-100.761850,199.098004,4.119912,-0.177751,6.152535,-5.011787,0.554131,-6.190441,4.485899,0.124775,0.340180,-0.022156,-50.982484,188.269279,1511.673802,-897.875990,0
0.101041,-3.912673,-158.688240,158.292690,3.275465,-2.482180,6.481296,-2.935677,2.921796,-6.424138,2.376355,0.084667,0.340524,-0.022156,-0.398831,188.344916,1510.943090,-899.240165,0
0.102083,47.863585,-205.268950,90.413452,2.059460,-4.606805,5.944458,-0.310577,4.978219,-5.846509,-0.228209,0.008098,0.328880,-0.044457,50.792771,188.420274,1510.602838,-898.991861,0
0.103124,119.584211,-179.195027,36.788125,1.012346,-5.696638,4.446308,2.132815,6.108326,-4.254721,-2.691883,-0.046595,0.320474,-0.014723,121.945383,188.495613,1510.738087,-899.553562,0
0.104166,185.361077,-129.912965,-15.014451,0.021527,-6.147983,2.527843,4.232122,6.493673,-2.363096,-4.679576,-0.083057,0.325917,-0.014723,182.965502,188.344952,1510.852756,-900.026564,0
0.105208,194.581816,-67.875822,-74.509036,-1.115662,-5.212268,-0.202120,5.763108,5.593294,0.419225,-6.187481,-0.086703,0.330051,-0.018440,189.168839,188.269460,1511.148661,-900.553636,0
0.106249,171.552568,-15.340391,-152.814408,-2.658186,-3.927952,-2.520092,6.559530,4.322387,2.676830,-6.907164,-0.134103,0.312964,-0.044457,166.550865,188.420207,1511.731471,-900.303451,0
0.107291,117.708424,35.550737,-192.331645,-3.412560,-1.751955,-4.313711,5.867493,2.095522,4.497905,-6.176058,-0.145042,0.353891,-0.018440,110.889708,188.495745,1512.780921,-900.526936,0
0.108333,55.027738,100.817758,-199.075823,-3.525153,0.849701,-6.173915,5.051741,-0.453702,6.252840,-5.265984,-0.061180,0.305799,-0.018440,51.828537,188.344851,1513.425689,-900.962774,0
0.109374,3.985975,159.437104,-157.565712,-2.737001,3.110096,-6.490191,2.964032,-2.773199,6.526222,-3.156439,-0.053887,0.355682,-0.003573,1.515084,188.269485,1514.635341,-901.669026,0
0.110416,-47.699883,205.007743,-90.524939,-1.453441,5.326458,-5.986646,0.308004,-4.948190,5.930955,-0.490950,0.037267,0.326055,-0.040740,-50.228176,188.420180,1515.609892,-902.702688,0
