1-Time,2-VGERA,3-VGERB,4-VGERC,5-VN,6-IGERAN,7-IGERBN,8-IGERCN,9-IGERAT,10-IGERBT,11-IGERCT,12-IN,13-IFD,14-IFAULT,15-VFAULT,16-Speed (rad/s),17-Active Power,18-Reactive Power,19-FAULT 
0.000000,91.082731,48.737259,-209.563826,-1.007832,-0.957560,-5.311459,5.707326,1.433672,5.247099,-5.590831,0.035945,0.318285,-0.020755,111.405836,188.646007,1542.257855,-926.269076,0
0.001042,42.264609,126.357067,-183.059091,-0.578052,1.669646,-6.414725,4.102837,-1.256977,6.422173,-4.032495,-0.007891,0.335335,-0.005818,44.801247,188.721424,1542.928515,-927.360699,0
0.002083,-6.746336,189.564357,-132.954925,0.338058,3.860168,-6.422662,1.957300,-3.477130,6.569057,-2.057890,-0.026156,0.325014,-0.009553,-22.063471,188.645920,1543.377613,-927.473266,0
0.003125,-64.808596,199.772721,-70.860227,1.536918,5.908678,-5.351145,-0.986751,-5.406899,5.427556,0.859545,-0.124787,0.305873,-0.031958,-83.555940,188.570635,1543.567621,-927.873726,0
0.004167,-145.862105,173.871263,-18.392424,2.532198,6.863703,-3.652591,-3.341246,-6.498597,3.941927,3.189934,-0.143052,0.306004,-0.054364,-140.286898,188.646056,1543.737340,-928.702802,0
0.005208,-188.203659,107.909527,29.212689,3.459618,6.352463,-1.176195,-5.206931,-6.031776,1.449092,4.887027,-0.186888,0.314888,-0.024490,-163.970038,188.721418,1544.040400,-929.820297,0
0.006250,-194.249212,52.107831,102.202273,4.828128,5.503947,1.375605,-6.471865,-5.223111,-1.131874,6.327955,-0.219765,0.319592,-0.024490,-171.491188,188.645998,1543.746376,-929.958013,0
0.007292,-151.238450,1.911675,170.267614,6.117468,3.675553,3.558326,-6.654702,-3.385236,-3.263794,6.441806,-0.230724,0.325471,0.001650,-149.312278,188.570638,1544.689917,-930.871590,0
0.008333,-92.382215,-48.562342,209.378410,6.841308,1.058998,5.471183,-5.759173,-0.826914,-5.265617,5.751584,-0.208806,0.326973,0.001650,-106.515239,188.646042,1544.279391,-931.998690,0
0.009375,-42.463870,-126.846600,183.206061,6.343668,-1.571758,6.566513,-4.251700,1.801247,-6.348364,4.196805,-0.183235,0.317893,-0.058098,-39.254671,188.721333,1545.086348,-932.569868,0
0.010417,6.898692,-189.389440,132.560228,5.438868,-3.762280,6.495078,-2.012878,4.047130,-6.528821,2.126138,-0.146705,0.322205,-0.035692,27.078478,188.645951,1544.151237,-933.098467,0
0.011458,64.654705,-199.923988,70.280871,4.285248,-5.810790,5.502932,0.919979,6.057766,-5.420895,-0.720139,-0.088257,0.305743,-0.046895,88.672737,188.570569,1544.673939,-934.281715,0
0.012500,145.367938,-173.188948,18.354735,3.289968,-6.680608,3.816284,3.199846,7.098003,-3.868118,-3.011393,-0.037115,0.307833,-0.028224,144.917365,188.645989,1543.689553,-934.924911,0
0.013542,188.049768,-107.408425,-29.422727,2.385168,-6.226173,1.371636,5.061799,6.612804,-1.421446,-4.694254,0.003068,0.320375,-0.031958,169.335655,188.721349,1543.991718,-935.403892,0
0.014583,193.732360,-52.645688,-102.560038,0.982728,-5.367005,-1.211912,6.323002,5.774733,1.151126,-6.103161,0.039598,0.323642,-0.035692,176.596675,188.570550,1543.458424,-935.533771,0
0.015625,151.492888,-1.942133,-170.317614,-0.329232,-3.513760,-3.331136,6.554347,3.870694,3.312423,-6.241917,0.024986,0.339124,-0.043161,153.987985,188.570593,1542.883478,-936.927793,0
0.016667,91.842678,48.990958,-209.317614,-1.007832,-0.904306,-5.319396,5.647624,1.330751,5.297459,-5.576600,0.035945,0.339973,-0.050629,110.908196,188.646076,1542.277286,-938.555460,0
0.017708,41.311839,126.852384,-182.997538,-0.555432,1.737101,-6.442505,4.087912,-1.275356,6.388599,-3.989800,-0.040768,0.322923,-0.017021,43.636317,188.721530,1541.732618,-938.168479,0
0.018750,-7.449571,189.818056,-131.883902,0.417228,3.902771,-6.367102,1.867747,-3.517563,6.552270,-1.936923,-0.055380,0.321878,-0.031958,-22.651591,188.570553,1540.649953,-938.794327,0
0.019792,-64.910679,200.002258,-69.912311,1.559538,5.915779,-5.295585,-1.050185,-5.465711,5.444343,0.916470,-0.099216,0.304044,-0.061832,-83.974410,188.570586,1540.997507,-939.598523,0
0.020833,-146.270435,173.460512,-18.515530,2.520888,6.774946,-3.680371,-3.307663,-6.498597,3.899960,3.133009,-0.179582,0.307180,-0.020755,-140.569648,188.721411,1540.673969,-939.014409,0
0.021875,-188.373796,108.610219,29.434280,3.436998,6.320511,-1.132540,-5.162154,-5.998695,1.419715,4.919048,-0.183235,0.318873,-0.031958,-164.524228,188.721418,1540.387521,-939.750988,0
0.022917,-194.158472,53.267598,102.940909,4.828128,5.457793,1.399416,-6.483059,-5.193705,-1.123481,6.363534,-0.248989,0.323707,-0.005818,-171.683458,188.570651,1540.528721,-940.378384,0
0.023958,-151.306505,1.682138,170.206061,6.094848,3.604548,3.558326,-6.673359,-3.337452,-3.293171,6.388439,-0.234377,0.326712,-0.009553,-148.724158,188.570622,1539.559361,-940.621623,0
0.025000,-90.987087,-48.936850,209.513826,6.818688,1.041247,5.459278,-5.759173,-0.834266,-5.290797,5.687543,-0.205153,0.347616,-0.050629,-105.474719,188.721400,1539.062928,-940.101671,0
0.026042,-40.728467,-126.737872,182.972160,6.422838,-1.575308,6.578418,-4.218118,1.882114,-6.386134,4.154111,-0.150358,0.306853,-0.013287,-38.564761,188.721425,1538.711675,-940.647464,0
0.027083,7.454475,-189.848514,132.030872,5.427558,-3.751629,6.510952,-2.012878,4.065509,-6.507838,2.154601,-0.135746,0.311557,-0.039427,27.417778,188.570604,1539.026596,-940.195450,0
0.028125,65.097062,-199.621966,70.871781,4.285248,-5.753986,5.467215,0.908785,6.024684,-5.362141,-0.720139,-0.055380,0.304175,-0.013287,88.966796,188.495242,1538.195837,-939.955396,0
0.029167,146.195941,-173.382242,18.982576,3.289968,-6.652206,3.792472,3.248354,7.101679,-3.817758,-3.022066,-0.033462,0.309727,-0.031958,145.437625,188.721462,1537.950299,-940.567060,0
0.030208,188.140508,-107.529234,-29.681250,2.351238,-6.215522,1.296233,5.084188,6.557668,-1.371086,-4.722717,0.010374,0.319526,-0.031958,169.188625,188.721422,1537.169225,-941.125223,0
0.031250,193.607593,-51.920833,-102.793940,0.994038,-5.292449,-1.211912,6.378973,5.749003,1.172110,-6.145856,0.079781,0.306984,-0.035692,175.985935,188.570535,1537.199024,-941.423568,0
0.032292,150.188501,-0.939418,-170.846970,-0.317922,-3.439204,-3.394633,6.539422,3.863343,3.333407,-6.256149,0.017680,0.336641,-0.024490,153.071875,188.495285,1537.416259,-940.997248,0
0.033333,90.300098,49.292980,-209.391478,-1.030452,-0.875903,-5.315427,5.599117,1.290318,5.347819,-5.526790,0.014027,0.342913,-0.035692,110.376626,188.721436,1536.813245,-941.129355,0
0.034375,40.790084,127.746371,-182.480493,-0.476262,1.765504,-6.454411,4.087912,-1.319465,6.422173,-4.000474,0.021333,0.316260,-0.039427,43.444047,188.721456,1537.351178,-941.386501,0
0.035417,-7.506284,189.443548,-132.327084,0.405918,3.924073,-6.355196,1.871478,-3.546969,6.564860,-1.944039,-0.077298,0.317762,-0.043161,-22.459321,188.570604,1537.504629,-941.841727,0
0.036458,-66.056271,199.845206,-70.380114,1.548228,5.944181,-5.299553,-1.046453,-5.462035,5.435950,0.937817,-0.106522,0.307310,-0.039427,-84.800040,188.494853,1537.602848,-941.925732,0
0.037500,-146.157010,173.194732,-17.887689,2.509578,6.853052,-3.608936,-3.348708,-6.494921,3.891567,3.218397,-0.132093,0.307114,-0.043161,-140.467858,188.721440,1537.381631,-942.624343,0
0.038542,-189.315224,106.846407,29.815909,3.436998,6.377315,-1.096823,-5.214393,-5.987667,1.407125,4.965300,-0.216112,0.314953,-0.031958,-164.592088,188.721364,1537.653260,-942.505493,0
0.039583,-193.670744,51.672919,102.891667,4.828128,5.464894,1.423228,-6.512910,-5.171651,-1.190628,6.352860,-0.256295,0.314627,-0.028224,-170.959618,188.570613,1536.971988,-942.406198,0
0.040625,-149.831980,1.392196,171.584849,6.117468,3.625849,3.590075,-6.665896,-3.274964,-3.360318,6.438248,-0.259948,0.328541,-0.009553,-148.701538,188.495278,1537.174428,-943.235425,0
0.041667,-91.145882,-49.190549,208.959849,6.852618,0.998644,5.514838,-5.762905,-0.801184,-5.278207,5.701774,-0.234377,0.320049,-0.039427,-105.678299,188.721364,1536.949080,-943.312705,0
0.042708,-41.726608,-128.211742,182.676705,6.366288,-1.621462,6.630010,-4.199461,1.900492,-6.415511,4.136322,-0.201500,0.320179,-0.035692,-38.123671,188.646029,1537.354425,-943.985056,0
0.043750,7.204940,-189.220307,132.080114,5.450178,-3.797782,6.487141,-1.956907,4.109618,-6.491051,2.097675,-0.146705,0.324687,-0.043161,27.463018,188.570611,1536.405963,-944.882657,0
0.044792,65.788955,-200.081040,69.677652,4.251318,-5.839192,5.455309,1.028188,6.127605,-5.366338,-0.787738,-0.073645,0.298753,-0.028224,89.860286,188.495151,1537.095953,-946.053260,0
0.045833,145.855666,-172.596983,17.726894,3.256038,-6.677058,3.776598,3.225965,7.101679,-3.805168,-3.032740,-0.048074,0.305808,-0.046895,145.132255,188.721431,1536.863968,-945.552692,0
0.046875,188.979853,-106.067445,-29.878220,2.373858,-6.229723,1.312108,5.136427,6.565019,-1.371086,-4.786758,-0.000585,0.318154,-0.050629,169.527925,188.646082,1537.424918,-945.741005,0
0.047917,193.176578,-51.546325,-103.101705,0.994038,-5.296000,-1.255566,6.296883,5.760030,1.167913,-6.106719,0.028639,0.325014,-0.035692,176.065105,188.570700,1537.278300,-945.034516,0
0.048958,150.245213,-1.640111,-171.634849,-0.329232,-3.449855,-3.394633,6.509571,3.826585,3.312423,-6.249033,0.035945,0.336249,-0.031958,153.897505,188.495238,1537.013658,-945.249625,0
0.050000,91.672541,49.558760,-208.874432,-1.041762,-0.858152,-5.347176,5.587923,1.316048,5.322639,-5.480538,0.006721,0.328280,-0.005818,110.455796,188.721427,1536.535798,-945.105202,0
0.051042,41.266469,128.000070,-182.640531,-0.578052,1.776155,-6.434568,4.005822,-1.326816,6.434763,-3.936433,-0.026156,0.326124,-0.039427,42.901168,188.570580,1535.997811,-945.716213,0
0.052083,-7.767161,189.685166,-131.305303,0.383298,3.924073,-6.315511,1.822970,-3.535942,6.480926,-1.912018,-0.037115,0.324295,-0.035692,-23.013511,188.570555,1534.834177,-945.012449,0
0.053125,-65.999559,199.990177,-68.902841,1.559538,5.947731,-5.263836,-1.076304,-5.458359,5.356213,0.923586,-0.110175,0.301823,-0.013287,-85.173270,188.495161,1534.064914,-944.308060,0
0.054167,-146.304462,172.771900,-17.358333,2.543508,6.799798,-3.600999,-3.318857,-6.461839,3.841206,3.182819,-0.139399,0.305743,-0.050629,-140.773228,188.721324,1533.347961,-943.564750,0
0.055208,-189.133744,107.088025,29.975947,3.482238,6.341812,-1.084917,-5.210662,-5.965613,1.348371,4.911932,-0.219765,0.319396,0.016587,-164.920078,188.721367,1532.462776,-943.431065,0
0.056250,-193.648059,52.929333,103.741099,4.873368,5.436491,1.407354,-6.479328,-5.116515,-1.207415,6.306608,-0.252642,0.322466,-0.046895,-171.559048,188.570589,1531.668977,-943.666680,0
0.057292,-150.580585,1.742542,171.400190,6.106158,3.558394,3.629760,-6.609926,-3.278640,-3.318351,6.384881,-0.234377,0.333636,0.016587,-148.588438,188.495253,1531.162042,-943.244787,0
0.058333,-90.964402,-49.480491,209.132198,6.818688,0.934739,5.510869,-5.725591,-0.705615,-5.290797,5.648406,-0.248989,0.326255,-0.024490,-104.886599,188.721373,1530.080662,-944.047038,0
0.059375,-40.467590,-127.776830,182.615152,6.366288,-1.653414,6.594293,-4.150953,1.889465,-6.356757,4.086512,-0.183235,0.315215,-0.050629,-37.648651,188.645975,1529.003895,-943.130980,0
0.060417,8.021600,-189.739786,131.316856,5.438868,-3.765830,6.510952,-1.897206,4.127997,-6.491051,2.054981,-0.132093,0.310185,-0.009553,28.005898,188.570611,1528.965288,-943.116670,0
0.061458,65.891037,-199.839422,69.566856,4.228698,-5.771737,5.467215,0.972218,6.054090,-5.357944,-0.780623,-0.044421,0.303326,-0.028224,89.905526,188.570602,1528.461742,-942.205135,0
0.062500,146.309366,-172.814440,18.268561,3.301278,-6.677058,3.780567,3.263279,7.086976,-3.826151,-3.014950,-0.015197,0.310838,-0.039427,145.641205,188.721407,1528.709692,-942.031464,0
0.063542,188.798373,-107.203050,-30.025947,2.396478,-6.169368,1.256547,5.087919,6.513559,-1.345906,-4.765411,0.003068,0.320898,-0.058098,169.765435,188.570531,1527.953616,-942.241515,0
0.064583,193.176578,-51.872510,-103.557197,0.948798,-5.288899,-1.243660,6.334197,5.693866,1.230864,-6.113835,0.028639,0.320833,-0.039427,175.952005,188.570589,1527.154058,-943.151308,0
0.065625,149.473923,-0.661558,-171.881061,-0.306612,-3.393051,-3.394633,6.487183,3.782476,3.337603,-6.217013,0.039598,0.330631,-0.043161,152.811745,188.570642,1526.543694,-942.907985,0
0.066667,90.084591,49.860783,-209.169887,-1.030452,-0.804898,-5.291616,5.587923,1.319724,5.335229,-5.487654,0.006721,0.303195,-0.031958,109.630166,188.721465,1526.812991,-942.349394,0
0.067708,39.916711,128.640358,-182.271213,-0.544122,1.804557,-6.430600,4.020747,-1.356222,6.426369,-3.950664,-0.051727,0.315149,-0.058098,42.335668,188.570562,1527.106690,-941.836210,0
0.068750,-8.311601,189.443548,-131.477652,0.405918,3.952475,-6.307573,1.781925,-3.598430,6.514500,-1.901344,-0.044421,0.325667,-0.020755,-22.990891,188.570580,1527.513593,-942.618157,0
0.069792,-67.043069,199.893530,-69.863068,1.559538,5.951282,-5.271773,-1.113618,-5.469387,5.368803,0.927144,-0.113828,0.306069,-0.046895,-85.636980,188.645948,1527.998676,-942.893362,0
0.070833,-146.429230,172.808143,-17.789205,2.520888,6.778497,-3.581156,-3.412142,-6.465515,3.824420,3.239744,-0.164970,0.307049,-0.024490,-140.660128,188.721398,1527.761448,-943.811286,0
0.071875,-189.780267,106.508142,30.172917,3.470928,6.316960,-1.045231,-5.274095,-5.972964,1.327387,4.968858,-0.183235,0.315541,-0.020755,-164.886148,188.570647,1528.133450,-944.429442,0
0.072917,-193.160332,51.286330,103.617993,4.850748,5.404539,1.451008,-6.479328,-5.145921,-1.232595,6.306608,-0.238030,0.317632,-0.002084,-170.620318,188.570622,1528.261724,-943.897088,0
0.073958,-149.026662,0.848555,172.286554,6.162708,3.579696,3.621823,-6.669628,-3.289667,-3.372908,6.416901,-0.267254,0.340757,-0.058098,-147.955078,188.645754,1528.924254,-943.822005,0
0.075000,-90.091030,-49.685866,208.713637,6.807378,0.987993,5.502932,-5.740517,-0.705615,-5.311781,5.687543,-0.223418,0.321225,-0.043161,-104.841359,188.721132,1529.342062,-943.603004,0
0.076042,-40.626385,-128.839949,182.356629,6.354978,-1.653414,6.641916,-4.143490,1.911520,-6.407117,4.136322,-0.175929,0.314627,-0.035692,-37.626031,188.570367,1530.595898,-943.969148,0
0.077083,7.942202,-189.111579,131.686175,5.404938,-3.787131,6.455392,-1.889743,4.116970,-6.432297,2.037192,-0.150358,0.322074,-0.039427,27.881488,188.570329,1529.555860,-943.856675,0
0.078125,66.843807,-200.068959,69.628409,4.240008,-5.810790,5.407686,1.016994,6.076144,-5.391518,-0.787738,-0.091910,0.303848,-0.028224,90.708536,188.645701,1530.442643,-944.003573,0
0.079167,145.935063,-172.234556,17.406818,3.278658,-6.630904,3.709132,3.259548,7.061246,-3.754807,-3.061202,-0.026156,0.305416,-0.031958,145.279285,188.722087,1529.280797,-944.224144,0
0.080208,189.467580,-105.596290,-30.222917,2.362548,-6.222622,1.208924,5.140158,6.517235,-1.324922,-4.793874,-0.000585,0.316391,0.005384,169.674955,188.570881,1529.440931,-944.107860,0
0.081250,192.745563,-50.616096,-103.569508,0.971418,-5.217894,-1.275409,6.326734,5.679163,1.235060,-6.106719,0.028639,0.325667,-0.024490,175.510915,188.495531,1529.157192,-943.498426,0
0.082292,149.235731,-0.685719,-172.213447,-0.306612,-3.425003,-3.362884,6.505840,3.811882,3.337603,-6.256149,0.043251,0.341606,-0.009553,153.388555,188.646342,1529.920815,-943.490602,0
0.083333,91.048703,50.174886,-208.542046,-1.019142,-0.797797,-5.319396,5.528221,1.297669,5.305852,-5.469865,0.014027,0.319330,-0.002084,110.071256,188.721715,1529.368914,-943.558623,0
0.084375,40.982906,128.990704,-182.308144,-0.532812,1.825858,-6.430600,3.990896,-1.337844,6.422173,-3.915086,-0.000585,0.323184,-0.039427,42.188638,188.570850,1529.034455,-943.857139,0
0.085417,-8.266231,189.612681,-131.022159,0.439848,3.938274,-6.283762,1.759537,-3.539618,6.438959,-1.815956,-0.066339,0.317893,-0.065566,-23.465911,188.495432,1527.372549,-943.367130,0
0.086458,-66.986356,199.990177,-68.459659,1.604778,5.926430,-5.236056,-1.136006,-5.458359,5.339426,0.984069,-0.117481,0.302084,-0.058098,-86.021520,188.646270,1526.731994,-943.325909,0
0.087500,-146.678765,172.228260,-16.471970,2.577438,6.750094,-3.553376,-3.348708,-6.417730,3.774059,3.175703,-0.157664,0.305351,-0.013287,-140.988118,188.721699,1526.077807,-941.820922,0
0.088542,-189.496704,105.879935,30.628409,3.470928,6.253055,-1.005545,-5.199468,-5.910477,1.277027,4.933279,-0.205153,0.315868,-0.024490,-164.999248,188.570933,1524.856558,-941.268251,0
0.089583,-193.251072,51.902456,104.307387,4.918608,5.354835,1.439102,-6.412163,-5.076081,-1.203218,6.260356,-0.227071,0.315672,-0.031958,-171.412018,188.495423,1524.108720,-940.820202,0
0.090625,-149.990775,1.452601,172.101894,6.162708,3.508690,3.613886,-6.609926,-3.197773,-3.351925,6.367091,-0.216112,0.329456,-0.013287,-148.430098,188.721721,1522.693552,-941.351411,0
0.091667,-91.021115,-50.108698,208.701326,6.784758,0.941839,5.483089,-5.639770,-0.687236,-5.269814,5.627059,-0.219765,0.329064,-0.013287,-104.456819,188.721668,1521.862551,-941.282021,0
0.092708,-40.115972,-128.574169,182.258144,6.388908,-1.660515,6.594293,-4.072594,1.922547,-6.356757,4.054491,-0.190541,0.319788,-0.013287,-36.823021,188.570913,1520.415857,-941.061226,0
0.093750,8.656780,-189.691463,130.775190,5.393628,-3.755179,6.387926,-1.859892,4.105942,-6.411314,1.987382,-0.106522,0.292547,-0.050629,28.684498,188.495492,1520.031732,-940.671067,0
0.094792,66.855150,-199.706532,68.360417,4.240008,-5.789488,5.387843,1.016994,6.087172,-5.269814,-0.833990,-0.117481,0.302411,-0.002084,90.900806,188.721672,1518.370783,-940.708783,0
0.095834,146.366078,-172.089585,17.062121,3.256038,-6.577650,3.697226,3.244622,7.031840,-3.788381,-3.036298,-0.026156,0.307245,-0.046895,145.890025,188.646165,1518.703253,-939.863339,0
0.096875,189.320128,-106.236578,-30.801515,2.373858,-6.183569,1.161301,5.095382,6.462098,-1.282955,-4.758295,0.017680,0.319788,-0.024490,170.149975,188.570895,1517.828720,-939.747677,0
0.097917,192.949728,-51.824186,-104.468182,0.914868,-5.210793,-1.255566,6.300614,5.646082,1.155323,-6.078256,0.050557,0.328802,-0.017021,175.963315,188.493487,1517.903741,-939.107336,0
0.098958,149.042908,-0.456182,-172.693561,-0.374472,-3.378849,-3.418444,6.442406,3.756746,3.362784,-6.199223,0.024986,0.331350,-0.020755,152.619475,188.721663,1516.986258,-939.265651,0
0.100000,89.948481,50.633961,-208.911364,-1.030452,-0.794247,-5.311459,5.487176,1.231506,5.347819,-5.420055,0.035945,0.329913,-0.024490,108.974186,188.721677,1516.361808,-939.752092,0
0.101042,39.531066,129.425617,-182.135796,-0.566742,1.832959,-6.426631,3.983433,-1.345195,6.359222,-3.915086,-0.011544,0.280005,-0.039427,41.442178,188.570845,1516.085828,-938.657465,0
0.102083,-8.992151,189.358982,-130.800569,0.394608,3.956025,-6.259950,1.740880,-3.546969,6.472533,-1.815956,-0.051727,0.284512,-0.024490,-23.545081,188.495419,1516.512500,-938.533625,0
0.103125,-67.859729,199.784802,-68.779735,1.559538,5.990335,-5.240024,-1.143469,-5.480414,5.339426,0.976954,-0.121134,0.305939,-0.020755,-86.564400,188.721645,1516.900410,-938.571781,0
0.104167,-146.769505,172.312826,-16.902841,2.554818,6.792698,-3.529565,-3.397216,-6.458163,3.774059,3.207724,-0.183235,0.306265,-0.031958,-141.146458,188.646210,1517.196138,-939.394002,0
0.105208,-190.290679,106.290686,30.899243,3.470928,6.334712,-0.981734,-5.274095,-5.954586,1.302207,4.990205,-0.219765,0.316783,-0.020755,-165.462958,188.570855,1518.505214,-940.123358,0
0.106250,-192.910797,51.201763,104.528978,4.884678,5.333533,1.486725,-6.430820,-5.083433,-1.249382,6.274587,-0.216112,0.318873,-0.043161,-170.665558,188.495550,1518.523144,-940.352997,0
0.107292,-148.584305,0.437805,173.123675,6.162708,3.512241,3.625792,-6.591269,-3.227179,-3.389695,6.413343,-0.263601,0.324687,-0.043161,-147.661018,188.721675,1519.622359,-940.081310,0
0.108333,-89.489877,-50.543610,208.541289,6.807378,0.902786,5.514838,-5.643501,-0.643127,-5.332764,5.602154,-0.219765,0.308029,-0.024490,-103.755599,188.646252,1519.322460,-940.348310,0
0.109375,-39.435422,-129.709774,182.135038,6.354978,-1.685367,6.598261,-4.121102,1.985035,-6.377740,4.100743,-0.168623,0.293331,-0.043161,-36.574201,188.570783,1520.316142,-940.627419,0
0.110417,8.770205,-189.111579,131.242993,5.416248,-3.780031,6.431581,-1.874817,4.135348,-6.402921,2.012287,-0.161317,0.320571,-0.002084,28.367818,188.495434,1520.340014,-940.836470,0
