1-Time,2-VGERA,3-VGERB,4-VGERC,5-VN,6-IGERAN,7-IGERBN,8-IGERCN,9-IGERAT,10-IGERBT,11-IGERCT,12-IN,13-IFD,14-IFAULT,15-VFAULT,16-Speed (rad/s),17-Active Power,18-Reactive Power,19-FAULT 
0.000000,74.692818,85.390722,-202.989963,-0.951282,-2.643942,-3.339073,5.580460,2.826781,3.262063,-5.441402,-0.015197,0.435413,-0.024490,-116.162669,188.495792,1626.183193,-22.219343,0
0.001040,15.246772,144.248886,-171.881061,-0.351852,-0.574130,-5.109061,5.084188,0.816146,4.995297,-4.953977,-0.026156,0.429207,-0.005818,-103.789529,188.722014,1626.390315,-22.914275,0
0.002082,-44.335383,189.467710,-125.322349,0.519018,1.705149,-6.121050,3.789402,-1.481198,6.136797,-3.765656,-0.037115,0.444428,-0.058098,-84.483360,188.571118,1625.990486,-23.168662,0
0.003133,-101.115940,193.998049,-48.787311,1.966698,3.828215,-5.926589,1.464759,-3.638863,5.872406,-1.545560,-0.069992,0.438875,-0.028224,-35.431891,188.481074,1626.655188,-23.594494,0
0.004166,-161.628180,169.860402,16.569697,3.244728,5.120517,-4.950318,-0.587495,-4.973160,5.028871,0.471739,-0.143052,0.440573,-0.020755,4.379308,188.570606,1626.010737,-23.691408,0
0.005207,-183.700686,100.975088,69.702273,4.217388,5.727614,-3.120801,-2.886019,-5.564956,3.236883,2.634910,-0.179582,0.436850,0.009119,37.121758,188.646513,1625.742261,-24.045006,0
0.006249,-192.286959,28.465502,131.230682,5.393628,5.653058,-1.207943,-4.430806,-5.609065,1.331584,4.310656,-0.223418,0.442141,-0.009553,73.743537,188.571042,1625.772838,-23.877027,0
0.007290,-149.321567,-35.599532,175.561175,6.241878,4.438863,1.042244,-5.270364,-4.329904,-0.825516,5.000878,-0.245336,0.437895,-0.043161,103.669796,188.512040,1625.448522,-23.172314,0
0.008332,-74.926106,-85.070834,202.767614,6.728208,2.727629,3.510703,-5.733054,-2.635383,-3.398089,5.637733,-0.252642,0.430971,-0.031958,121.313396,188.496226,1625.958754,-23.714936,0
0.009374,-15.820336,-144.315587,171.806440,6.151398,0.657817,5.217194,-5.259170,-0.606369,-5.085159,5.107614,-0.252642,0.438352,-0.024490,108.589646,188.721405,1626.423423,-23.657439,0
0.010415,43.920614,-189.268631,126.244887,5.325768,-1.578858,6.241089,-3.927071,1.643190,-6.205676,3.929966,-0.179582,0.449719,-0.043161,88.503087,188.570617,1626.549135,-22.241571,0
0.011457,100.156731,-193.871455,51.839583,3.957258,-3.719676,6.026785,-1.684517,3.764098,-6.012628,1.731217,-0.146705,0.447694,-0.024490,42.550558,188.495264,1628.154868,-21.224341,0
0.012499,161.882619,-169.951265,-14.920833,2.679228,-5.026179,5.137822,0.423707,5.193964,-5.173290,-0.325218,-0.139399,0.453051,-0.058098,0.432118,188.495202,1628.692994,-20.037601,0
0.013549,183.989152,-100.582715,-70.281629,1.582158,-5.661678,3.224965,2.815515,5.789436,-3.293171,-2.570220,-0.069992,0.447171,-0.024490,-32.457361,188.628658,1629.861547,-19.947516,0
0.014582,191.940245,-29.812779,-131.797728,0.371988,-5.633276,1.379573,4.285674,5.800463,-1.446626,-4.153461,-0.040768,0.449980,-0.009553,-69.452370,188.570564,1630.418552,-19.255586,0
0.015624,150.211186,35.303294,-175.721970,-0.453642,-4.376478,-0.886488,5.114039,4.576438,0.727260,-4.861473,-0.018850,0.452724,-0.028224,-98.892299,188.495115,1630.824094,-18.960345,0
0.016665,76.190028,85.439045,-202.596023,-0.928662,-2.682995,-3.311293,5.580460,2.856187,3.262063,-5.501885,-0.004238,0.452136,-0.020755,-116.728169,188.495175,1631.837795,-19.078062,0
0.017707,16.369680,144.393857,-171.782576,-0.351852,-0.556378,-5.105093,5.140158,0.819822,4.953330,-4.989555,-0.037115,0.452724,-0.020755,-104.762189,188.646082,1631.877893,-18.927162,0
0.018749,-44.040478,189.648923,-125.470076,0.496398,1.662546,-6.140893,3.781939,-1.470171,6.132601,-3.811908,-0.040768,0.438091,-0.054364,-86.021520,188.588542,1632.231291,-18.515350,0
0.019790,-100.321965,193.804754,-50.609280,1.910148,3.760760,-5.874998,1.543118,-3.569024,5.905979,-1.602485,-0.080951,0.447694,-0.039427,-37.592101,188.495725,1632.300044,-17.992468,0
0.020832,-162.388128,169.763755,16.200379,3.176868,5.095665,-4.926506,-0.602420,-4.965809,5.049854,0.457508,-0.161317,0.443382,-0.017021,5.035288,188.495743,1632.628196,-17.626808,0
0.021874,-183.417124,101.446243,70.083902,4.206078,5.695662,-3.108895,-2.859899,-5.553929,3.266260,2.595774,-0.197847,0.441553,-0.039427,36.952108,188.722005,1632.564321,-16.953165,0
0.022915,-192.230247,28.513826,131.858523,5.404938,5.670810,-1.168257,-4.423343,-5.542902,1.327387,4.221710,-0.186888,0.430252,-0.039427,74.931087,188.571256,1631.186917,-16.371381,0
0.023966,-148.448195,-36.952593,176.201326,6.264498,4.385609,1.077961,-5.262901,-4.300498,-0.871680,5.032899,-0.227071,0.457819,-0.009553,104.110886,188.481885,1631.417109,-16.465054,0
0.024999,-74.302269,-85.493666,203.075379,6.750828,2.734730,3.474986,-5.706934,-2.642735,-3.372908,5.573692,-0.248989,0.446583,-0.013287,122.037236,188.571382,1630.631979,-15.852442,0
0.026040,-14.799511,-144.013565,171.831061,6.174018,0.654267,5.169571,-5.247976,-0.643127,-5.009619,5.040015,-0.256295,0.445538,-0.050629,110.308766,188.646409,1629.111706,-14.962135,0
0.027082,44.601164,-189.800191,125.087690,5.303148,-1.557557,6.225214,-3.941996,1.679947,-6.197283,3.915735,-0.197847,0.417644,-0.020755,88.717977,188.569049,1629.018222,-14.892434,0
0.028124,99.952566,-193.859374,50.042235,3.900708,-3.623819,5.959319,-1.669592,3.753070,-5.970661,1.706312,-0.139399,0.441684,-0.031958,41.657068,188.495009,1628.104676,-14.620297,0
0.029165,161.757851,-169.407625,-16.311932,2.667918,-5.036829,5.038608,0.423707,5.168234,-5.135519,-0.343008,-0.143052,0.441880,-0.017021,0.613078,188.584982,1627.298443,-14.351211,0
0.030207,182.934300,-100.776009,-69.961553,1.661328,-5.640377,3.240839,2.755813,5.749003,-3.339335,-2.509736,-0.069992,0.446126,-0.028224,-32.163301,188.570300,1626.457380,-13.410871,0
0.031249,191.792793,-28.000643,-131.785417,0.473778,-5.601324,1.367668,4.237167,5.840896,-1.438233,-4.117883,-0.040768,0.424895,-0.028224,-68.434470,188.570298,1626.368290,-12.418364,0
0.032290,149.156333,36.402656,-175.611175,-0.374472,-4.340975,-0.902362,5.110307,4.554384,0.739851,-4.875704,-0.015197,0.431951,-0.043161,-99.729239,188.494885,1626.088607,-12.139326,0
0.033340,74.420598,86.695459,-202.399054,-0.906042,-2.640392,-3.327167,5.587923,2.874566,3.278850,-5.444960,-0.026156,0.439659,-0.017021,-115.823369,188.569782,1625.508747,-11.191083,0
0.034375,15.757185,145.167035,-171.400947,-0.340542,-0.613183,-5.073344,5.084188,0.794092,4.982707,-4.982440,-0.018850,0.454488,-0.031958,-103.619879,188.624198,1625.778432,-11.273925,0
0.035415,-44.108533,189.371062,-125.937879,0.519018,1.648344,-6.073427,3.789402,-1.470171,6.107421,-3.769214,-0.029809,0.453181,-0.028224,-84.720870,188.564907,1625.163324,-11.703014,0
0.036457,-100.979830,193.551055,-51.397159,1.876218,3.757210,-5.823406,1.554312,-3.550645,5.905979,-1.609601,-0.069992,0.447237,-0.017021,-36.721231,188.495217,1625.200754,-11.511869,0
0.037498,-162.388128,170.053697,15.658712,3.142938,5.109866,-4.966192,-0.557644,-4.958457,5.075034,0.436161,-0.139399,0.450307,0.001650,3.904288,188.643917,1625.445441,-11.306219,0
0.038540,-183.870824,102.146936,70.071591,4.217388,5.692111,-3.108895,-2.886019,-5.550253,3.249473,2.595774,-0.172276,0.443709,0.009119,37.280098,188.553643,1625.603536,-11.666530,0
0.039582,-192.286959,29.673592,132.215531,5.404938,5.628206,-1.203975,-4.389761,-5.557605,1.323191,4.196805,-0.201500,0.447955,-0.020755,74.184627,188.513763,1625.745962,-11.828843,0
0.040636,-148.141947,-36.300224,177.555493,6.253188,4.399810,1.081930,-5.240513,-4.245362,-0.917843,4.990205,-0.241683,0.432016,-0.031958,104.936516,188.496219,1625.175509,-12.615443,0
0.041672,-74.710599,-86.266843,202.312122,6.716898,2.656624,3.482923,-5.669621,-2.594950,-3.385499,5.545229,-0.234377,0.449523,-0.024490,120.928856,188.571409,1624.617189,-13.102460,0
0.042707,-15.570801,-144.702176,171.510985,6.185328,0.640065,5.181477,-5.210662,-0.599018,-5.022209,5.025783,-0.252642,0.449458,-0.024490,108.431306,188.571485,1624.672983,-13.842589,0
0.043758,45.508564,-189.002851,124.619887,5.337078,-1.632113,6.141874,-3.837518,1.687299,-6.155316,3.794768,-0.219765,0.449131,-0.028224,87.530427,188.571444,1622.950729,-14.505011,0
0.044790,100.655801,-193.666080,50.300758,3.878088,-3.662872,5.991068,-1.609890,3.727340,-5.937088,1.688523,-0.150358,0.442664,-0.035692,41.498728,188.496053,1622.422387,-14.409334,0
0.045832,161.712481,-169.443867,-16.681250,2.600058,-4.994226,4.975110,0.446095,5.116774,-5.080962,-0.375028,-0.132093,0.440116,-0.024490,-0.857222,188.703806,1621.387485,-14.726621,0
0.046874,183.115780,-100.631038,-70.133902,1.559538,-5.597773,3.193216,2.707305,5.693866,-3.267991,-2.499063,-0.059033,0.441945,0.005384,-32.536531,188.570611,1620.276298,-15.118621,0
0.047915,191.577285,-27.444922,-131.650000,0.417228,-5.540969,1.351793,4.203584,5.719597,-1.429840,-4.110767,-0.015197,0.453769,-0.017021,-69.576780,188.571027,1618.690548,-15.338678,0
0.048957,148.918141,37.187915,-175.241857,-0.385782,-4.305472,-0.882519,5.054337,4.488220,0.777621,-4.779642,-0.022503,0.449000,-0.035692,-98.586929,188.495731,1616.966089,-15.566294,0
0.049999,73.876158,86.296789,-202.608334,-0.917352,-2.611989,-3.299387,5.509564,2.892945,3.236883,-5.395150,0.024986,0.388836,-0.002084,-116.694239,188.508346,1616.116212,-14.956268,0
0.051040,14.316687,144.405938,-171.560985,-0.340542,-0.570579,-4.958255,5.058068,0.889661,4.881986,-4.918398,-0.000585,0.416860,-0.035692,-104.581229,188.571279,1614.352878,-13.179796,0
0.052082,-45.095330,189.576438,-124.829925,0.530328,1.630593,-6.009930,3.752089,-1.448116,6.031880,-3.751425,-0.051727,0.439920,-0.028224,-85.784010,188.571207,1613.201103,-12.253428,0
0.053124,-100.752980,193.683945,-49.649053,2.023248,3.675553,-5.799595,1.561774,-3.484482,5.826242,-1.616717,-0.091910,0.442990,-0.043161,-37.331971,188.495522,1611.639098,-11.242125,0
0.054174,-162.331415,169.026820,18.046970,3.278658,5.014008,-4.894758,-0.550181,-4.884942,4.970117,0.429045,-0.135746,0.446126,0.009119,5.759128,188.571098,1609.560822,-10.392539,0
0.055207,-183.076849,101.361677,70.711743,4.262628,5.610455,-3.124769,-2.800197,-5.443656,3.224293,2.524617,-0.183235,0.443709,-0.024490,37.246168,188.571055,1607.452061,-9.330235,0
0.056249,-192.094137,28.682958,132.412500,5.438868,5.592704,-1.235723,-4.330059,-5.465711,1.373551,4.168342,-0.219765,0.439659,0.009119,75.326937,188.555889,1606.217487,-8.388000,0
0.057290,-149.922720,-36.022364,174.871781,6.275808,4.378508,0.935092,-5.124841,-4.241686,-0.779352,4.851449,-0.216112,0.434825,-0.024490,103.387046,188.495528,1603.979154,-7.062859,0
0.058332,-75.413834,-85.844012,202.336743,6.773448,2.727629,3.411488,-5.658426,-2.650086,-3.276385,5.516766,-0.274560,0.440247,-0.028224,121.675316,188.646543,1603.314556,-5.796451,0
0.059374,-16.115241,-144.255183,171.400190,6.185328,0.682669,5.133854,-5.180811,-0.621072,-4.942472,5.022225,-0.238030,0.449392,-0.024490,109.935536,188.495720,1602.391391,-5.294604,0
0.060415,44.226861,-189.570654,125.887879,5.269218,-1.525604,6.102188,-3.893488,1.613784,-6.113349,3.883714,-0.263601,0.453573,-0.028224,88.763217,188.514492,1602.745209,-4.306072,0
0.061457,100.893994,-193.086197,51.470265,3.855468,-3.577665,5.931539,-1.669592,3.668528,-5.878334,1.741891,-0.172276,0.449980,-0.058098,41.996368,188.496965,1601.819794,-3.571321,0
0.062499,162.665251,-169.516353,-15.733333,2.622678,-4.948072,5.034639,0.360273,5.098395,-5.072569,-0.293198,-0.139399,0.447302,-0.031958,0.590458,188.646062,1601.797663,-2.730494,0
0.063540,182.707450,-102.092828,-70.638637,1.559538,-5.551620,3.209091,2.666260,5.664460,-3.297368,-2.449253,-0.073645,0.447171,-0.002084,-32.694871,188.495220,1601.653843,-2.190152,0
0.064591,191.384463,-27.601974,-133.311932,0.371988,-5.516117,1.343856,4.188659,5.741651,-1.417250,-4.050284,-0.062686,0.447825,-0.054364,-69.565470,188.570604,1601.704953,-1.455727,0
0.065624,149.530636,36.753002,-175.266478,-0.374472,-4.312573,-0.822991,4.990903,4.528654,0.693687,-4.779642,-0.026156,0.455010,-0.020755,-99.469109,188.495090,1602.055860,-0.486778,0
0.066665,75.055778,86.441760,-202.522160,-0.906042,-2.665244,-3.263670,5.535683,2.881918,3.207506,-5.437844,-0.015197,0.443774,-0.020755,-116.015639,188.703726,1602.515385,-0.595375,0
0.067707,15.269457,144.816688,-171.425569,-0.351852,-0.623834,-4.970161,5.043143,0.852904,4.919757,-4.929072,-0.004238,0.451483,-0.039427,-103.518089,188.495199,1603.064709,-1.446090,0
0.068748,-45.118015,189.419386,-125.125379,0.519018,1.630593,-6.025804,3.737163,-1.437089,6.036077,-3.765656,-0.040768,0.450829,-0.039427,-84.392880,188.570712,1603.201985,-1.289872,0
0.069790,-101.320105,193.478570,-49.390530,1.955388,3.714606,-5.799595,1.502072,-3.488157,5.796865,-1.627390,-0.069992,0.440182,-0.046895,-35.567611,188.495275,1602.948695,-1.009053,0
0.070832,-162.183963,169.461733,17.505303,3.210798,4.996257,-4.938412,-0.535256,-4.877591,5.003690,0.446834,-0.135746,0.438744,-0.050629,4.990048,188.511513,1603.302551,-1.261487,0
0.071873,-183.371754,100.624742,70.982576,4.194768,5.638857,-3.069209,-2.785272,-5.447332,3.215899,2.560195,-0.161317,0.437046,-0.031958,37.970008,188.496022,1603.453475,-1.403671,0
0.072915,-191.935342,27.305735,132.141667,5.416248,5.585603,-1.219849,-4.307671,-5.495117,1.360961,4.175458,-0.216112,0.434172,-0.035692,74.320347,188.570910,1603.572299,-1.055341,0
0.073957,-148.867867,-37.218373,175.401137,6.253188,4.385609,0.978746,-5.117378,-4.315201,-0.762566,4.844333,-0.219765,0.444297,-0.017021,103.534076,188.495550,1604.077450,0.423729,0
0.075007,-72.895799,-87.172911,202.262879,6.750828,2.667274,3.423394,-5.654695,-2.591274,-3.347728,5.477630,-0.245336,0.433910,-0.020755,120.906236,188.646277,1603.536228,0.303748,0
0.076041,-14.107619,-144.629691,171.314016,6.174018,0.682669,5.145759,-5.221856,-0.624748,-4.988635,5.043572,-0.270907,0.420257,-0.035692,108.295586,188.570866,1604.216560,0.946587,0
0.077082,45.383796,-189.159903,125.260038,5.314458,-1.486551,6.118063,-3.900951,1.628487,-6.113349,3.908619,-0.197847,0.440769,-0.039427,87.994137,188.551113,1604.276968,1.524096,0
0.078124,101.030104,-193.521109,50.029924,3.923328,-3.570565,5.923602,-1.695712,3.664852,-5.903514,1.745449,-0.143052,0.446649,-0.024490,41.724928,188.493787,1604.586660,2.121207,0
0.079165,161.962016,-169.395544,-16.570455,2.713158,-4.905469,5.002890,0.352811,5.076340,-5.080962,-0.289640,-0.113828,0.446518,0.001650,-0.291722,188.646464,1604.205331,2.526140,0
0.080207,182.832217,-101.331731,-70.798674,1.638708,-5.530318,3.220996,2.643872,5.631379,-3.326745,-2.435021,-0.055380,0.443644,0.012853,-32.728801,188.495881,1603.855080,3.292634,0
0.081249,191.509230,-28.290585,-132.733334,0.383298,-5.501916,1.379573,4.132688,5.693866,-1.480200,-4.021821,-0.044421,0.457819,-0.031958,-70.164900,188.510751,1603.189717,3.693736,0
0.082290,149.621376,36.559708,-175.143372,-0.397092,-4.319673,-0.807116,4.983441,4.491896,0.647523,-4.740506,-0.033462,0.446257,-0.050629,-98.609549,188.548329,1602.302571,4.012796,0
0.083332,75.543505,86.743783,-202.042046,-0.939972,-2.647492,-3.220015,5.464787,2.874566,3.140359,-5.341782,0.003068,0.441880,-0.099175,-116.400179,188.700707,1600.692276,4.495781,0
0.084374,15.915980,144.792527,-171.290152,-0.351852,-0.638035,-4.946349,5.031948,0.867607,4.831626,-4.907725,-0.033462,0.441945,-0.035692,-104.377649,188.493154,1599.615020,4.937914,0
0.085424,-45.696483,189.250253,-124.694508,0.496398,1.619942,-5.958338,3.669998,-1.448116,5.989913,-3.715846,-0.051727,0.449066,-0.005818,-85.546500,188.523810,1598.626438,4.789310,0
0.086457,-101.580983,193.104062,-50.510796,1.887528,3.625849,-5.755940,1.576700,-3.425670,5.771685,-1.666527,-0.106522,0.446714,-0.028224,-37.467691,188.514566,1598.083256,5.475905,0
0.087499,-163.034650,169.353005,16.483523,3.188178,4.914600,-4.851103,-0.468091,-4.807752,5.003690,0.343657,-0.139399,0.446518,-0.054364,5.182318,188.722194,1597.520872,6.903693,0
0.088540,-182.872684,101.893237,71.265720,4.251318,5.553651,-3.017617,-2.744227,-5.373817,3.215899,2.467691,-0.175929,0.439528,-0.046895,37.664638,188.495671,1596.348931,7.660841,0
0.089582,-191.833259,28.441340,132.695644,5.359698,5.486195,-1.247629,-4.233043,-5.399547,1.360961,4.104301,-0.234377,0.431951,-0.039427,75.473967,188.571040,1594.864778,7.638768,0
0.090624,-149.866007,-37.025079,174.674811,6.207948,4.300402,0.919218,-5.039019,-4.256389,-0.745779,4.783850,-0.238030,0.449719,-0.043161,103.206086,188.495566,1593.661187,7.276384,0
0.091665,-74.211529,-86.605109,202.410607,6.705588,2.677925,3.383708,-5.572605,-2.624356,-3.230221,5.402915,-0.259948,0.445408,-0.031958,121.664006,188.721766,1592.395823,8.141198,0
0.092707,-14.436551,-144.243102,171.129357,6.162708,0.696870,5.030671,-5.091258,-0.643127,-4.875324,4.936837,-0.238030,0.446387,-0.002084,109.731956,188.551804,1590.041012,8.402947,0
0.093749,45.553934,-189.534411,124.669129,5.269218,-1.500752,6.066471,-3.871100,1.621135,-6.050398,3.809000,-0.219765,0.427247,-0.035692,88.220337,188.570761,1588.535191,8.011789,0
0.094790,101.256954,-193.231167,49.315909,3.855468,-3.545713,5.812482,-1.677055,3.635446,-5.769220,1.741891,-0.168623,0.441227,-0.017021,40.944538,188.495604,1586.616142,8.275450,0
0.095842,162.154839,-168.561961,-19.081818,2.588748,-4.845114,4.923519,0.457289,5.028556,-4.963455,-0.371470,-0.132093,0.440247,-0.031958,-1.207832,188.590970,1584.864044,7.884002,0
0.096874,182.469257,-100.244449,-71.426515,1.616088,-5.494815,3.169405,2.655066,5.579918,-3.226024,-2.427906,-0.077298,0.438810,-0.035692,-33.169891,188.498883,1583.284616,7.562377,0
0.097915,191.361778,-26.369721,-132.536364,0.451158,-5.462863,1.347825,4.121494,5.635054,-1.417250,-4.014705,-0.059033,0.435478,-0.046895,-69.022590,188.571105,1582.147008,7.374826,0
0.098958,148.271618,38.263115,-175.020266,-0.397092,-4.262869,-0.819022,4.927470,4.433084,0.697884,-4.701370,-0.044421,0.451091,-0.013287,-99.446489,188.495609,1580.974263,7.423840,0
0.099999,73.252320,87.166615,-202.226705,-0.894732,-2.608439,-3.243827,5.461056,2.841484,3.148752,-5.320435,-0.037115,0.423132,-0.058098,-115.800749,188.721713,1580.341479,7.823906,0
0.101040,13.772247,145.154954,-170.970076,-0.283992,-0.606082,-4.942381,4.998366,0.867607,4.789659,-4.865031,-0.000585,0.407127,-0.046895,-103.224029,188.495513,1579.409147,8.759942,0
0.102082,-45.821250,189.177768,-125.026894,0.552948,1.598641,-5.930558,3.699849,-1.422386,5.981520,-3.744309,-0.084604,0.433257,-0.046895,-84.325020,188.495553,1579.513268,9.269653,0
0.103124,-101.989313,193.019495,-49.772159,2.000628,3.664903,-5.736097,1.550580,-3.444048,5.771685,-1.609601,-0.077298,0.444166,-0.020755,-35.952151,188.632618,1579.402205,8.823250,0
0.104165,-162.626320,169.232195,17.123674,3.210798,4.957204,-4.855072,-0.527793,-4.815103,4.974314,0.386351,-0.157664,0.442468,-0.005818,4.458478,188.721721,1579.064053,8.263072,0
0.105207,-183.383096,101.301272,71.585796,4.240008,5.557201,-3.037460,-2.770346,-5.395872,3.199112,2.535291,-0.186888,0.444232,-0.035692,38.139658,188.495682,1579.648528,7.654440,0
0.106257,-191.481642,27.849376,134.172917,5.472798,5.503947,-1.207943,-4.300208,-5.399547,1.339978,4.100743,-0.212459,0.446322,-0.046895,75.553137,188.495620,1579.765980,8.016729,0
0.107291,-149.117402,-36.396872,176.127463,6.230568,4.318154,0.958904,-5.083795,-4.238010,-0.775156,4.833660,-0.234377,0.439398,-0.024490,104.076956,188.510393,1580.428736,7.447052,0
0.108332,-75.470547,-86.629270,201.930493,6.705588,2.685026,3.387677,-5.594993,-2.617005,-3.255401,5.438493,-0.267254,0.441423,-0.039427,120.917546,188.646944,1581.025079,6.780353,0
0.109373,-15.480061,-145.185412,170.833902,6.128778,0.679119,5.102105,-5.124841,-0.599018,-4.938275,4.965300,-0.245336,0.446583,-0.065566,108.035456,188.495658,1582.113072,5.879148,0
0.110415,45.315741,-188.906204,125.284659,5.314458,-1.568208,6.086314,-3.818861,1.613784,-6.088169,3.848136,-0.208806,0.450634,-0.031958,87.790557,188.495700,1582.716427,5.923063,0
0.111457,101.960189,-193.062035,49.931440,3.866778,-3.598967,5.844230,-1.591233,3.635446,-5.827974,1.699197,-0.121134,0.443121,-0.035692,41.204668,188.495707,1583.392260,5.578354,0
