1-Time,2-VGERA,3-VGERB,4-VGERC,5-VN,6-IGERAN,7-IGERBN,8-IGERCN,9-IGERAT,10-IGERBT,11-IGERCT,12-IN,13-IFD,14-IFAULT,15-VFAULT,16-Speed (rad/s),17-FAULT 
0.000000,178.703547,-127.897639,3.815909,2.961978,-5.711382,0.439019,5.274487,6.315068,-0.502371,-5.057154,-0.011544,0.188550,-0.043161,-10.063561,188.420321,0
0.001042,189.603690,-73.424842,-57.220076,1.797048,-4.074704,-2.219932,6.136434,4.587466,2.112169,-5.814976,-0.000585,0.189987,-0.043161,-11.941021,188.495792,0
0.002083,168.302474,-28.580527,-143.123485,0.224958,-2.367020,-4.097072,5.979716,2.937054,4.084615,-5.857670,-0.011544,0.160068,-0.002084,-11.861851,188.269552,0
0.003125,112.883017,16.070494,-191.775001,-0.713772,0.125275,-5.144778,4.539408,0.474301,5.196738,-4.377606,-0.059033,0.202399,-0.073035,-6.568771,188.495680,0
0.004167,61.796394,85.584016,-195.677463,-0.815562,2.582068,-6.184547,2.994620,-2.050939,6.262698,-3.029182,-0.066339,0.196389,-0.031958,-0.789362,188.420209,0
0.005208,21.190243,155.617017,-152.221023,-0.001242,4.531170,-5.740066,0.707291,-3.966005,5.796865,-0.752160,-0.095563,0.177640,-0.009553,-0.766742,188.495703,0
0.006250,-28.467224,205.595717,-91.800568,1.118448,5.905128,-4.283596,-1.912131,-5.388520,4.491694,1.749006,-0.172276,0.190967,-0.020755,1.800628,188.344909,0
0.007292,-103.497865,176.553223,-46.460606,1.978008,6.462522,-2.410424,-4.124833,-5.888422,2.607379,3.905062,-0.227071,0.178228,-0.046895,8.586628,188.420294,0
0.008333,-178.914151,128.845733,-3.755114,2.792328,5.866075,-0.303106,-5.359917,-5.439981,0.534213,5.210791,-0.248989,0.191816,0.009119,15.089878,188.420370,0
0.009375,-189.961747,74.747445,57.588637,3.968568,4.225846,2.395531,-6.225595,-3.756487,-2.118097,5.982844,-0.274560,0.193580,-0.028224,16.673278,188.495846,0
0.010417,-169.102888,29.915210,143.295076,5.608518,2.518163,4.296483,-6.132310,-2.054615,-4.065363,6.025538,-0.285519,0.200765,-0.065566,17.725108,188.344977,0
0.011458,-113.694773,-15.219047,191.749622,6.513318,0.008116,5.352126,-4.643494,0.341974,-5.156503,4.637978,-0.241683,0.208474,-0.002084,11.414128,188.419884,0
0.012500,-63.050508,-84.950025,195.565910,6.603798,-2.480629,6.383958,-3.113632,2.907648,-6.247643,3.207724,-0.183235,0.195670,-0.043161,6.109738,188.420410,0
0.013542,-21.865889,-155.224643,152.404925,5.800788,-4.422631,5.887885,-0.800183,4.833741,-5.794400,0.941375,-0.146705,0.200112,-0.058098,5.883538,188.495937,0
0.014583,28.199908,-205.324152,91.799811,4.703718,-5.785938,4.459194,1.770731,6.237877,-4.476639,-1.563349,-0.117481,0.181886,-0.069301,2.942938,188.345218,0
0.015625,102.901616,-176.487034,46.213637,3.787608,-6.286527,2.558243,4.039404,6.770861,-2.571340,-3.769214,-0.029809,0.177379,-0.035692,-3.662101,188.420560,0
0.016667,178.329245,-128.296308,4.000568,2.984598,-5.725583,0.419176,5.289413,6.315068,-0.498174,-5.082059,-0.004238,0.188876,-0.028224,-10.289761,188.420490,0
0.017708,189.728458,-73.702703,-56.863068,1.830978,-4.088905,-2.219932,6.099120,4.642602,2.124759,-5.850554,0.006721,0.190509,-0.020755,-12.246391,188.495902,0
0.018750,168.483954,-28.882549,-142.951137,0.224958,-2.359920,-4.081198,6.013299,2.903972,4.072025,-5.882575,-0.007891,0.204228,-0.017021,-12.144601,188.345203,0
0.019792,113.211949,15.623501,-191.553410,-0.702462,0.121725,-5.184464,4.550602,0.455923,5.129591,-4.420300,-0.040768,0.201941,-0.002084,-6.500911,188.420508,0
0.020833,62.011902,85.185346,-195.788258,-0.804252,2.596269,-6.156767,3.031934,-2.021533,6.283682,-3.011393,-0.055380,0.202660,-0.024490,-0.642332,188.420605,0
0.021875,21.315010,154.952567,-152.738069,-0.012552,4.506318,-5.676569,0.737142,-3.988059,5.796865,-0.801970,-0.128440,0.187635,0.005384,-0.642332,188.495881,0
0.022917,-28.013524,205.776930,-91.775947,1.129758,5.915779,-4.299470,-1.930788,-5.373817,4.491694,1.741891,-0.146705,0.197238,-0.031958,1.925038,188.345147,0
0.023958,-102.669863,176.843165,-46.534470,1.989318,6.441220,-2.354864,-4.143490,-5.906801,2.569609,3.915735,-0.219765,0.179731,-0.009553,8.699728,188.418033,0
0.025000,-178.959521,128.616196,-4.112121,2.826258,5.873176,-0.303106,-5.371111,-5.454684,0.530016,5.196560,-0.234377,0.190117,-0.017021,14.750578,188.420408,0
0.026042,-189.984432,74.964902,56.997727,4.002498,4.208095,2.375688,-6.173355,-3.752811,-2.113901,5.965055,-0.252642,0.191032,-0.028224,16.718518,188.495685,0
0.027083,-168.989463,30.422608,143.430493,5.585898,2.514612,4.276640,-6.080071,-2.087697,-4.082150,6.021980,-0.248989,0.200961,-0.013287,17.747728,188.420338,0
0.028125,-114.398008,-14.832458,191.047917,6.479388,0.022317,5.276723,-4.613643,0.338299,-5.089356,4.534800,-0.227071,0.201811,-0.028224,11.255788,188.420207,0
0.029167,-63.254673,-84.805054,195.738258,6.569868,-2.427375,6.344272,-3.106169,2.885593,-6.256036,3.172145,-0.194194,0.194755,-0.035692,5.838298,188.420365,0
0.030208,-22.024684,-154.403142,153.155872,5.812098,-4.348075,5.856136,-0.796451,4.767577,-5.744040,0.920028,-0.139399,0.188680,-0.031958,5.928778,188.495796,0
0.031250,27.689496,-205.444961,92.156818,4.647168,-5.736234,4.431414,1.767000,6.259932,-4.531196,-1.588254,-0.080951,0.182213,-0.024490,3.157828,188.344952,0
0.032292,102.368519,-176.668248,46.656818,3.787608,-6.272326,2.562211,4.031941,6.785564,-2.537767,-3.690941,-0.040768,0.176922,-0.024490,-3.662101,188.420495,0
0.033333,178.329245,-128.368794,4.468371,2.984598,-5.736234,0.427113,5.281950,6.322420,-0.489780,-5.085617,-0.015197,0.188615,-0.031958,-10.040941,188.420363,0
0.034375,189.694430,-74.016807,-56.419887,1.819668,-4.088905,-2.275492,6.087926,4.624223,2.112169,-5.797187,-0.004238,0.188876,-0.009553,-11.918401,188.495763,0
0.035417,168.552009,-29.402028,-142.741856,0.191028,-2.352819,-4.085166,6.020761,2.911324,4.097205,-5.868344,0.014027,0.197238,-0.043161,-11.873161,188.344992,0
0.036458,113.552224,15.321478,-191.319508,-0.713772,0.143027,-5.128904,4.509557,0.522086,5.112804,-4.427416,0.014027,0.199132,-0.043161,-6.591391,188.346375,0
0.037500,62.182040,84.859162,-195.935985,-0.792942,2.592718,-6.204390,3.043128,-2.069318,6.254305,-3.007835,-0.055380,0.189334,-0.058098,-0.857222,188.420358,0
0.038542,21.700655,154.868001,-152.799622,-0.023862,4.527620,-5.728160,0.673708,-3.940275,5.809455,-0.755718,-0.117481,0.171369,-0.061832,-0.778052,188.495779,0
0.039583,-27.707277,205.776930,-91.714394,1.141068,5.965483,-4.307407,-1.878549,-5.373817,4.542054,1.738333,-0.168623,0.164445,-0.046895,1.778008,188.420374,0
0.040625,-102.488383,176.903570,-46.497538,2.000628,6.480273,-2.382644,-4.143490,-5.910477,2.607379,3.926409,-0.245336,0.175093,-0.013287,8.484838,188.344988,0
0.041667,-178.607904,128.737005,-4.050568,2.826258,5.926430,-0.311043,-5.348723,-5.502468,0.567786,5.235696,-0.252642,0.187112,-0.017021,15.101188,188.420481,0
0.042708,-190.245309,74.735364,56.702273,3.957258,4.222296,2.395531,-6.247983,-3.774866,-2.105507,5.982844,-0.267254,0.189921,-0.035692,16.673278,188.495763,0
0.043750,-169.238998,30.180990,142.839584,5.574588,2.574967,4.248860,-6.154699,-2.128130,-4.056969,6.061117,-0.216112,0.207820,-0.035692,17.702488,188.420325,0
0.044792,-114.227871,-14.699568,191.515720,6.513318,0.036518,5.352126,-4.677076,0.312568,-5.110339,4.591726,-0.227071,0.205926,-0.013287,11.448058,188.269471,0
0.045833,-63.651661,-84.358061,195.799811,6.603798,-2.434475,6.356178,-3.117364,2.863539,-6.285413,3.204166,-0.205153,0.202137,-0.043161,6.177598,188.420383,0
0.046875,-22.716577,-154.668922,153.291288,5.812098,-4.380028,5.911696,-0.856153,4.826389,-5.811187,0.973396,-0.143052,0.196911,-0.054364,5.962708,188.495761,0
0.047917,27.496673,-205.348314,92.600000,4.681098,-5.761086,4.494912,1.793119,6.252580,-4.455655,-1.577580,-0.099216,0.178294,-0.035692,2.999488,188.495711,0
0.048958,102.425231,-176.776976,47.100000,3.798918,-6.300728,2.574117,4.024479,6.833349,-2.634291,-3.747867,-0.018850,0.178816,-0.031958,-3.628171,188.269575,0
0.050000,178.147765,-128.852030,4.628409,3.007218,-5.775287,0.482674,5.263293,6.384907,-0.523354,-5.092733,0.006721,0.190313,0.005384,-10.255831,188.420368,0
0.051042,189.853225,-74.645014,-56.050568,1.853598,-4.124408,-2.184215,6.121508,4.646278,2.116366,-5.793629,0.024986,0.192992,-0.046895,-12.246391,188.495752,0
0.052083,168.858257,-29.631565,-142.692614,0.179718,-2.413174,-4.097072,6.110314,2.977487,4.076221,-5.907480,-0.015197,0.195213,-0.035692,-12.178531,188.495783,0
0.053125,113.835787,15.152346,-191.319508,-0.679842,0.086222,-5.168590,4.587915,0.496356,5.117001,-4.473668,-0.029809,0.201092,-0.039427,-6.546151,188.269606,0
0.054167,62.669767,84.496735,-196.120645,-0.792942,2.574967,-6.208359,3.091636,-2.036236,6.300468,-3.050529,-0.044421,0.195474,-0.058098,-0.676262,188.420567,0
0.055208,21.836765,154.372684,-153.501326,0.021378,4.502768,-5.736097,0.748336,-3.918220,5.851422,-0.830433,-0.132093,0.188811,-0.031958,-0.664952,188.495989,0
0.056250,-27.378344,205.861496,-91.886743,1.073208,5.926430,-4.351062,-1.863623,-5.337060,4.546251,1.695639,-0.150358,0.165751,-0.058098,1.913728,188.495792,0
0.057292,-101.966628,177.265997,-46.645265,1.978008,6.458971,-2.426298,-4.113639,-5.917828,2.611575,3.915735,-0.227071,0.175354,-0.013287,8.597938,188.343034,0
0.058333,-178.528506,128.797410,-4.530682,2.781018,5.951282,-0.322949,-5.386036,-5.476738,0.588770,5.228581,-0.208806,0.190967,-0.054364,14.716648,188.415564,0
0.059375,-190.279337,74.711203,55.988258,3.945948,4.303953,2.343939,-6.221863,-3.807948,-2.088720,5.982844,-0.256295,0.194886,-0.031958,16.673278,188.495971,0
0.060417,-169.000806,30.217233,142.876516,5.585898,2.574967,4.260765,-6.169624,-2.142833,-4.031789,6.046885,-0.219765,0.204293,-0.043161,17.702488,188.495881,0
0.061458,-114.443378,-14.457950,190.838637,6.479388,0.082672,5.284660,-4.636031,0.257432,-5.047389,4.573937,-0.219765,0.217554,-0.028224,11.278408,188.269720,0
0.062500,-63.402126,-84.080200,196.095266,6.615108,-2.409624,6.316492,-3.177065,2.841484,-6.239250,3.225513,-0.197847,0.180645,-0.002084,5.928778,188.420486,0
0.063542,-22.727919,-153.762854,153.956061,5.834718,-4.365827,5.931539,-0.893467,4.808011,-5.811187,0.991185,-0.143052,0.188223,-0.013287,5.985328,188.495835,0
0.064583,27.224453,-205.602013,92.760038,4.726338,-5.768187,4.502849,1.748343,6.204796,-4.552179,-1.513539,-0.088257,0.181886,-0.050629,3.169138,188.495859,0
0.065625,101.790051,-177.163565,47.518561,3.832848,-6.325580,2.597929,4.028210,6.840701,-2.630094,-3.690941,-0.059033,0.178686,0.005384,-3.616861,188.269695,0
0.066667,178.215820,-129.238619,5.367045,3.007218,-5.789488,0.490611,5.278219,6.377556,-0.586304,-5.057154,-0.033462,0.191881,-0.065566,-10.018321,188.420491,0
0.067708,189.853225,-74.548366,-55.545834,1.853598,-4.110207,-2.188183,6.151359,4.679359,2.137349,-5.857670,0.014027,0.189660,-0.013287,-11.907091,188.484284,0
0.068750,168.846914,-30.223530,-142.458713,0.247578,-2.416724,-4.144695,6.084195,2.970136,4.105598,-5.925269,0.010374,0.201157,0.001650,-11.873161,188.420247,0
0.069792,114.380227,14.548301,-190.987122,-0.702462,0.086222,-5.152716,4.606572,0.547816,5.096018,-4.480783,-0.051727,0.209258,0.016587,-6.636631,188.269496,0
0.070833,62.873932,84.134308,-196.120645,-0.759012,2.543015,-6.224233,3.087905,-2.014182,6.275288,-3.061202,-0.029809,0.195278,-0.031958,-0.879842,188.420171,0
0.071875,22.154355,154.481412,-153.415152,-0.035172,4.524070,-5.744035,0.733410,-3.951302,5.834636,-0.809085,-0.091910,0.187178,-0.050629,-0.811982,188.420260,0
0.072917,-27.151494,205.825254,-92.096023,1.118448,5.919329,-4.343124,-1.897206,-5.370141,4.525267,1.716986,-0.164970,0.180907,-0.005818,1.698838,188.495524,0
0.073958,-101.728435,177.217673,-47.039205,1.944078,6.487374,-2.390581,-4.158416,-5.961937,2.653542,3.901504,-0.197847,0.174178,-0.058098,8.428288,188.269346,0
0.075000,-178.233601,129.087351,-4.715341,2.792328,5.937081,-0.334855,-5.423350,-5.531874,0.517426,5.285506,-0.219765,0.186916,-0.031958,15.010708,188.420206,0
0.076042,-190.313364,74.735364,55.803599,3.923328,4.303953,2.379657,-6.259177,-3.818975,-2.113901,6.046885,-0.259948,0.190248,-0.080503,16.695898,188.420273,0
0.077083,-169.261683,30.132667,142.162500,5.585898,2.560766,4.288545,-6.158430,-2.095048,-4.124116,6.075348,-0.267254,0.187439,-0.031958,17.736418,188.495598,0
0.078125,-113.966993,-14.180089,191.171023,6.513318,0.096873,5.344189,-4.706927,0.294190,-5.093552,4.627304,-0.227071,0.180188,-0.028224,11.493298,188.269391,0
0.079167,-63.005138,-83.536559,196.144508,6.569868,-2.413174,6.376020,-3.195722,2.881918,-6.298003,3.236186,-0.205153,0.178686,-0.050629,6.234148,188.420088,0
0.080208,-22.909399,-154.016553,153.734470,5.823408,-4.380028,5.919633,-0.900930,4.804335,-5.857351,0.991185,-0.154011,0.174113,-0.046895,5.985328,188.420039,0
0.081250,26.782095,-205.336233,93.043182,4.692408,-5.796589,4.526660,1.770731,6.248905,-4.531196,-1.520655,-0.066339,0.181364,-0.035692,3.078658,188.495531,0
0.082292,101.517831,-177.054837,47.937121,3.821538,-6.322030,2.597929,4.005822,6.818646,-2.646881,-3.719404,-0.059033,0.177444,-0.046895,-3.594241,188.321110,0
0.083333,177.977627,-129.468156,5.354735,3.029838,-5.796589,0.510454,5.281950,6.373880,-0.590501,-5.082059,-0.026156,0.192926,-0.009553,-10.244521,188.474731,0
0.084375,190.000678,-75.647729,-55.459659,1.887528,-4.177662,-2.140560,6.128971,4.723468,2.078596,-5.843439,-0.007891,0.194625,-0.035692,-12.246391,188.476479,0
0.085417,169.096449,-30.815494,-142.249432,0.202338,-2.448677,-4.097072,6.073001,2.988514,4.093008,-5.907480,0.017680,0.203901,-0.035692,-12.201151,188.485594,0
0.086458,114.675132,14.294602,-191.073296,-0.702462,-0.002535,-5.124935,4.602841,0.547816,5.125394,-4.473668,-0.011544,0.211021,-0.017021,-6.568771,188.255746,0
0.087500,63.384345,83.796042,-196.169887,-0.838182,2.528813,-6.236139,3.099099,-1.992127,6.300468,-3.096781,-0.077298,0.195147,-0.065566,-0.755432,188.489414,0
0.088542,22.710138,153.841124,-153.981440,-0.023862,4.495668,-5.803563,0.800575,-3.943950,5.889193,-0.862453,-0.099216,0.194102,-0.046895,-0.732812,188.418598,0
0.089583,-26.595712,205.789011,-92.391478,1.095828,5.937081,-4.370905,-1.837504,-5.377493,4.575628,1.692081,-0.143052,0.183650,-0.046895,1.834558,188.495978,0
0.090625,-101.218023,177.410967,-47.273106,2.011938,6.501575,-2.454079,-4.139759,-5.950910,2.661936,3.890830,-0.197847,0.175746,-0.035692,8.530078,188.269751,0
0.091667,-178.244943,129.111513,-5.318561,2.769708,5.965483,-0.338823,-5.397231,-5.568632,0.630736,5.278390,-0.201500,0.188354,-0.031958,14.671408,188.420504,0
0.092708,-190.404104,75.242762,55.101894,3.912018,4.307503,2.351876,-6.262908,-3.833678,-2.084524,6.029096,-0.263601,0.192273,-0.043161,16.684588,188.420643,0
0.093750,-169.170943,30.507175,142.359470,5.585898,2.621121,4.252828,-6.225595,-2.161212,-4.040183,6.132274,-0.263601,0.186982,-0.046895,17.747728,188.495987,0
0.094792,-114.545461,-14.010957,190.863258,6.502008,0.107524,5.276723,-4.695733,0.191269,-5.110339,4.613073,-0.230724,0.225066,-0.031958,11.312338,188.269778,0
0.095833,-63.209303,-83.294941,196.513826,6.615108,-2.377671,6.352209,-3.233036,2.845160,-6.268626,3.253976,-0.197847,0.204293,-0.046895,5.928778,188.496015,0
0.096875,-22.875372,-153.255456,154.226894,5.834718,-4.333874,5.931539,-0.904661,4.767577,-5.878334,0.998301,-0.161317,0.193580,-0.039427,6.007948,188.420616,0
0.097917,26.317053,-205.614094,92.920076,4.703718,-5.793039,4.586189,1.752074,6.241553,-4.577359,-1.492192,-0.091910,0.187112,-0.058098,3.225688,188.496029,0
0.098958,100.803254,-177.296455,48.072538,3.832848,-6.343332,2.637615,4.002090,6.807619,-2.659471,-3.680268,-0.029809,0.179861,-0.035692,-3.549001,188.269747,0
0.100000,177.875545,-129.492318,6.117992,3.018528,-5.832092,0.538234,5.296876,6.432692,-0.636665,-5.050039,-0.011544,0.192208,-0.035692,-10.007011,188.420452,0
0.101042,189.909938,-76.130965,-54.807197,1.887528,-4.188313,-2.148498,6.155091,4.723468,2.086989,-5.836323,-0.040768,0.195735,-0.017021,-11.895781,188.420540,0
0.102083,169.221217,-31.310811,-142.089394,0.236268,-2.516132,-4.041512,6.158822,3.036299,4.072025,-5.982195,-0.004238,0.204489,-0.028224,-11.929711,188.495868,0
0.103125,115.162859,13.932174,-190.950190,-0.736392,0.029418,-5.160653,4.673737,0.584574,5.096018,-4.523477,-0.029809,0.208800,-0.031958,-6.693181,188.269754,0
0.104167,63.622537,83.421534,-196.416099,-0.826872,2.482660,-6.248045,3.128950,-1.973748,6.308862,-3.121686,-0.059033,0.196519,-0.061832,-0.936392,188.420486,0
0.105208,23.152495,154.034418,-154.079925,-0.069102,4.495668,-5.835312,0.785649,-3.958653,5.910176,-0.858895,-0.117481,0.185937,-0.035692,-0.913772,188.420546,0
0.106250,-26.346177,205.873577,-92.686932,1.129758,5.944181,-4.426465,-1.863623,-5.399547,4.605005,1.660060,-0.164970,0.182736,-0.073035,1.630978,188.496009,0
0.107292,-101.183995,177.447210,-47.703977,1.966698,6.533527,-2.465984,-4.147222,-5.969289,2.678723,3.915735,-0.219765,0.177314,-0.020755,8.371738,188.269776,0
0.108333,-177.893326,129.655154,-5.761742,2.758398,6.008086,-0.386446,-5.460664,-5.598038,0.622343,5.292622,-0.230724,0.188942,-0.017021,14.976778,188.345156,0
0.109375,-190.472159,75.448138,54.769508,3.900708,4.328805,2.363782,-6.315148,-3.914544,-2.055147,6.032654,-0.281866,0.191685,-0.031958,16.707208,188.420611,0
0.110417,-169.522561,30.627984,141.867046,5.551968,2.653073,4.256797,-6.229326,-2.220024,-4.094740,6.160736,-0.263601,0.194494,-0.005818,17.747728,188.495895,0
0.111458,-114.454721,-13.563963,191.158713,6.502008,0.125275,5.340220,-4.781554,0.209647,-5.131323,4.730482,-0.234377,0.224674,-0.073035,11.470678,188.345238,0
0.112500,-63.300043,-82.799624,196.575379,6.626418,-2.377671,6.415706,-3.281544,2.845160,-6.335774,3.342922,-0.201500,0.198936,-0.054364,6.166288,188.342878,0
0.113542,-23.181619,-153.605802,154.042235,5.834718,-4.380028,5.979162,-0.912124,4.841092,-5.932891,1.016090,-0.132093,0.171892,-0.046895,5.996638,188.420584,0
0.114583,26.124230,-205.698660,92.723106,4.715028,-5.835642,4.610001,1.722223,6.259932,-4.648703,-1.477961,-0.106522,0.189138,-0.028224,3.157828,188.495866,0
0.115625,100.701171,-177.465588,48.146402,3.855468,-6.410787,2.685238,3.987165,6.870107,-2.730814,-3.719404,-0.051727,0.182409,-0.061832,-3.515071,188.345534,0
0.116667,177.557955,-129.721855,6.179545,3.029838,-5.853393,0.581888,5.337921,6.480477,-0.649255,-5.064270,-0.026156,0.193776,-0.005818,-10.154041,188.344957,0
0.117708,190.023363,-76.022237,-54.548674,1.864908,-4.227366,-2.124686,6.158822,4.771253,2.032432,-5.857670,0.024986,0.196323,-0.073035,-12.246391,188.420338,0
0.118750,169.255244,-31.431620,-141.830872,0.213648,-2.526783,-4.069292,6.181210,3.065705,4.051041,-5.957290,-0.000585,0.197564,-0.020755,-12.189841,188.495712,0
0.119791,115.435079,13.497262,-190.900948,-0.736392,-0.027387,-5.180496,4.651349,0.661765,5.121198,-4.523477,-0.007891,0.203640,-0.031958,-6.591391,188.344930,0
0.120833,64.325772,82.986622,-196.453031,-0.804252,2.521713,-6.228202,3.184920,-1.973748,6.300468,-3.189285,-0.073645,0.201223,-0.035692,-0.800672,188.345015,0
0.121875,23.753648,153.394130,-154.510796,-0.046482,4.506318,-5.831343,0.834157,-3.951302,5.926963,-0.901589,-0.117481,0.195278,-0.013287,-0.778052,188.420280,0
0.122916,-26.005902,205.885658,-92.970076,1.095828,5.954832,-4.394716,-1.796459,-5.395872,4.646971,1.645829,-0.121134,0.184499,0.005384,1.789318,188.495698,0
0.123958,-100.582843,177.725071,-48.221023,1.944078,6.526427,-2.477890,-4.124833,-5.965613,2.745870,3.901504,-0.194194,0.178816,-0.013287,8.496148,188.344815,0
0.125000,-178.074806,129.775963,-6.389583,2.758398,6.036488,-0.398352,-5.445738,-5.598038,0.655917,5.303295,-0.238030,0.190183,-0.043161,14.660098,188.344865,0
0.126041,-190.517529,75.870969,54.289394,3.912018,4.350106,2.308222,-6.259177,-3.863084,-2.092917,6.071790,-0.274560,0.190901,-0.043161,16.718518,188.420405,0
0.127083,-169.329738,31.244110,142.002463,5.563278,2.653073,4.272671,-6.233057,-2.161212,-4.048576,6.132274,-0.252642,0.201811,-0.035692,17.747728,188.495736,0
0.128125,-115.112586,-13.141131,190.703220,6.502008,0.157228,5.324346,-4.744241,0.213323,-5.080962,4.673556,-0.230724,0.214614,-0.050629,11.278408,188.347359,0
