1-Time,2-VGERA,3-VGERB,4-VGERC,5-VN,6-IGERAN,7-IGERBN,8-IGERCN,9-IGERAT,10-IGERBT,11-IGERCT,12-IN,13-IFD,14-IFAULT,15-VFAULT,16-Speed (rad/s),17-FAULT 
0.000000,-127.566651,-53.781292,186.763826,6.411528,3.253070,1.312108,-4.259163,-2.995607,-1.106694,4.072280,-0.245336,0.386419,-0.017021,-54.048150,188.495767,0
0.001042,-55.643856,-108.604435,192.242046,6.558558,1.744202,2.796358,-4.117371,-1.609849,-2.676257,4.082954,-0.234377,0.410981,-0.020755,-26.214241,188.495611,0
0.002083,8.418587,-165.058499,163.176705,6.038298,0.182080,3.895656,-3.553934,0.014833,-3.729627,3.535045,-0.219765,0.401248,-0.009553,3.417958,188.420312,0
0.003125,68.238935,-182.648296,108.234470,4.918608,-1.536255,4.272671,-2.121088,1.760814,-4.161887,2.229316,-0.168623,0.400333,-0.020755,27.994588,188.495644,0
0.004167,125.291712,-188.954527,29.643561,3.470928,-3.052224,4.213142,-0.609883,3.282574,-4.090543,0.759925,-0.161317,0.398569,-0.017021,49.981227,188.495747,0
0.005208,163.096266,-150.827194,-39.726705,2.181588,-3.801333,3.300368,0.882665,4.098591,-3.335138,-0.656098,-0.117481,0.399027,-0.043161,68.586177,188.495642,0
0.006250,189.592348,-75.792700,-92.022159,1.174998,-4.344525,1.958987,2.621483,4.554384,-1.958623,-2.395885,-0.073645,0.396806,-0.020755,79.839627,188.420325,0
0.007292,173.882984,-8.598712,-147.506061,0.123168,-3.914942,0.641417,3.390146,4.212539,-0.640861,-3.189285,-0.069992,0.405363,-0.031958,77.928237,188.495582,0
0.008333,127.628267,54.391122,-186.653788,-0.657222,-3.059324,-1.124603,4.114031,3.334035,1.067193,-3.836813,-0.040768,0.402620,-0.050629,59.017917,188.495664,0
0.009375,54.866127,109.105536,-192.427463,-0.792942,-1.632113,-2.632665,4.031941,1.974007,2.603182,-3.893739,-0.029809,0.410328,-0.054364,29.544058,188.495665,0
0.010417,-9.468536,165.015960,-162.943561,-0.238752,-0.084191,-3.676402,3.461042,0.389759,3.656552,-3.296020,-0.066339,0.393670,-0.017021,0.262468,188.420367,0
0.011458,-68.925924,183.161478,-107.225758,0.835698,1.666096,-4.045481,2.046852,-1.334168,4.097205,-1.990291,-0.091910,0.383871,-0.009553,-22.595041,188.495689,0
0.012500,-125.252781,188.839503,-27.699243,2.339928,3.128811,-4.005795,0.561767,-2.852253,4.080418,-0.552920,-0.110175,0.392690,-0.046895,-44.932291,188.495765,0
0.013542,-163.102705,151.159163,40.636932,3.651888,3.863718,-3.188267,-0.904661,-3.649890,3.337603,0.813293,-0.175929,0.395173,-0.024490,-62.983050,188.495823,0
0.014583,-189.405964,75.846807,92.415341,4.647168,4.431763,-1.831011,-2.658405,-4.127738,1.952695,2.556638,-0.197847,0.396283,-0.020755,-74.462700,188.420280,0
0.015625,-174.433863,9.305188,147.603788,5.698998,4.051883,-0.509472,-3.386022,-3.852057,0.714670,3.303785,-0.208806,0.394846,-0.009553,-71.691750,188.495627,0
0.016667,-128.451366,-53.660483,186.369887,6.411528,3.189165,1.248610,-4.165878,-2.980904,-1.026957,4.040260,-0.216112,0.407715,-0.005818,-53.754090,188.495790,0
0.017708,-56.562598,-108.737325,192.365152,6.524628,1.779705,2.728892,-4.039012,-1.591470,-2.613307,4.075838,-0.223418,0.399419,-0.013287,-24.065341,188.495597,0
0.018750,7.828777,-164.901448,162.770455,6.026988,0.270837,3.816284,-3.561397,-0.032952,-3.654087,3.488793,-0.219765,0.405167,-0.020755,3.723328,188.420455,0
0.019792,68.601895,-182.914075,108.025190,4.963848,-1.483001,4.189331,-2.162133,1.694650,-4.128313,2.215084,-0.175929,0.400529,-0.050629,27.689218,188.495801,0
0.020833,125.269027,-188.531696,28.843371,3.470928,-3.023822,4.137739,-0.643465,3.220087,-4.086346,0.763483,-0.186888,0.392952,-0.020755,50.037777,188.495749,0
0.021875,163.243719,-150.899680,-40.379167,2.170278,-3.737428,3.284494,0.830426,4.014049,-3.314155,-0.677445,-0.095563,0.394258,-0.046895,67.545657,188.495607,0
0.022917,188.866428,-75.067845,-92.342235,1.163688,-4.323224,1.935175,2.602827,4.536005,-1.983803,-2.388769,-0.084604,0.394193,-0.013287,80.077137,188.420224,0
0.023958,174.041779,-7.946343,-147.259849,0.123168,-3.904291,0.661260,3.322981,4.234594,-0.653452,-3.107454,-0.062686,0.390339,-0.024490,75.428727,188.495819,0
0.025000,127.310677,55.019329,-186.333713,-0.634602,-3.091277,-1.108729,4.087912,3.348738,1.096569,-3.868834,-0.066339,0.373485,-0.017021,57.491067,188.495922,0
0.026042,54.491824,109.226345,-192.747538,-0.747702,-1.646314,-2.577105,4.009553,1.988710,2.653542,-3.851044,-0.037115,0.381781,-0.061832,29.679778,188.495644,0
0.027083,-9.944921,165.112607,-162.758902,-0.204822,-0.084191,-3.688308,3.475967,0.360353,3.685929,-3.310252,-0.073645,0.399680,-0.013287,0.398188,188.420218,0
0.028125,-69.198144,183.197721,-107.287311,0.847008,1.651895,-4.053418,2.121480,-1.304762,4.143368,-2.050774,-0.102869,0.398831,0.005384,-23.171851,188.495655,0
0.029167,-125.797221,188.537480,-28.474811,2.328618,3.174964,-4.025638,0.614006,-2.833874,4.122385,-0.592057,-0.132093,0.396087,-0.043161,-46.097221,188.495756,0
0.030208,-163.499693,151.243729,40.107576,3.595338,3.895671,-3.148581,-0.923318,-3.671945,3.366980,0.827524,-0.128440,0.398308,-0.009553,-63.650340,188.495693,0
0.031250,-189.587444,76.450853,92.636932,4.624548,4.438863,-1.819105,-2.680793,-4.153468,1.952695,2.549522,-0.190541,0.397916,-0.058098,-74.338290,188.420146,0
0.032292,-174.138958,9.776343,147.973107,5.698998,4.041232,-0.493598,-3.400948,-3.874111,0.639130,3.342922,-0.161317,0.405363,-0.043161,-73.048950,188.495779,0
0.033333,-128.632846,-53.563836,186.505304,6.434148,3.231769,1.244642,-4.173341,-3.006634,-1.043744,4.047375,-0.238030,0.411830,-0.013287,-54.082080,188.495667,0
0.034375,-56.222323,-108.870215,192.205114,6.558558,1.740652,2.740798,-4.076326,-1.554713,-2.659471,4.082954,-0.238030,0.407911,-0.058098,-25.886251,188.495626,0
0.035417,8.770205,-165.082661,162.807387,6.038298,0.174979,3.848033,-3.497963,0.003805,-3.704447,3.485236,-0.212459,0.403142,0.005384,3.938218,188.344907,0
0.036458,69.010225,-182.599972,107.335796,4.941228,-1.504303,4.197268,-2.094968,1.702002,-4.140903,2.200853,-0.161317,0.396348,-0.024490,28.446988,188.495736,0
0.037500,125.280370,-188.761233,28.117046,3.448308,-3.027372,4.177425,-0.643465,3.212735,-4.115723,0.702999,-0.161317,0.390208,-0.020755,50.049087,188.495687,0
0.038542,162.835389,-150.368120,-40.883902,2.125038,-3.705475,3.272588,0.886396,4.050806,-3.305761,-0.684561,-0.135746,0.392298,-0.005818,68.507007,188.495691,0
0.039583,189.263415,-74.463800,-92.588447,1.129758,-4.323224,1.970892,2.599095,4.480869,-1.958623,-2.331844,-0.059033,0.411634,-0.050629,79.737837,188.269474,0
0.040625,173.622107,-7.463107,-147.382955,0.123168,-3.872338,0.661260,3.319250,4.241945,-0.657648,-3.143033,-0.066339,0.378188,-0.031958,77.894307,188.495660,0
0.041667,127.151882,55.031410,-186.481440,-0.691152,-3.069975,-1.061106,4.114031,3.323008,1.067193,-3.868834,-0.022503,0.389032,-0.039427,59.040537,188.495774,0
0.042708,54.775387,109.443802,-192.279735,-0.781632,-1.678266,-2.557262,3.994628,1.977683,2.594789,-3.847487,-0.048074,0.401901,-0.024490,30.075628,188.495702,0
0.043750,-9.366454,165.281740,-162.771213,-0.238752,-0.109043,-3.664497,3.475967,0.389759,3.656552,-3.335157,-0.033462,0.402946,-0.002084,0.827968,188.344990,0
0.044792,-69.084719,182.919860,-107.964394,0.858318,1.630593,-4.021669,2.069241,-1.319465,4.143368,-2.057890,-0.091910,0.401248,-0.046895,-22.561111,188.495707,0
0.045833,-125.933331,188.525399,-29.164205,2.305998,3.118160,-3.997858,0.569230,-2.815495,4.072025,-0.570710,-0.117481,0.397459,-0.028224,-45.124561,188.495626,0
0.046875,-163.760570,151.340377,40.353788,3.606648,3.849517,-3.144612,-0.886004,-3.594754,3.329210,0.823966,-0.143052,0.398896,-0.043161,-63.107460,188.495747,0
0.047917,-189.405964,76.330044,92.969318,4.635858,4.424662,-1.831011,-2.673330,-4.142441,1.961088,2.524617,-0.194194,0.397590,-0.031958,-74.474010,188.344909,0
0.048958,-174.331781,9.172298,147.886932,5.676378,4.019930,-0.513441,-3.371097,-3.807948,0.685293,3.328690,-0.219765,0.406866,-0.020755,-71.601270,188.495758,0
0.050000,-128.077064,-54.349095,186.357576,6.490698,3.210467,1.220830,-4.165878,-2.999283,-1.047941,4.018913,-0.230724,0.412549,0.005384,-53.460030,188.495767,0
0.051042,-55.178813,-109.111833,192.463637,6.535938,1.797456,2.736829,-4.053937,-1.613525,-2.617504,4.040260,-0.248989,0.411634,-0.009553,-23.398051,188.495767,0
0.052083,9.745660,-164.986014,162.671970,6.026988,0.214032,3.808347,-3.516620,0.003805,-3.666677,3.471004,-0.201500,0.398961,-0.024490,4.492408,188.344880,0
0.053125,69.282445,-182.998642,107.188069,4.941228,-1.525604,4.205205,-2.117356,1.731408,-4.136707,2.207969,-0.190541,0.392952,-0.039427,28.051138,188.495763,0
0.054167,125.371110,-188.567939,27.673864,3.448308,-2.991869,4.141708,-0.669585,3.220087,-4.082150,0.763483,-0.157664,0.390077,-0.002084,50.184807,188.495702,0
0.055208,163.039554,-150.501010,-41.142424,2.136348,-3.758729,3.312274,0.867740,4.014049,-3.322548,-0.634751,-0.150358,0.394585,-0.054364,67.647447,188.495711,0
0.056250,189.161333,-74.560447,-92.810038,1.174998,-4.294821,1.955018,2.591632,4.547032,-1.946033,-2.388769,-0.077298,0.394585,-0.043161,80.156307,188.344880,0
0.057292,173.735532,-8.055071,-147.789205,0.066618,-3.879439,0.649354,3.345369,4.230918,-0.720599,-3.128802,-0.066339,0.372701,-0.009553,75.326937,188.495839,0
0.058333,127.480815,54.753549,-186.518372,-0.679842,-3.084176,-1.076980,4.136420,3.341386,1.033619,-3.904412,-0.073645,0.414247,-0.005818,57.705957,188.495674,0
0.059375,55.603389,109.588772,-192.378220,-0.792942,-1.649864,-2.557262,4.005822,1.985035,2.603182,-3.936433,-0.055380,0.407127,-0.035692,30.256588,188.495629,0
0.060417,-8.697246,165.668329,-162.709660,-0.227442,-0.084191,-3.704182,3.464773,0.393435,3.681732,-3.324483,-0.091910,0.404906,-0.020755,0.658318,188.420175,0
0.061458,-69.152774,183.004426,-107.607387,0.813078,1.662546,-4.081198,2.054315,-1.345195,4.109795,-2.032985,-0.084604,0.400399,-0.005818,-23.217091,188.420273,0
0.062500,-126.318976,188.561642,-28.511743,2.305998,3.160763,-4.045481,0.561767,-2.830198,4.113992,-0.528016,-0.132093,0.394389,-0.009553,-46.199011,188.495712,0
0.063542,-163.658488,150.712170,40.796970,3.617958,3.924073,-3.168424,-0.938243,-3.690324,3.354390,0.870218,-0.164970,0.396544,-0.035692,-63.616410,188.495609,0
0.064583,-190.143227,75.303167,92.821591,4.613238,4.477916,-1.795294,-2.695719,-4.175523,1.944301,2.617121,-0.219765,0.393997,0.012853,-74.541870,188.344894,0
0.065625,-173.696601,7.855480,148.059281,5.676378,4.009280,-0.449944,-3.434530,-3.841029,0.609753,3.342922,-0.208806,0.395826,-0.028224,-72.935850,188.495691,0
0.066667,-127.385171,-54.820250,186.911554,6.468078,3.185615,1.312108,-4.184535,-2.977228,-1.094104,4.082954,-0.234377,0.408042,-0.013287,-53.731470,188.495761,0
0.067708,-54.350811,-109.450098,192.217425,6.569868,1.737101,2.792389,-4.068863,-1.536334,-2.630094,4.054491,-0.219765,0.408434,-0.009553,-25.388611,188.495707,0
0.068750,10.448895,-165.348441,162.770455,5.993058,0.199831,3.832158,-3.535277,0.033211,-3.733824,3.481678,-0.190541,0.371917,-0.013287,4.390618,188.344853,0
0.069792,69.645405,-182.539567,106.510985,4.941228,-1.564657,4.209174,-2.098700,1.760814,-4.128313,2.193737,-0.201500,0.395238,-0.031958,28.537468,188.495602,0
0.070833,125.858837,-188.749152,27.649243,3.459618,-3.023822,4.181394,-0.688242,3.220087,-4.124116,0.749251,-0.175929,0.392625,-0.017021,50.444937,188.495723,0
0.071875,162.869416,-150.162745,-40.662311,2.181588,-3.780031,3.312274,0.867740,4.050806,-3.326745,-0.652540,-0.106522,0.395107,-0.013287,68.710587,188.495676,0
0.072917,189.717115,-75.031603,-92.846970,1.163688,-4.351626,1.958987,2.636409,4.569087,-1.967016,-2.381654,-0.077298,0.397394,-0.009553,79.862247,188.269546,0
0.073958,173.281832,-8.755763,-148.146213,0.111858,-3.914942,0.649354,3.345369,4.194160,-0.661845,-3.153706,-0.055380,0.403991,-0.031958,77.679417,188.495705,0
0.075000,127.775720,54.209908,-186.949243,-0.645912,-3.119679,-1.108729,4.102837,3.345062,1.029422,-3.886623,-0.066339,0.409152,-0.020755,59.074467,188.495877,0
0.076042,55.830239,109.806229,-191.971970,-0.759012,-1.642763,-2.632665,4.009553,1.955629,2.624166,-3.879507,-0.033462,0.408760,-0.017021,29.792878,188.495564,0
0.077083,-9.196316,165.740814,-162.734281,-0.250062,-0.091292,-3.720057,3.442385,0.349326,3.656552,-3.306694,-0.062686,0.407780,-0.028224,0.285088,188.344891,0
0.078125,-69.515734,182.799051,-106.868750,0.858318,1.676747,-4.045481,2.002076,-1.352547,4.109795,-2.011638,-0.091910,0.397851,-0.054364,-22.832551,188.495470,0
0.079167,-126.069441,188.779098,-27.637689,2.351238,3.164313,-3.974046,0.524454,-2.844901,4.038451,-0.513784,-0.113828,0.390273,-0.020755,-45.248971,188.495622,0
0.080208,-163.420295,150.470552,41.437121,3.640578,3.874369,-3.112863,-0.953169,-3.675621,3.291440,0.855987,-0.172276,0.392625,0.001650,-63.084840,188.495595,0
0.081250,-189.995774,74.215885,93.117046,4.624548,4.467265,-1.783388,-2.703181,-4.138765,1.927515,2.577985,-0.186888,0.390861,-0.013287,-74.609730,188.344894,0
0.082292,-173.571833,7.372244,147.874622,5.698998,4.005729,-0.438038,-3.430799,-3.852057,0.634933,3.325132,-0.219765,0.406147,-0.028224,-71.409000,188.495626,0
0.083333,-126.931471,-55.098111,186.850001,6.434148,3.189165,1.276390,-4.214386,-2.944146,-1.098301,4.054491,-0.205153,0.395956,-0.031958,-53.211210,188.495729,0
0.084375,-53.976508,-109.558826,192.315910,6.524628,1.772604,2.764609,-4.080057,-1.558389,-2.617504,4.050933,-0.197847,0.379364,-0.031958,-23.364121,188.495732,0
0.085417,10.482922,-165.408846,162.684281,6.004368,0.196281,3.867876,-3.546471,-0.029276,-3.704447,3.506583,-0.208806,0.395565,0.012853,4.367998,188.344919,0
0.086458,69.634062,-182.793266,107.114205,4.929918,-1.529155,4.232985,-2.128550,1.705678,-4.124116,2.229316,-0.164970,0.403730,-0.039427,27.960658,188.495633,0
0.087500,126.221797,-188.531696,28.412500,3.459618,-3.013171,4.173456,-0.658391,3.238465,-4.111526,0.745694,-0.143052,0.395499,-0.017021,50.490177,188.495651,0
0.088542,163.527281,-150.404363,-40.379167,2.147658,-3.769380,3.304337,0.822963,4.050806,-3.389695,-0.670329,-0.117481,0.402489,-0.024490,67.862337,188.495600,0
0.089583,189.864568,-75.297383,-93.007008,1.152378,-4.380028,1.982798,2.628946,4.591141,-2.000590,-2.381654,-0.048074,0.398047,-0.050629,80.393817,188.420256,0
0.090625,173.338544,-8.695359,-148.355493,0.077928,-3.950444,0.669197,3.386414,4.230918,-0.657648,-3.157264,-0.073645,0.409217,-0.013287,75.066807,188.495807,0
0.091667,127.106512,54.705225,-187.084660,-0.657222,-3.105478,-1.132540,4.173733,3.367117,1.088176,-3.915086,-0.037115,0.410197,-0.020755,57.513687,188.495721,0
0.092708,54.854784,110.023685,-192.230493,-0.725082,-1.628562,-2.672351,3.994628,1.922547,2.674526,-3.897296,-0.055380,0.420257,-0.009553,29.577988,188.495758,0
0.093750,-10.330566,165.909947,-162.783523,-0.238752,-0.009635,-3.755774,3.498355,0.338299,3.740486,-3.342272,-0.066339,0.418624,-0.020755,-0.235172,188.420278,0
0.094792,-69.924064,183.113154,-106.019319,0.869628,1.708699,-4.116915,2.028196,-1.392980,4.197925,-2.015195,-0.080951,0.386942,-0.039427,-23.590321,188.496567,0
0.095833,-126.568511,189.056959,-27.034470,2.351238,3.238869,-4.065324,0.502065,-2.885334,4.122385,-0.499553,-0.066339,0.387987,0.016587,-46.413901,188.495779,0
0.096875,-163.420295,149.649050,41.547917,3.674508,3.977327,-3.128738,-1.009139,-3.679296,3.278850,0.927144,-0.150358,0.392298,-0.009553,-63.503310,188.495664,0
0.097916,-190.914517,73.382303,93.141667,4.658478,4.513419,-1.787356,-2.759152,-4.219632,1.961088,2.620679,-0.208806,0.394323,-0.046895,-74.835930,188.420173,0
0.098958,-172.936653,7.263515,148.440910,5.698998,4.087386,-0.445975,-3.516620,-3.844705,0.613950,3.414079,-0.223418,0.368455,-0.035692,-72.664410,188.495673,0
0.100000,-126.727306,-54.675279,187.527084,6.479388,3.245970,1.316076,-4.262894,-3.017661,-1.127678,4.132764,-0.238030,0.409675,-0.017021,-53.821950,188.495720,0
0.101041,-54.623031,-109.836687,191.835796,6.513318,1.769054,2.828107,-4.109908,-1.547361,-2.672061,4.114974,-0.208806,0.407519,-0.035692,-25.829701,188.495819,0
0.102083,9.983852,-165.928324,162.918182,6.004368,0.150127,3.986933,-3.568859,0.036887,-3.834545,3.538603,-0.216112,0.403338,-0.005818,4.096558,188.420168,0
0.103125,69.486610,-182.442920,106.966478,4.929918,-1.571758,4.304420,-2.106162,1.790220,-4.220640,2.211526,-0.175929,0.401770,-0.013287,28.356508,188.495526,0
0.104166,126.732210,-188.954527,28.449432,3.436998,-3.087727,4.260765,-0.632271,3.323008,-4.149297,0.710115,-0.154011,0.396414,-0.009553,50.716377,188.495767,0
0.105208,163.391171,-149.643266,-40.736174,2.125038,-3.851036,3.320211,0.919979,4.116970,-3.335138,-0.723697,-0.102869,0.398374,-0.013287,68.789757,188.495765,0
0.106250,190.783310,-74.040969,-92.883902,1.129758,-4.411980,1.990735,2.692379,4.653629,-1.941836,-2.459926,-0.055380,0.398243,-0.035692,80.235477,188.420289,0
0.107291,172.567254,-7.668482,-148.466288,0.066618,-3.953995,0.577920,3.427459,4.300757,-0.645058,-3.253326,-0.062686,0.398178,-0.017021,77.475837,188.495745,0
0.108333,126.403277,55.007248,-187.761743,-0.702462,-3.084176,-1.188100,4.211047,3.363441,1.125946,-3.989800,-0.066339,0.407323,-0.013287,58.757787,188.495772,0
0.109375,53.867987,110.289465,-191.984281,-0.747702,-1.610811,-2.700131,4.084180,1.885789,2.695509,-3.890181,-0.044421,0.409609,-0.043161,29.035108,188.495656,0
0.110416,-11.442131,166.115322,-162.931250,-0.238752,-0.020286,-3.795460,3.505818,0.290514,3.782453,-3.328041,-0.062686,0.397720,-0.017021,-0.483992,188.495658,0
0.111458,-70.094201,183.016507,-105.440720,0.880938,1.758403,-4.132789,2.058047,-1.440765,4.197925,-2.015195,-0.069992,0.399092,-0.039427,-22.934341,188.495685,0
0.112500,-126.625224,189.407305,-26.763636,2.396478,3.270822,-4.077229,0.550573,-3.010310,4.093008,-0.510226,-0.128440,0.389424,-0.009553,-45.463861,188.495707,0
0.113541,-163.408953,149.576565,41.387879,3.674508,3.977327,-3.144612,-1.027796,-3.741784,3.312423,0.934259,-0.146705,0.397394,-0.035692,-63.277110,188.495705,0
0.114583,-191.424929,73.551436,93.117046,4.635858,4.556022,-1.807199,-2.792734,-4.271092,1.923318,2.684720,-0.208806,0.398765,0.016587,-74.824620,188.495606,0
0.115625,-172.834571,8.060855,148.822538,5.687688,4.098036,-0.438038,-3.576322,-3.888814,0.584573,3.456773,-0.186888,0.388117,-0.028224,-71.216730,188.495712,0
0.116666,-126.920129,-54.192043,188.142614,6.490698,3.245970,1.347825,-4.303939,-2.995607,-1.110891,4.179016,-0.219765,0.414117,-0.050629,-53.369550,188.495723,0
0.117708,-55.348951,-110.029982,191.749622,6.535938,1.744202,2.871761,-4.150953,-1.569416,-2.735011,4.118532,-0.223418,0.411439,-0.005818,-23.624251,188.495658,0
0.118750,9.938482,-166.290752,163.053599,6.038298,0.118175,3.986933,-3.568859,0.051590,-3.817758,3.542161,-0.201500,0.407715,-0.002084,4.548958,188.495597,0
0.119791,69.509295,-182.829509,106.363258,4.929918,-1.635663,4.336168,-2.102431,1.819626,-4.220640,2.200853,-0.135746,0.402881,-0.005818,27.983278,188.495720,0
0.120833,127.015772,-189.063256,27.403030,3.459618,-3.165833,4.264734,-0.636003,3.334035,-4.191264,0.720789,-0.146705,0.396414,-0.009553,50.637207,188.495707,0
0.121875,163.561309,-149.051301,-41.277841,2.102418,-3.879439,3.292431,0.957292,4.179457,-3.343532,-0.759276,-0.099216,0.397198,-0.002084,67.884957,188.495727,0
0.122916,191.429833,-72.772474,-92.797728,1.163688,-4.465235,1.935175,2.763276,4.708765,-1.925049,-2.548873,-0.059033,0.394127,-0.020755,80.846217,188.571093,0
0.123958,172.192952,-6.665767,-148.700190,0.100548,-3.978847,0.558077,3.520744,4.278703,-0.561124,-3.267558,-0.044421,0.392952,-0.039427,74.704887,188.494551,0
0.125000,125.631987,55.333432,-188.192614,-0.657222,-3.101928,-1.247629,4.267018,3.418577,1.176307,-4.046726,-0.055380,0.399549,-0.024490,57.332727,188.495682,0
0.126041,53.164752,110.398193,-192.132008,-0.747702,-1.596610,-2.775534,4.140151,1.926223,2.783640,-3.932875,-0.007891,0.410263,-0.013287,29.125588,188.495843,0
0.127083,-11.941201,166.381102,-163.202084,-0.238752,0.018767,-3.878800,3.531938,0.272135,3.883173,-3.392082,-0.044421,0.399419,-0.017021,-0.619712,188.571145,0
