1-Time,2-VGERA,3-VGERB,4-VGERC,5-VN,6-IGERAN,7-IGERBN,8-IGERCN,9-IGERAT,10-IGERBT,11-IGERCT,12-IN,13-IFD,14-IFAULT,15-VFAULT,16-Speed (rad/s),17-Active Power,18-Reactive Power,19-FAULT 
0.000000,88.678915,104.259046,-183.594593,-3.311226,-5.575546,-0.360259,5.921619,5.708157,0.577963,-6.343603,-0.086703,0.597452,-0.018440,78.206791,188.721878,1580.716998,909.894280,0
0.001042,9.669838,146.000812,-181.443747,-3.266189,-4.170138,-2.740653,6.551798,4.144534,2.848796,-6.834815,-0.108580,0.633900,-0.033307,13.009833,188.570993,1581.005468,910.057715,0
0.002083,-61.587492,173.883466,-135.255243,-2.320407,-1.806997,-4.767318,6.010540,1.828743,4.877112,-6.290293,-0.061180,0.634796,-0.018440,-56.510321,188.495676,1580.572661,909.694052,0
0.003125,-113.386349,193.368438,-52.854757,-0.744105,0.754295,-6.319569,4.854568,-0.713070,6.283706,-5.033705,-0.057533,0.619707,-0.025873,-120.727805,188.721842,1581.096529,909.619494,0
0.004167,-160.721736,159.648514,15.231059,0.550714,2.926623,-6.515160,2.805521,-2.962167,6.543859,-2.954624,-0.021072,0.614884,-0.029590,-162.980297,188.646554,1581.674825,908.781138,0
0.005208,-182.779191,111.646658,84.434830,1.913090,5.025561,-5.957516,0.273208,-4.988948,5.895680,-0.471911,0.019036,0.609165,-0.022156,-179.822751,188.571051,1581.566077,908.642868,0
0.006250,-183.265087,29.173197,134.353897,2.858871,6.045675,-4.451042,-2.131522,-6.052360,4.392080,1.957492,0.059144,0.615160,-0.025873,-171.063774,188.495573,1581.633739,908.837080,0
0.007292,-157.648157,-43.986471,168.585156,3.568207,6.438308,-2.370277,-4.385474,-6.389539,2.249120,4.055613,0.117483,0.627010,-0.033307,-139.123907,188.721712,1582.098941,908.497751,0
0.008333,-90.311902,-103.909513,183.021342,3.860949,5.616346,0.309748,-5.962854,-5.585496,-0.524383,5.639675,0.153945,0.629215,0.003860,-78.824320,188.571116,1581.388452,908.634506,0
0.009375,-11.314124,-146.285509,181.684658,3.815911,4.086176,2.765050,-6.558237,-4.066337,-2.870175,6.134695,0.161237,0.631764,-0.051890,-13.267096,188.571154,1582.136408,908.444526,0
0.010417,60.768100,-173.592657,136.237406,2.926427,1.818442,4.770907,-6.036310,-1.743135,-4.867626,5.593981,0.161237,0.630455,-0.048173,56.455708,188.495649,1581.177751,908.224722,0
0.011458,113.177154,-193.500450,53.946285,1.350125,-0.834587,6.318996,-4.841677,0.798678,-6.287447,4.341201,0.077375,0.625701,-0.011006,120.853325,188.721947,1581.688877,908.532324,0
0.012500,160.682040,-160.038916,-14.747115,0.032786,-3.036271,6.522911,-2.842890,3.029249,-6.525554,2.284967,0.095606,0.615917,-0.025873,163.195884,188.571266,1581.494928,909.136283,0
0.013542,182.829893,-111.778669,-83.938733,-1.318330,-5.087506,5.965266,-0.240986,5.130135,-5.886193,-0.251056,0.029975,0.609096,-0.029590,179.914496,188.571180,1582.622439,909.822549,0
0.014583,183.270590,-28.764938,-133.760587,-2.297889,-6.070925,4.400531,2.090288,6.156494,-4.351728,-2.661420,-0.042949,0.588289,-0.059323,170.997903,188.495736,1582.848629,910.454527,0
0.015625,157.653660,44.688355,-168.040453,-3.007225,-6.492914,2.357220,4.367436,6.501084,-2.195539,-4.748117,-0.064826,0.580916,-0.029590,138.967969,188.721947,1583.620679,910.371328,0
0.016667,89.323011,103.941931,-183.327256,-3.288707,-5.674621,-0.389389,5.940950,5.656283,0.600010,-6.393105,-0.108580,0.602137,0.011294,78.735933,188.571015,1584.173653,909.349756,0
0.017708,10.246134,145.742422,-181.893359,-3.243670,-4.126104,-2.769784,6.571128,4.144534,2.888480,-6.850046,-0.079410,0.622394,-0.022156,13.640300,188.571096,1585.000450,908.895111,0
0.018750,-61.158094,173.895211,-135.656248,-2.297889,-1.873048,-4.821418,6.010540,1.791690,4.952072,-6.358834,-0.104934,0.610337,-0.003573,-55.969921,188.495653,1586.727921,908.677418,0
0.019792,-113.013452,193.662063,-53.474492,-0.800402,0.768973,-6.361184,4.804309,-0.731597,6.323390,-5.060360,-0.053887,0.620534,-0.037023,-120.333763,188.721947,1587.706338,908.608064,0
0.020833,-160.597437,160.012609,14.611324,0.505677,3.000012,-6.565099,2.805521,-2.988104,6.530631,-2.954624,-0.039302,0.616606,-0.007290,-162.800164,188.571029,1588.072977,908.094243,0
0.021875,-182.700091,112.163438,83.888004,1.879312,5.043909,-5.965839,0.222949,-5.055643,5.882452,-0.433832,0.011744,0.609441,-0.025873,-179.822751,188.571069,1589.129560,907.145629,0
0.022917,-183.434586,29.713467,134.220229,2.858871,6.089708,-4.426073,-2.146987,-6.078297,4.396489,2.018418,0.059144,0.611990,-0.022156,-171.446557,188.495607,1590.154559,906.604153,0
0.023958,-158.314852,-43.446201,168.244909,3.568207,6.478673,-2.287047,-4.412537,-6.430297,2.222663,4.120346,0.110191,0.624461,0.011294,-139.439140,188.718146,1591.544213,906.006843,0
0.025000,-90.537900,-103.228302,183.422347,3.883467,5.583321,0.401301,-6.024712,-5.552149,-0.559658,5.738679,0.168530,0.626459,-0.037023,-79.240878,188.569925,1592.955470,905.114056,0
0.026042,-11.720921,-145.839199,182.061360,3.804652,4.097185,2.765050,-6.589166,-4.047811,-2.852537,6.161350,0.179468,0.634727,-0.022156,-13.706171,188.570950,1593.219019,904.856300,0
0.027083,60.112704,-174.038968,136.504743,2.903908,1.763400,4.770907,-6.074971,-1.720903,-4.938176,5.609212,0.157591,0.632522,-0.018440,56.072925,188.495533,1594.535591,904.400119,0
0.028125,112.612157,-193.629645,54.237926,1.361384,-0.852934,6.298188,-4.837811,0.813499,-6.300675,4.306931,0.088314,0.620120,-0.040740,120.402992,188.721751,1594.772222,903.624002,0
0.029167,160.512541,-160.449991,-14.285351,0.055305,-3.010584,6.535395,-2.831291,3.084828,-6.565238,2.231657,0.095606,0.611783,-0.018440,162.993234,188.570808,1595.975940,902.699457,0
0.030208,182.773394,-112.060550,-83.489121,-1.307070,-5.160895,5.940297,-0.213924,5.170893,-5.855328,-0.281519,0.051852,0.609303,-0.025873,179.813171,188.570863,1596.492776,901.778270,0
0.031250,183.801687,-29.187758,-133.274520,-2.252852,-6.070925,4.417177,2.144414,6.134262,-4.325271,-2.707114,0.015390,0.582914,-0.029590,171.313136,188.495405,1596.824046,900.784021,0
0.032292,157.811859,44.077615,-167.906785,-2.950928,-6.536948,2.290636,4.402232,6.504789,-2.195539,-4.797619,-0.053887,0.614815,-0.040740,139.305719,188.721603,1597.510569,900.329796,0
0.033333,90.034906,103.248975,-183.169284,-3.322485,-5.663613,-0.401874,5.971879,5.704452,0.577963,-6.396913,-0.086703,0.606065,-0.033307,79.433949,188.646250,1597.857563,900.596966,0
0.034375,10.788530,145.437052,-182.270061,-3.277448,-4.118765,-2.794753,6.578861,4.185292,2.892890,-6.876701,-0.148688,0.600828,-0.044457,14.270766,188.570883,1598.467821,900.897427,0
0.035417,-60.547898,173.249236,-136.506865,-2.365445,-1.836353,-4.783964,6.026005,1.799100,4.921206,-6.339795,-0.083057,0.631696,-0.033307,-55.238130,188.495609,1598.128669,900.349950,0
0.036458,-112.527555,193.838238,-54.106379,-0.800402,0.772642,-6.311246,4.827505,-0.698249,6.371893,-5.056552,-0.072118,0.623083,-0.029590,-119.996014,188.721639,1598.655542,900.369943,0
0.037500,-160.055041,160.294489,13.906527,0.505677,2.952309,-6.548453,2.855781,-2.988104,6.574725,-2.958432,-0.024718,0.616675,-0.063040,-162.271023,188.571015,1599.208904,900.235609,0
0.038542,-183.389387,112.445318,83.134601,1.868052,5.087942,-5.970000,0.211350,-5.051938,5.997096,-0.426217,0.011744,0.608752,-0.014723,-180.070434,188.570803,1600.282978,901.085209,0
0.039583,-183.581485,30.359443,133.515432,2.858871,6.030997,-4.467688,-2.116058,-6.096823,4.396489,1.976531,0.091960,0.617020,-0.007290,-171.457815,188.495577,1600.257246,901.027960,0
0.040625,-158.179253,-42.412640,168.706673,3.534429,6.475003,-2.353631,-4.385474,-6.434002,2.257938,4.108923,0.110191,0.628664,-0.007290,-140.002056,188.721795,1600.301407,901.242512,0
0.041667,-92.040790,-102.875952,182.681095,3.860949,5.579652,0.359686,-6.005381,-5.607728,-0.546430,5.712024,0.150299,0.634038,-0.025873,-79.916378,188.570837,1600.464187,901.375622,0
0.042708,-12.387617,-145.698258,182.559579,3.804652,4.133879,2.765050,-6.643292,-4.103390,-2.861356,6.203236,0.157591,0.633763,-0.037023,-14.302862,188.495483,1601.410301,901.918153,0
0.043750,59.852806,-172.981917,137.525483,2.960204,1.803764,4.779230,-6.121365,-1.732019,-4.889673,5.643483,0.106545,0.631764,-0.033307,55.273584,188.570788,1601.176799,901.914678,0
0.044792,112.307059,-194.005485,54.809054,1.361384,-0.801562,6.331481,-4.861008,0.839436,-6.331541,4.360240,0.102898,0.619845,0.003860,120.189084,188.721675,1602.237858,902.098070,0
0.045834,159.811945,-160.555696,-13.762829,0.055305,-3.006915,6.543719,-2.862220,3.081123,-6.600513,2.254504,0.062790,0.611921,-0.022156,162.419060,188.570866,1602.525291,902.166903,0
0.046875,183.360990,-112.530350,-82.638504,-1.307070,-5.124201,5.977751,-0.237120,5.133840,-5.908240,-0.247248,0.026329,0.608614,-0.022156,180.083371,188.495374,1602.635888,902.806983,0
0.047917,183.620888,-29.598834,-132.873515,-2.286629,-6.107619,4.450469,2.148280,6.182431,-4.342909,-2.653804,0.015390,0.610061,-0.022156,171.200553,188.570848,1602.744686,903.291185,0
0.048958,158.026557,43.267209,-168.113363,-2.950928,-6.536948,2.344735,4.406098,6.552958,-2.235224,-4.805235,-0.050241,0.605514,-0.025873,139.902410,188.721699,1603.438170,903.805683,0
0.050000,91.006700,102.990585,-182.743976,-3.311226,-5.678291,-0.364420,6.002808,5.659988,0.582373,-6.480685,-0.083057,0.603791,-0.059323,80.053157,188.570866,1604.376516,902.979609,0
0.051042,11.477826,145.119936,-182.780431,-3.243670,-4.177477,-2.782269,6.605924,4.181587,2.919346,-6.918587,-0.093995,0.602069,-0.033307,15.036332,188.495611,1605.397732,902.637583,0
0.052083,-59.982902,172.955610,-137.163055,-2.365445,-1.858370,-4.800610,6.060800,1.802806,4.991756,-6.320756,-0.075764,0.621912,-0.018440,-54.495081,188.570971,1606.263086,901.948134,0
0.053125,-111.973859,193.967433,-54.920541,-0.811661,0.761634,-6.386153,4.839104,-0.783471,6.407168,-5.045129,-0.068472,0.622463,-0.063040,-119.523164,188.646313,1607.515877,900.678913,0
0.054167,-159.772543,160.693820,13.068062,0.471899,2.977995,-6.565099,2.813254,-3.017746,6.565906,-2.950816,-0.035656,0.616538,-0.033307,-161.888240,188.570803,1607.986402,899.940757,0
0.055208,-183.287687,113.150019,82.429804,1.856793,5.080603,-5.957516,0.226815,-5.051938,5.966230,-0.430025,0.015390,0.610061,0.011294,-180.047917,188.495466,1607.999495,899.241246,0
0.056250,-183.830084,31.040653,133.308853,2.881389,6.086039,-4.434396,-2.166317,-6.111644,4.352396,1.980339,0.077375,0.613988,-0.037023,-171.716757,188.570937,1608.346093,898.492177,0
0.057292,-158.665150,-41.813644,168.524398,3.556947,6.486011,-2.357793,-4.435734,-6.419181,2.253529,4.124154,0.124775,0.626459,0.015011,-140.283515,188.646431,1608.610780,897.960076,0
0.058333,-92.300689,-102.312191,182.863370,3.860949,5.579652,0.392978,-5.993783,-5.600317,-0.555248,5.734871,0.146652,0.630318,-0.018440,-80.434261,188.570803,1609.037833,897.553618,0
0.059375,-12.873513,-145.134498,182.936280,3.827171,4.115532,2.790019,-6.627827,-4.062632,-2.914269,6.184197,0.146652,0.634383,-0.014723,-14.854520,188.495466,1609.464691,896.271806,0
0.060417,59.287810,-173.087622,137.926489,2.926427,1.796425,4.783392,-6.078837,-1.694966,-4.933766,5.662522,0.186760,0.633074,-0.011006,54.800734,188.570921,1610.490638,895.659353,0
0.061458,111.730763,-194.040720,55.295121,1.372643,-0.860273,6.335642,-4.857141,0.809794,-6.322722,4.352625,0.121129,0.621223,-0.029590,119.558618,188.646239,1610.270789,895.464994,0
0.062500,159.348648,-161.166437,-12.960819,0.077824,-2.988567,6.572849,-2.877685,3.099649,-6.534373,2.262120,0.059144,0.615228,-0.022156,162.025018,188.570931,1610.103023,894.546405,0
0.063542,183.338390,-113.047130,-81.921556,-1.250774,-5.098514,5.981912,-0.271915,5.130135,-5.917059,-0.266287,0.011744,0.610199,-0.040740,180.027079,188.495427,1610.401809,894.040015,0
0.064583,183.993786,-30.127359,-132.205173,-2.297889,-6.103950,4.458792,2.101886,6.149084,-4.351728,-2.665228,-0.024718,0.598072,-0.018440,171.459494,188.570899,1610.333464,893.563869,0
0.065625,158.015257,42.550763,-168.149818,-2.962187,-6.536948,2.361382,4.367436,6.504789,-2.221995,-4.759541,-0.042949,0.600277,-0.011006,140.273935,188.721708,1609.515482,892.973148,0
0.066667,91.944594,102.379845,-182.415881,-3.299967,-5.667283,-0.356097,5.929351,5.708157,0.555916,-6.404528,-0.123164,0.602206,-0.022156,80.852498,188.570845,1608.920328,893.206009,0
0.067708,12.020222,144.838056,-183.072071,-3.288707,-4.217841,-2.744815,6.598191,4.166766,2.884071,-6.872893,-0.093995,0.635761,0.007577,15.576732,188.495445,1608.277296,892.768253,0
0.068750,-59.677804,172.098225,-138.135189,-2.410482,-1.920751,-4.754834,6.072398,1.843564,4.903568,-6.297909,-0.090349,0.627424,-0.022156,-53.605673,188.646250,1607.089111,892.751670,0
0.069792,-111.680061,194.096628,-55.588883,-0.811661,0.732278,-6.307084,4.831372,-0.742713,6.318981,-5.037513,-0.090349,0.620740,-0.011006,-119.129123,188.646377,1605.978340,892.567615,0
0.070834,-159.049347,160.975700,12.326810,0.483158,2.900937,-6.552614,2.844183,-2.921409,6.526222,-3.004126,-0.021072,0.619018,-0.018440,-161.235257,188.570928,1604.668647,892.951427,0
0.071875,-184.010883,113.537604,81.421215,1.845534,5.065926,-5.999131,0.265476,-5.022296,5.975049,-0.464295,-0.002841,0.608407,-0.014723,-180.261825,188.495452,1604.591721,893.143838,0
0.072917,-183.920483,31.757099,132.531146,2.858871,6.056683,-4.480173,-2.073530,-6.056065,4.378852,1.927029,0.070083,0.615986,0.003860,-171.604174,188.646303,1603.683806,893.184873,0
0.073958,-158.506951,-40.568673,169.010465,3.556947,6.475003,-2.399408,-4.339081,-6.445118,2.275576,4.051805,0.150299,0.626735,-0.018440,-140.846431,188.646326,1603.319569,893.587735,0
0.075000,-93.950478,-101.901116,181.745417,3.827171,5.572313,0.309748,-5.912594,-5.600317,-0.528792,5.673946,0.132068,0.633211,0.003860,-81.154794,188.570948,1602.594961,893.149647,0
0.076042,-13.370710,-145.052283,183.361589,3.860949,4.111863,2.715112,-6.616229,-4.114505,-2.839309,6.172773,0.168530,0.632040,-0.033307,-15.361145,188.495483,1602.105461,894.017270,0
0.077083,59.378209,-171.666476,138.947229,3.005242,1.866145,4.700161,-6.098168,-1.802419,-4.836760,5.643483,0.135714,0.618742,-0.033307,53.978877,188.646292,1600.433038,894.808023,0
0.078125,111.595164,-194.299110,55.999918,1.395162,-0.775875,6.360611,-4.911267,0.750510,-6.335950,4.398319,0.106545,0.621636,0.000144,119.468551,188.570960,1600.639515,895.668877,0
0.079167,158.568954,-161.448317,-12.353235,0.077824,-2.962881,6.522911,-2.866086,3.021838,-6.547601,2.277351,0.070083,0.614195,0.018727,161.315744,188.570826,1600.027005,895.867527,0
0.080208,183.824287,-113.246796,-81.156000,-1.262033,-5.080167,5.981912,-0.291246,5.115314,-5.921468,-0.212978,0.048206,0.605858,-0.029590,180.319796,188.495428,1599.856774,896.276692,0
0.081250,183.892086,-30.749845,-131.767713,-2.297889,-6.059916,4.496246,2.082556,6.104620,-4.369365,-2.589071,-0.017425,0.598141,0.000144,171.391944,188.721657,1598.809755,896.574472,0
0.082292,158.105657,41.446732,-168.405003,-3.007225,-6.544287,2.390512,4.382901,6.541842,-2.279317,-4.774772,-0.072118,0.595730,-0.029590,140.915660,188.570761,1599.456455,897.082771,0
0.083333,93.029387,102.027494,-181.771842,-3.299967,-5.722325,-0.277028,5.979611,5.722978,0.529460,-6.404528,-0.090349,0.621154,-0.011006,81.494222,188.570962,1599.512159,897.036370,0
0.084375,12.675618,144.532686,-183.460924,-3.254929,-4.188485,-2.748976,6.594325,4.207524,2.866433,-6.914779,-0.112226,0.628182,0.007577,16.207198,188.495530,1600.115622,897.520719,0
0.085417,-59.191907,171.734129,-138.888593,-2.466778,-1.880387,-4.754834,6.053068,1.862090,4.903568,-6.335987,-0.083057,0.622807,0.007577,-53.054015,188.721797,1600.590664,897.660245,0
0.086458,-111.194164,194.437234,-56.573169,-0.822920,0.765303,-6.323730,4.870033,-0.761239,6.349846,-5.033705,-0.068472,0.620672,-0.044457,-118.678790,188.570917,1601.468295,897.086577,0
0.087500,-158.800749,161.316305,11.561255,0.471899,2.900937,-6.544291,2.851915,-2.951052,6.583544,-2.988894,-0.039302,0.618673,-0.011006,-160.863732,188.570979,1602.562023,896.718454,0
0.088542,-183.875283,114.136600,80.850087,1.789237,5.084273,-5.965839,0.269342,-5.033411,5.953002,-0.449064,0.022683,0.610061,-0.037023,-180.329375,188.495459,1602.805331,895.954221,0
0.089583,-184.067382,32.414820,132.251658,2.858871,6.078700,-4.505142,-2.104459,-6.037539,4.374442,1.946069,0.055498,0.616813,-0.014723,-171.840598,188.721699,1602.943905,895.399109,0
0.090625,-158.958948,-39.899208,168.706673,3.545688,6.486011,-2.374439,-4.420269,-6.437708,2.235891,4.089884,0.139360,0.625563,-0.003573,-141.161664,188.570899,1603.562398,894.361399,0
0.091667,-94.323375,-101.384335,181.830478,3.883467,5.623685,0.338878,-5.958988,-5.589201,-0.524383,5.689177,0.128422,0.624737,-0.033307,-81.605127,188.570875,1603.800759,894.025436,0
0.092708,-13.709708,-144.429797,183.653229,3.804652,4.137549,2.769211,-6.608497,-4.129326,-2.874584,6.188004,0.146652,0.628044,0.011294,-15.833994,188.495450,1604.414370,893.702676,0
0.093750,58.790613,-171.607751,139.506206,2.982723,1.829450,4.737615,-6.086570,-1.809829,-4.911719,5.662522,0.132068,0.619776,-0.037023,53.415961,188.721636,1605.660371,893.436938,0
0.094792,110.973668,-194.310855,56.534591,1.406421,-0.794223,6.323157,-4.853275,0.776447,-6.322722,4.379280,0.128422,0.615986,-0.011006,118.905635,188.570812,1605.755394,892.562434,0
0.095834,158.241256,-161.718452,-11.952230,0.089083,-2.944534,6.552042,-2.908614,3.018133,-6.560829,2.345892,0.044560,0.614264,-0.007290,161.000511,188.570906,1605.936990,893.199454,0
0.096875,183.892086,-113.869281,-80.463355,-1.239515,-5.091175,5.977751,-0.322175,5.096788,-5.969971,-0.216786,0.037267,0.608821,0.003860,180.274762,188.495537,1606.322609,893.271424,0
0.097917,184.197184,-31.513270,-131.147978,-2.252852,-6.096611,4.483762,2.090288,6.097210,-4.448734,-2.592879,-0.017425,0.591458,-0.029590,171.707177,188.721643,1606.707815,893.685624,0
0.098958,158.049157,40.577602,-168.477913,-2.939669,-6.525939,2.407158,4.340373,6.534431,-2.288136,-4.759541,-0.086703,0.615091,-0.014723,141.275926,188.646284,1606.569489,893.479564,0
0.100000,94.068980,101.592929,-181.395140,-3.266189,-5.700308,-0.231251,5.913887,5.730388,0.480957,-6.335987,-0.101287,0.612955,-0.018440,82.203497,188.570821,1605.721971,893.567741,0
0.101042,13.421413,144.192081,-183.789020,-3.288707,-4.225180,-2.703200,6.574995,4.218640,2.795883,-6.888124,-0.112226,0.634452,0.000144,16.916472,188.570939,1605.039102,893.684982,0
0.102083,-58.773810,170.677078,-140.006547,-2.410482,-1.931759,-4.692411,6.087863,1.917669,4.824200,-6.377874,-0.075764,0.629697,-0.037023,-52.018250,188.721583,1604.440413,894.259252,0
0.103125,-110.866466,194.225824,-57.241511,-0.845439,0.699253,-6.286276,4.866167,-0.683428,6.332209,-5.087015,-0.072118,0.621085,-0.018440,-118.228457,188.646252,1603.994258,895.183162,0
0.104167,-157.953255,161.821341,10.734941,0.471899,2.838555,-6.548453,2.890576,-2.891767,6.539450,-3.023165,0.000805,0.618329,-0.007290,-160.154458,188.570772,1603.123379,895.031518,0
0.105208,-184.395080,114.441970,79.841498,1.800497,4.985197,-5.982485,0.300271,-4.992654,5.948592,-0.498566,-0.002841,0.608959,-0.018440,-180.509508,188.570861,1602.666062,895.245425,0
0.106250,-184.169082,33.236970,131.449648,2.802574,6.042005,-4.488496,-2.034869,-6.044949,4.436174,1.862296,0.081021,0.614195,0.011294,-171.773049,188.721630,1602.341465,896.101670,0
0.107292,-158.495651,-38.759942,169.484380,3.579466,6.519037,-2.445185,-4.315884,-6.463644,2.306442,4.017535,0.106545,0.622670,-0.014723,-141.657030,188.570792,1601.832848,897.208386,0
0.108333,-95.939265,-101.102455,180.979861,3.849689,5.634694,0.209871,-5.881665,-5.563265,-0.405329,5.639675,0.168530,0.630249,-0.007290,-82.404468,188.570857,1600.611363,897.533053,0
0.109375,-14.512003,-144.300602,184.114993,3.872208,4.130210,2.710950,-6.593032,-4.136737,-2.799625,6.203236,0.157591,0.633349,-0.048173,-16.509494,188.646252,1600.439324,897.903674,0
0.110417,58.666314,-170.304055,140.599856,3.005242,1.888162,4.662707,-6.109766,-1.857998,-4.801485,5.635867,0.128422,0.611852,-0.022156,52.470261,188.721666,1598.846979,897.938202,0
