1-Time,2-VGERA,3-VGERB,4-VGERC,5-VN,6-IGERAN,7-IGERBN,8-IGERCN,9-IGERAT,10-IGERBT,11-IGERCT,12-IN,13-IFD,14-IFAULT,15-VFAULT,16-Speed (rad/s),17-Active Power,18-Reactive Power,19-FAULT 
0.000000,142.033243,-161.857060,24.805492,3.470928,-6.229723,1.454977,4.972246,6.881134,-1.467610,-4.747622,-0.004238,0.178032,-0.043161,212.811294,188.646427,1014.057115,-1341.281969,0
0.001042,194.775870,-97.816188,-23.685985,2.509578,-5.019078,-0.981734,5.994642,5.649757,0.928702,-5.708240,0.024986,0.192534,-0.028224,212.551164,188.495830,1014.182760,-1341.140038,0
0.002083,184.715072,-53.660483,-99.346970,1.061898,-3.336246,-3.267638,6.263300,3.973615,3.241079,-6.067583,0.006721,0.196846,-0.031958,165.467635,188.571058,1013.417900,-1340.789894,0
0.003125,139.912195,-9.202757,-176.460607,-0.351852,-1.330339,-4.783637,5.662550,1.918871,4.835823,-5.501885,0.032292,0.199459,-0.035692,98.263616,188.495694,1012.805995,-1340.269055,0
0.004167,89.279273,46.188188,-206.560039,-0.939972,1.463730,-5.644820,3.669998,-0.779130,5.738112,-3.708731,0.014027,0.216313,-0.031958,24.997438,188.646496,1012.281642,-1339.930615,0
0.005208,43.466914,128.314174,-178.282576,-0.431022,3.810464,-6.140893,1.875209,-3.190422,6.182961,-1.787493,-0.088257,0.191359,-0.061832,-52.464750,188.495627,1010.457112,-1339.857647,0
0.006250,1.091332,186.942801,-124.140531,0.586878,5.269628,-4.894758,-0.647197,-4.660722,5.226115,0.453950,-0.102869,0.189921,-0.024490,-118.062749,188.570912,1010.225432,-1339.244128,0
0.007292,-64.740541,199.833125,-69.432197,1.593468,6.480273,-3.239858,-3.322589,-5.836962,3.455111,3.143682,-0.154011,0.173264,-0.013287,-177.689068,188.495754,1008.550090,-1338.422160,0
0.008333,-142.686204,162.732669,-24.732386,2.464338,6.427019,-1.219849,-5.039019,-5.921504,1.524632,4.847891,-0.201500,0.175681,-0.050629,-204.821757,188.722114,1007.898583,-1337.584277,0
0.009375,-194.476062,98.196480,23.882197,3.380448,5.184422,1.208924,-6.091265,-4.657046,-0.934630,5.812067,-0.223418,0.191751,-0.024490,-205.251537,188.495718,1006.520036,-1336.773927,0
0.010417,-185.606226,53.545459,99.555493,4.805508,3.476738,3.502766,-6.311416,-3.013986,-3.184057,6.157179,-0.259948,0.194755,-0.054364,-160.226428,188.571176,1004.954067,-1336.655634,0
0.011458,-140.542472,9.317269,175.758144,6.241878,1.495683,4.975110,-5.766636,-0.999675,-4.699063,5.623501,-0.234377,0.200047,-0.013287,-93.520050,188.495689,1003.832497,-1334.863460,0
0.012500,-89.818810,-45.952867,206.731629,6.796068,-1.252233,5.875979,-3.762890,1.698326,-5.676893,3.794768,-0.205153,0.174505,-0.035692,-21.317011,188.721891,1003.033366,-1334.643867,0
0.013542,-43.484695,-127.474807,178.294129,6.321048,-3.662872,6.304586,-1.923325,4.087564,-6.155316,1.930457,-0.143052,0.198479,-0.035692,57.649407,188.495850,1001.090504,-1333.937176,0
0.014583,-0.859578,-186.961178,124.287500,5.291838,-5.004877,5.149728,0.531916,5.631379,-5.148109,-0.318103,-0.117481,0.180972,-0.002084,122.263436,188.495651,1000.687107,-1333.467768,0
0.015625,64.620677,-199.428671,69.492993,4.273938,-6.215522,3.478954,3.222234,6.734104,-3.385499,-2.933120,-0.026156,0.188288,-0.013287,181.290324,188.552626,998.837730,-1331.767415,0
0.016667,142.407546,-162.835613,24.916288,3.425688,-6.190670,1.403385,4.927470,6.855404,-1.404660,-4.697812,0.032292,0.178947,-0.031958,211.420164,188.721788,998.234961,-1331.721481,0
0.017708,193.596250,-97.840349,-23.685985,2.509578,-4.980025,-0.973797,5.916283,5.554188,0.962275,-5.661988,0.024986,0.191424,-0.028224,210.232614,188.495604,996.426595,-1330.940372,0
0.018752,185.191457,-52.851063,-99.482387,1.050588,-3.325595,-3.227952,6.181210,3.936858,3.224293,-6.010657,0.035945,0.191620,-0.013287,166.598635,188.495698,996.005538,-1330.198462,0
0.019805,139.061508,-8.260446,-177.876326,-0.453642,-1.280635,-4.763794,5.587923,1.871086,4.806446,-5.441402,0.032292,0.185741,-0.020755,96.601046,188.496089,995.632345,-1329.495195,0
0.020836,89.778343,46.659343,-206.621592,-0.973902,1.449529,-5.585291,3.688655,-0.790157,5.738112,-3.680268,-0.048074,0.193449,-0.013287,26.252848,188.646399,995.381481,-1329.722733,0
0.021875,43.172009,127.794695,-178.233334,-0.442332,3.792713,-6.109144,1.793119,-3.201449,6.195551,-1.847977,-0.059033,0.187635,-0.073035,-51.401610,188.495613,995.982979,-1329.602427,0
0.022917,0.467494,187.027367,-124.226705,0.575568,5.237676,-4.910632,-0.636003,-4.682776,5.205132,0.475297,-0.095563,0.181690,-0.020755,-119.205059,188.495609,995.827561,-1329.820731,0
0.023958,-64.887994,199.470698,-69.764584,1.593468,6.458971,-3.271607,-3.363634,-5.847989,3.492881,3.111662,-0.179582,0.170651,-0.028224,-176.603308,188.495671,996.407568,-1329.588517,0
0.025000,-142.776944,162.998449,-24.523106,2.441718,6.395066,-1.219849,-5.046482,-5.903125,1.474272,4.855007,-0.227071,0.177640,-0.039427,-207.513537,188.646342,995.841909,-1329.824010,0
0.026042,-194.124444,98.003185,24.066856,3.380448,5.152469,1.268453,-6.080071,-4.605585,-0.951417,5.822741,-0.241683,0.189660,-0.005818,-206.280747,188.495568,995.163673,-1329.749939,0
0.027083,-185.685624,53.158870,99.395455,4.794198,3.462537,3.459111,-6.289028,-3.069122,-3.179861,6.189199,-0.252642,0.196519,-0.046895,-163.189648,188.495676,996.043339,-1329.823690,0
0.028125,-140.916774,9.208541,175.610417,6.241878,1.495683,4.971142,-5.729322,-1.029081,-4.749424,5.627059,-0.216112,0.220036,-0.054364,-95.352269,188.495707,996.386650,-1330.349890,0
0.029167,-90.261167,-45.880381,206.830114,6.784758,-1.273534,5.844230,-3.706920,1.672596,-5.622336,3.798326,-0.186888,0.204554,-0.031958,-20.287801,188.571064,996.320908,-1329.779553,0
0.030208,-43.008310,-127.378160,178.515720,6.321048,-3.641570,6.312523,-1.912131,4.094915,-6.121742,1.944688,-0.143052,0.193057,-0.028224,58.101807,188.495492,996.276455,-1329.468960,0
0.031250,-0.553331,-186.659156,124.385985,5.337078,-4.997776,5.110042,0.565499,5.583594,-5.148109,-0.346565,-0.128440,0.196585,-0.028224,124.502816,188.495640,995.963383,-1329.059507,0
0.032292,64.790815,-199.416590,69.948485,4.296558,-6.219072,3.451174,3.196114,6.737780,-3.377105,-2.943794,-0.077298,0.167515,-0.050629,181.663554,188.495517,995.810900,-1329.341130,0
0.033333,142.362176,-162.799370,24.583902,3.448308,-6.169368,1.383542,4.927470,6.844376,-1.421446,-4.712043,-0.004238,0.177510,-0.050629,213.150594,188.646444,995.947378,-1329.253378,0
0.034375,193.380743,-97.743702,-23.944508,2.486958,-4.933871,-1.013483,5.920014,5.546836,1.025226,-5.626410,0.010374,0.189464,-0.020755,211.408854,188.495743,995.297220,-1329.237182,0
0.035417,185.372937,-52.742335,-99.137690,1.073208,-3.307844,-3.231921,6.132703,3.947885,3.203309,-5.996426,0.003068,0.170847,-0.061832,166.010515,188.495466,995.332356,-1328.888554,0
0.036458,141.046445,-8.828249,-175.007955,-0.340542,-1.291286,-4.720140,5.606579,1.841680,4.743495,-5.430728,0.014027,0.203770,-0.024490,99.304136,188.495682,993.939148,-1328.662257,0
0.037500,89.835056,46.345240,-206.941667,-0.928662,1.456629,-5.565448,3.617759,-0.779130,5.658374,-3.626900,-0.018850,0.204554,-0.061832,24.646828,188.646610,993.007304,-1327.818575,0
0.038542,42.672939,126.997355,-178.467235,-0.476262,3.792713,-6.017867,1.785657,-3.205125,6.107421,-1.783935,-0.080951,0.193906,-0.043161,-52.645710,188.495566,991.416004,-1327.244565,0
0.039583,0.240644,187.136095,-124.571402,0.552948,5.173771,-4.886820,-0.684510,-4.646019,5.179951,0.468182,-0.110175,0.192012,-0.017021,-118.447289,188.495508,991.268825,-1326.790939,0
0.040625,-64.400266,199.035786,-69.961553,1.559538,6.402167,-3.176361,-3.315126,-5.734041,3.387964,3.115220,-0.212459,0.171500,0.035258,-177.315838,188.492900,989.144777,-1325.724242,0
0.041667,-143.128562,163.505847,-24.055303,2.453028,6.363114,-1.164289,-5.009168,-5.840637,1.449092,4.808755,-0.201500,0.174309,-0.017021,-205.183677,188.646545,988.729258,-1324.978482,0
0.042708,-192.910797,98.111914,24.066856,3.369138,5.070813,1.248610,-5.968130,-4.521043,-0.980794,5.701774,-0.270907,0.185937,-0.031958,-204.075297,188.571089,986.824248,-1323.398504,0
0.043750,-186.150666,53.231355,99.457008,4.862058,3.441235,3.403551,-6.214401,-3.017661,-3.171467,6.075348,-0.227071,0.195082,-0.024490,-161.052058,188.495615,985.599466,-1322.526524,0
0.044792,-141.960284,8.894437,174.182387,6.185328,1.463730,4.891770,-5.609919,-0.962917,-4.648703,5.463398,-0.230724,0.205338,-0.046895,-94.356989,188.495642,982.999436,-1320.910228,0
0.045833,-89.625987,-46.073676,207.297917,6.841308,-1.266434,5.745016,-3.688263,1.705678,-5.588762,3.727169,-0.179582,0.202203,-0.031958,-20.762821,188.646417,982.042947,-1320.626959,0
0.046875,-42.611323,-126.097584,178.528031,6.309738,-3.613168,6.173623,-1.837504,4.091239,-6.012628,1.884205,-0.168623,0.186002,-0.024490,57.920847,188.570883,980.120571,-1319.725684,0
0.047917,-0.179028,-187.130311,125.013826,5.371008,-4.962274,5.058451,0.554305,5.557864,-5.110339,-0.303871,-0.121134,0.182866,-0.058098,122.795006,188.495470,980.326973,-1319.233069,0
0.048958,64.008182,-198.607170,70.034659,4.273938,-6.155167,3.403551,3.207309,6.675292,-3.330942,-2.943794,-0.040768,0.170063,-0.054364,180.419454,188.495591,978.982442,-1318.486103,0
0.050000,142.554998,-163.415496,23.980682,3.414378,-6.123215,1.371636,4.934933,6.785564,-1.392069,-4.665791,-0.018850,0.175223,-0.065566,211.736844,188.571111,978.540969,-1317.779732,0
0.051042,192.110383,-97.912835,-24.116856,2.498268,-4.859316,-0.981734,5.815536,5.447591,0.983259,-5.569484,-0.011544,0.189464,-0.043161,208.943274,188.570884,977.279727,-1316.272337,0
0.052083,186.121542,-53.261814,-99.223864,1.095828,-3.258140,-3.200172,6.087926,3.900100,3.165539,-5.953732,0.017680,0.199916,-0.035692,167.967145,188.495645,976.703793,-1315.962501,0
0.053125,141.613570,-8.405417,-173.924622,-0.306612,-1.273534,-4.664580,5.524489,1.823302,4.697332,-5.327551,-0.011544,0.202725,-0.024490,98.942216,188.495645,975.294788,-1314.897992,0
0.054167,89.188533,46.381483,-207.384849,-0.951282,1.435328,-5.525762,3.591640,-0.790157,5.637391,-3.601995,-0.044421,0.205077,-0.031958,25.879618,188.570979,975.010488,-1314.619981,0
0.055208,42.366691,126.465795,-178.307198,-0.464952,3.774961,-5.994055,1.755806,-3.146313,6.082240,-1.755473,-0.091910,0.160264,-0.024490,-50.949210,188.510056,974.528512,-1313.702435,0
0.056250,0.070507,186.979043,-125.174622,0.519018,5.173771,-4.882852,-0.650928,-4.612937,5.154771,0.471739,-0.117481,0.180711,-0.017021,-119.476499,188.516579,974.176833,-1313.421364,0
0.057292,-64.332211,198.649197,-69.949243,1.559538,6.341812,-3.136675,-3.333783,-5.697283,3.345997,3.118777,-0.168623,0.170259,-0.028224,-175.766368,188.571303,973.382449,-1312.996754,0
0.058333,-142.652177,163.590413,-23.538258,2.498268,6.352463,-1.188100,-4.983048,-5.855340,1.444895,4.851449,-0.227071,0.172872,-0.058098,-207.513537,188.570613,973.382828,-1313.472480,0
0.059375,-192.615892,98.268965,24.411553,3.414378,5.077913,1.236704,-5.968130,-4.513692,-0.951417,5.680427,-0.241683,0.187178,-0.035692,-205.715247,188.570540,973.486920,-1312.932144,0
0.060417,-186.513626,53.968290,99.444697,4.805508,3.409282,3.435300,-6.210669,-2.999283,-3.154680,6.096695,-0.263601,0.194886,-0.046895,-164.411128,188.495188,973.437987,-1313.320870,0
0.061458,-141.926257,8.374959,174.022349,6.207948,1.406926,4.907644,-5.587530,-0.904105,-4.644506,5.491861,-0.230724,0.207494,-0.095440,-95.239169,188.570604,973.253996,-1313.589705,0
0.062500,-89.342425,-46.085757,207.224054,6.773448,-1.252233,5.745016,-3.662144,1.731408,-5.639123,3.752074,-0.227071,0.186590,-0.028224,-19.665751,188.570665,973.595294,-1314.231306,0
0.063542,-42.554610,-126.278797,178.614205,6.366288,-3.588316,6.145843,-1.822578,4.091239,-5.991645,1.891320,-0.143052,0.195605,-0.054364,57.717267,188.570740,973.591860,-1314.068772,0
0.064583,-0.145001,-186.695398,125.383144,5.337078,-4.958723,5.050513,0.543110,5.546836,-5.110339,-0.367912,-0.091910,0.182866,-0.073035,124.842116,188.495255,972.862980,-1314.449468,0
0.065625,64.110265,-198.740060,69.739205,4.273938,-6.190670,3.351960,3.225965,6.671616,-3.347728,-2.965141,-0.037115,0.171826,-0.073035,180.871854,188.570667,973.033595,-1314.557509,0
0.066667,142.418888,-163.439658,23.648296,3.403068,-6.109013,1.371636,4.867768,6.767186,-1.421446,-4.658676,0.021333,0.174047,-0.028224,213.433344,188.570631,973.234954,-1314.136615,0
0.067708,192.042328,-98.480637,-24.289205,2.532198,-4.852215,-1.005545,5.852850,5.425537,0.941292,-5.537464,0.021333,0.190705,-0.039427,210.956454,188.570865,973.237052,-1313.550201,0
0.068750,185.974090,-53.346380,-99.285417,1.073208,-3.169383,-3.212078,6.102852,3.867019,3.224293,-5.953732,0.003068,0.193122,-0.043161,166.632565,188.495320,972.608922,-1314.185939,0
0.069792,141.681625,-7.668482,-173.506061,-0.329232,-1.174127,-4.684423,5.502101,1.804923,4.676348,-5.331109,-0.007891,0.202725,-0.024490,98.976146,188.495300,972.549493,-1313.858200,0
0.070833,89.097793,46.441887,-207.286364,-0.939972,1.456629,-5.505919,3.565520,-0.823239,5.608014,-3.566417,-0.048074,0.196715,-0.054364,24.318838,188.550154,971.790452,-1313.722938,0
0.071875,42.843076,125.946316,-178.417993,-0.408402,3.785612,-5.950401,1.722223,-3.157340,5.994110,-1.712779,-0.062686,0.185153,-0.005818,-51.921870,188.555694,970.290263,-1313.449765,0
0.072917,-0.133658,187.293147,-125.236175,0.552948,5.152469,-4.783637,-0.658391,-4.616613,5.137985,0.482413,-0.121134,0.185022,-0.050629,-118.775279,188.496673,970.186348,-1313.536365,0
0.073958,-63.787771,198.504226,-69.604546,1.593468,6.288558,-3.112863,-3.255424,-5.682580,3.270456,3.079641,-0.183235,0.167319,-0.028224,-176.580688,188.517911,969.298911,-1312.902592,0
0.075000,-143.026479,163.977002,-23.464394,2.498268,6.274357,-1.168257,-4.964392,-5.800204,1.411321,4.798081,-0.230724,0.172545,-0.035692,-205.443807,188.506931,968.749441,-1312.217878,0
0.076042,-191.753862,99.235438,24.522349,3.380448,4.982056,1.212893,-5.889771,-4.454880,-0.930433,5.623501,-0.205153,0.189660,-0.046895,-203.803857,188.570787,967.819596,-1311.391492,0
0.077083,-186.865244,53.472973,99.555493,4.839438,3.405732,3.387677,-6.177087,-2.966201,-3.104320,6.075348,-0.256295,0.193253,-0.017021,-161.391358,188.495351,967.726237,-1310.674884,0
0.078125,-142.289217,7.650104,172.902084,6.174018,1.399825,4.871927,-5.550217,-0.893078,-4.615130,5.395799,-0.241683,0.202660,-0.017021,-94.119479,188.570767,966.526157,-1309.649522,0
0.079167,-89.172287,-46.230727,207.544129,6.818688,-1.287736,5.697393,-3.643487,1.702002,-5.538402,3.695149,-0.172276,0.182997,-0.013287,-20.909851,188.570577,965.769207,-1308.298285,0
0.080208,-43.325900,-125.336487,178.626516,6.321048,-3.574115,6.161717,-1.796459,4.058158,-5.937088,1.841510,-0.168623,0.192861,-0.017021,57.310107,188.570712,964.371057,-1307.878196,0
0.081250,0.229302,-187.335686,125.370834,5.314458,-4.958723,5.058451,0.558036,5.535809,-5.034799,-0.318103,-0.106522,0.187700,-0.031958,123.439676,188.495233,964.337046,-1307.132187,0
0.082292,63.679250,-198.268904,69.566856,4.262628,-6.073511,3.351960,3.192383,6.594425,-3.293171,-2.918889,-0.044421,0.172937,-0.069301,179.910505,188.570629,963.337987,-1305.772699,0
0.083333,142.861246,-163.947056,23.537500,3.436998,-6.062860,1.379573,4.852843,6.734104,-1.421446,-4.605308,-0.018850,0.175419,-0.046895,212.404134,188.570723,963.369740,-1305.127497,0
0.084375,191.146270,-99.108844,-24.535417,2.475648,-4.802511,-1.021420,5.770760,5.396131,0.983259,-5.476980,0.021333,0.191228,-0.050629,208.536114,188.570586,962.306299,-1304.716648,0
0.085417,186.541215,-52.524878,-99.248485,1.107138,-3.222637,-3.180329,6.099120,3.874370,3.169736,-5.911038,0.010374,0.190705,-0.024490,167.729635,188.495264,962.573693,-1303.679231,0
0.086458,141.874448,-7.185246,-172.927463,-0.317922,-1.220280,-4.612988,5.431205,1.808599,4.663758,-5.295530,0.014027,0.201223,-0.017021,98.636846,188.646065,962.218259,-1303.187267,0
0.087500,89.165848,46.478130,-207.520266,-0.951282,1.410476,-5.486077,3.599102,-0.768102,5.612211,-3.601995,-0.044421,0.203836,-0.058098,26.456428,188.570694,963.084284,-1302.895788,0
0.088542,43.410201,125.897993,-178.344129,-0.419712,3.732358,-5.946432,1.744612,-3.127934,6.002503,-1.741241,-0.091910,0.189138,-0.039427,-50.417640,188.570691,963.407730,-1302.715893,0
0.089583,-0.621386,187.341471,-125.260796,0.530328,5.173771,-4.819354,-0.647197,-4.576179,5.175755,0.475297,-0.146705,0.187831,-0.039427,-120.166409,188.495367,963.991459,-1302.291782,0
0.090625,-64.048649,198.431740,-69.506061,1.593468,6.316960,-3.116832,-3.270350,-5.656850,3.320817,3.111662,-0.172276,0.168952,-0.024490,-175.438378,188.646092,964.344340,-1302.278691,0
0.091667,-142.879027,164.279025,-23.661364,2.520888,6.288558,-1.152383,-4.960660,-5.811231,1.415518,4.783850,-0.223418,0.174897,-0.050629,-208.146897,188.569695,964.414071,-1302.317203,0
0.092708,-191.855944,99.187114,24.756250,3.369138,5.038860,1.248610,-5.945742,-4.458555,-0.943023,5.676869,-0.248989,0.187962,-0.002084,-205.296777,188.567011,964.640141,-1302.997363,0
0.093750,-186.910614,53.025980,99.444697,4.782888,3.366679,3.407520,-6.195744,-2.969877,-3.154680,6.039770,-0.230724,0.192208,-0.031958,-164.015278,188.495709,964.275962,-1303.071921,0
0.094792,-142.141764,7.456810,173.197538,6.174018,1.435328,4.891770,-5.587530,-0.882051,-4.615130,5.463398,-0.241683,0.176987,-0.039427,-95.431439,188.647277,964.988469,-1303.461823,0
0.095833,-89.932235,-46.291132,207.371781,6.773448,-1.220280,5.697393,-3.684532,1.676272,-5.546795,3.702264,-0.190541,0.199524,-0.046895,-20.321731,188.571218,965.206801,-1303.571521,0
0.096875,-43.155763,-125.880128,178.688069,6.309738,-3.584766,6.157748,-1.841235,4.050806,-5.932891,1.852184,-0.143052,0.194821,-0.031958,57.717267,188.571373,965.553672,-1303.426524,0
0.097917,0.478837,-186.961178,125.284659,5.359698,-4.962274,5.026702,0.535648,5.539485,-5.106143,-0.318103,-0.095563,0.187047,-0.035692,125.328446,188.496098,966.272360,-1303.601215,0
0.098958,63.962812,-198.534684,69.468371,4.285248,-6.116114,3.367834,3.203577,6.623831,-3.284778,-2.933120,-0.015197,0.155169,-0.017021,180.849234,188.646810,966.436902,-1304.054389,0
0.100000,142.759163,-163.910813,23.759091,3.403068,-6.066410,1.371636,4.875231,6.756158,-1.425643,-4.644444,0.006721,0.176530,-0.043161,213.998844,188.571388,966.510948,-1304.663947,0
0.101042,191.384463,-98.867226,-24.609280,2.464338,-4.841564,-1.033326,5.789417,5.399806,1.004242,-5.501885,0.024986,0.190117,-0.050629,210.323094,188.571438,966.581052,-1305.075618,0
0.102083,186.461817,-52.488636,-99.137690,1.107138,-3.226188,-3.172392,6.061807,3.903776,3.186522,-5.935943,0.010374,0.177379,-0.024490,166.621255,188.481885,966.959169,-1305.398928,0
0.103125,141.999216,-7.040275,-172.890531,-0.295302,-1.227381,-4.589177,5.461056,1.812274,4.655365,-5.309762,0.017680,0.199132,-0.039427,99.541646,188.646277,967.175141,-1305.374297,0
0.104167,89.948481,46.743910,-207.347917,-0.928662,1.403375,-5.525762,3.599102,-0.768102,5.624801,-3.591322,-0.022503,0.209650,-0.017021,24.567658,188.571388,967.104886,-1305.715513,0
0.105208,42.650254,125.777184,-178.664205,-0.431022,3.750109,-5.906746,1.722223,-3.124258,6.002503,-1.698547,-0.059033,0.187439,-0.043161,-52.476060,188.571366,966.801835,-1305.671942,0
0.106250,-0.927633,187.498522,-125.186932,0.541638,5.095665,-4.835229,-0.617346,-4.605585,5.075034,0.453950,-0.124787,0.202333,-0.013287,-119.193749,188.496158,966.123992,-1305.367017,0
0.107292,-63.844483,198.323012,-69.764584,1.570848,6.270807,-3.144612,-3.303932,-5.634795,3.329210,3.061852,-0.186888,0.171434,-0.024490,-176.648548,188.646871,966.232807,-1304.723268,0
0.108333,-143.593604,164.411915,-23.562879,2.453028,6.281458,-1.152383,-4.945735,-5.796528,1.486862,4.780292,-0.230724,0.174897,-0.043161,-205.862277,188.571380,967.158894,-1304.337952,0
0.109375,-191.254792,99.114629,24.768561,3.403068,5.028209,1.220830,-5.878577,-4.469583,-0.955613,5.612828,-0.248989,0.188550,-0.035692,-203.317527,188.571380,966.792587,-1303.611182,0
0.110417,-187.126121,52.723957,99.506250,4.816818,3.412833,3.347991,-6.184550,-2.966201,-3.104320,6.061117,-0.216112,0.192208,-0.069301,-161.323498,188.496111,967.236990,-1303.256856,0
