1-Time,2-VGERA,3-VGERB,4-VGERC,5-VN,6-IGERAN,7-IGERBN,8-IGERCN,9-IGERAT,10-IGERBT,11-IGERCT,12-IN,13-IFD,14-IFAULT,15-VFAULT,16-Speed (rad/s),17-FAULT 
0.000000,155.791696,-165.916243,-11.769318,2.679228,-1.617911,5.594209,-3.281544,1.602757,-5.542599,3.325132,-0.219765,0.575535,-0.028224,-8.446231,188.495928,0
0.001042,179.837797,-115.043557,-81.521212,1.389888,-3.811983,5.471183,-1.072573,3.753070,-5.349551,1.186867,-0.128440,0.558158,-0.046895,-10.527271,188.420508,0
0.002083,182.537312,-33.956529,-132.167046,0.417228,-4.923221,4.502849,0.893859,4.988122,-4.514409,-0.773507,-0.106522,0.558877,-0.065566,-11.058841,188.420611,0
0.003125,152.978756,38.214792,-172.262690,-0.329232,-5.594223,2.867792,2.957307,5.554188,-2.919666,-2.691186,-0.077298,0.579193,0.009119,-11.160631,188.420614,0
0.004167,97.071571,107.293401,-177.334660,-0.431022,-5.221444,0.693008,4.621498,5.318940,-0.724795,-4.334912,-0.055380,0.571615,-0.046895,-4.906201,188.495933,0
0.005208,13.363917,149.177895,-181.667993,-0.566742,-4.163461,-1.473838,5.487176,4.271351,1.407125,-5.220815,-0.000585,0.536275,-0.013287,-0.065522,188.420558,0
0.006250,-61.893573,169.014739,-145.597917,0.145788,-2.391872,-3.350978,5.322995,2.492288,3.291440,-5.178121,-0.022503,0.564038,-0.024490,6.607378,188.345084,0
0.007292,-115.328093,192.512097,-61.688826,1.717878,-0.130345,-5.001909,4.640155,0.161863,5.020477,-4.491457,-0.037115,0.579585,-0.069301,9.333088,188.420519,0
0.008333,-156.183780,165.982432,11.657765,3.097698,1.779705,-5.470202,3.188652,-1.698067,5.519884,-3.157264,-0.051727,0.579454,-0.013287,13.427308,188.495926,0
0.009375,-180.195854,115.870842,81.151137,4.387038,3.934724,-5.343208,0.919979,-3.793245,5.393983,-0.947841,-0.099216,0.567500,-0.054364,15.180358,188.492448,0
0.010417,-182.668519,35.460345,132.523296,5.371008,5.060162,-4.311376,-1.072573,-5.061378,4.516874,0.959164,-0.157664,0.573836,-0.024490,15.429178,188.344133,0
0.011458,-154.028705,-36.372710,172.483523,6.117468,5.692111,-2.684256,-3.162140,-5.678904,2.917934,2.948001,-0.186888,0.580108,-0.002084,16.752448,188.420444,0
0.012500,-98.870125,-106.405710,177.346213,6.253188,5.319332,-0.469787,-4.729315,-5.362790,0.689490,4.559705,-0.238030,0.583635,-0.046895,9.559288,188.495940,0
0.013542,-15.672884,-148.954654,182.024243,6.321048,4.257799,1.689123,-5.520366,-4.256389,-1.446626,5.353105,-0.274560,0.588208,-0.065566,4.843018,188.495930,0
0.014583,60.389924,-168.851903,146.126516,5.642448,2.450707,3.478954,-5.371111,-2.514084,-3.301565,5.253485,-0.219765,0.583243,-0.024490,-1.818572,188.269774,0
0.015625,115.242257,-192.566718,62.254356,4.104288,0.182080,5.157665,-4.718121,-0.264524,-4.984438,4.652209,-0.219765,0.579520,-0.065566,-5.188951,188.420490,0
0.016667,155.961834,-165.710868,-11.535417,2.735778,-1.660515,5.594209,-3.285275,1.635838,-5.563582,3.321575,-0.212459,0.577168,-0.031958,-8.412301,188.495973,0
0.017708,180.019277,-115.345579,-81.250379,1.389888,-3.794232,5.435466,-1.042722,3.771449,-5.416698,1.137057,-0.161317,0.563972,-0.028224,-10.504651,188.495812,0
0.018750,182.321805,-34.089419,-132.400947,0.417228,-4.948072,4.459194,0.905053,5.032231,-4.480835,-0.784181,-0.121134,0.558289,-0.069301,-10.753471,188.269698,0
0.019792,153.387086,37.973173,-172.250379,-0.351852,-5.619075,2.871761,3.005815,5.572567,-2.928059,-2.751670,-0.066339,0.557179,-0.046895,-11.171941,188.495924,0
0.020833,97.298421,107.220915,-177.297728,-0.442332,-5.267598,0.649354,4.647617,5.318940,-0.766762,-4.366932,-0.055380,0.588273,-0.017021,-5.132401,188.495926,0
0.021875,13.341232,149.153733,-181.852652,-0.555432,-4.177662,-1.469870,5.487176,4.227242,1.423911,-5.224373,-0.044421,0.566389,-0.058098,-0.325652,188.495893,0
0.022917,-62.006998,168.761040,-145.794887,0.111858,-2.395422,-3.339073,5.352846,2.506991,3.262063,-5.121196,-0.051727,0.560314,-0.046895,7.116328,188.269743,0
0.023958,-115.214668,192.475855,-61.750379,1.729188,-0.137445,-5.033658,4.692394,0.224350,4.970117,-4.516362,-0.018850,0.580304,-0.043161,9.536668,188.420589,0
0.025000,-155.877533,166.175727,11.780871,3.086388,1.797456,-5.509888,3.218503,-1.687040,5.532474,-3.196401,-0.059033,0.578213,-0.024490,13.438618,188.495924,0
0.026042,-180.127799,115.943328,80.978788,4.398348,3.909872,-5.370988,0.964755,-3.811623,5.389786,-1.040345,-0.117481,0.570962,-0.046895,15.338698,188.496027,0
0.027083,-182.929396,35.714044,132.153978,5.348388,5.088564,-4.374873,-1.035259,-5.061378,4.546251,0.909355,-0.154011,0.572987,-0.050629,15.474418,188.269725,0
0.028125,-153.858567,-35.961959,172.606629,6.128778,5.738265,-2.775534,-3.136020,-5.711986,2.964098,2.944443,-0.194194,0.582851,-0.035692,16.435768,188.420546,0
0.029167,-99.323825,-105.958717,177.432387,6.253188,5.390338,-0.529315,-4.740509,-5.384844,0.723064,4.573937,-0.230724,0.585987,-0.046895,9.932518,188.495883,0
0.030208,-15.933761,-148.858007,181.962690,6.354978,4.296852,1.601814,-5.609919,-4.326228,-1.387873,5.378010,-0.274560,0.586183,-0.017021,5.385898,188.495850,0
0.031250,60.140389,-168.803580,146.458902,5.676378,2.482660,3.498797,-5.442007,-2.550841,-3.314155,5.360221,-0.230724,0.587424,-0.084238,-2.225732,188.269720,0
0.032292,115.015407,-192.349261,62.660606,4.059048,0.238884,5.153697,-4.718121,-0.293930,-5.034799,4.698461,-0.197847,0.580108,-0.039427,-5.641351,188.420571,0
0.033333,155.757669,-166.302832,-11.079924,2.701848,-1.649864,5.653738,-3.311395,1.617460,-5.538402,3.364269,-0.208806,0.577625,-0.039427,-8.446231,188.495906,0
0.034375,179.951222,-115.587197,-80.979546,1.355958,-3.794232,5.483089,-1.087498,3.753070,-5.416698,1.158404,-0.150358,0.568937,-0.031958,-10.538581,188.495902,0
0.035417,182.854902,-34.596817,-132.080872,0.417228,-4.951623,4.518723,0.919979,5.039583,-4.568966,-0.748602,-0.143052,0.557571,-0.035692,-11.092771,188.345216,0
0.036458,153.307688,37.586585,-172.336554,-0.363162,-5.597773,2.899541,3.013277,5.642406,-2.974223,-2.748112,-0.051727,0.549928,-0.058098,-11.138011,188.420428,0
0.037500,97.616011,106.773922,-177.494698,-0.498882,-5.246296,0.661260,4.643886,5.329967,-0.745779,-4.413184,-0.055380,0.565606,-0.039427,-4.917511,188.496416,0
0.038542,13.556740,149.008762,-181.975758,-0.555432,-4.174112,-1.509556,5.546877,4.208863,1.407125,-5.259952,0.021333,0.567892,-0.069301,-0.088142,188.496054,0
0.039583,-61.689408,169.135548,-145.979546,0.100548,-2.395422,-3.378759,5.367772,2.495964,3.308226,-5.167448,-0.037115,0.570962,-0.017021,6.596068,188.269830,0
0.040625,-115.146613,192.632907,-61.861174,1.751808,-0.091292,-5.053501,4.677468,0.216999,5.037264,-4.548382,-0.011544,0.577691,-0.043161,9.310468,188.495978,0
0.041667,-156.002300,166.429426,11.608523,3.075078,1.761953,-5.513857,3.162532,-1.705419,5.574441,-3.167938,-0.073645,0.578409,-0.020755,13.438618,188.495957,0
0.042708,-180.161826,116.124541,80.917235,4.420968,3.952475,-5.359082,0.916247,-3.804272,5.435950,-0.944284,-0.095563,0.569590,-0.043161,15.191668,188.496197,0
0.043750,-182.963424,35.569074,132.252463,5.371008,5.060162,-4.386779,-1.080036,-5.087109,4.521071,0.966280,-0.139399,0.575143,-0.050629,15.485728,188.269765,0
0.044792,-154.176157,-35.949878,172.409660,6.128778,5.748916,-2.676319,-3.180797,-5.678904,2.884361,3.001368,-0.190541,0.580304,-0.031958,16.729828,188.496020,0
0.045833,-99.051605,-105.934555,177.493940,6.230568,5.383237,-0.497567,-4.815137,-5.384844,0.689490,4.605957,-0.230724,0.585138,-0.046895,9.570598,188.420658,0
0.046876,-15.899734,-148.725117,182.147349,6.354978,4.250698,1.669280,-5.591262,-4.238010,-1.450823,5.438493,-0.234377,0.587555,-0.050629,4.876948,188.496134,0
0.047917,59.890854,-168.948550,146.754357,5.687688,2.482660,3.506734,-5.415887,-2.488353,-3.305761,5.353105,-0.256295,0.585464,-0.061832,-1.795952,188.269897,0
0.048958,114.573049,-192.627122,63.017614,4.092978,0.210482,5.181477,-4.703196,-0.253497,-5.018012,4.652209,-0.241683,0.582851,-0.028224,-5.121091,188.496130,0
0.050000,155.734984,-166.218266,-10.784470,2.701848,-1.696018,5.621990,-3.255424,1.668920,-5.538402,3.335806,-0.190541,0.576776,-0.024490,-8.367061,188.420694,0
0.051042,180.075990,-116.118757,-80.511743,1.378578,-3.833285,5.455309,-1.005408,3.789828,-5.441878,1.129941,-0.146705,0.563842,-0.043161,-10.504651,188.496208,0
0.052083,182.707450,-35.031729,-131.859281,0.417228,-4.951623,4.451257,0.949830,5.072665,-4.518606,-0.794854,-0.110175,0.537581,-0.028224,-10.798711,188.345202,0
0.053125,153.579909,37.103348,-172.262690,-0.363162,-5.597773,2.875730,3.013277,5.605648,-2.936452,-2.794364,-0.062686,0.571289,-0.050629,-11.171941,188.495937,0
0.054167,98.001656,106.592708,-177.433144,-0.453642,-5.235645,0.637448,4.651349,5.333643,-0.720599,-4.377606,-0.044421,0.581218,-0.035692,-5.143711,188.496111,0
0.055208,13.976412,148.815468,-182.086554,-0.589362,-4.163461,-1.501618,5.490907,4.183133,1.440698,-5.185237,0.003068,0.588927,-0.046895,-0.382202,188.496020,0
0.056250,-61.598668,168.724798,-146.324243,0.157098,-2.402523,-3.331136,5.345383,2.521694,3.241079,-5.206584,-0.007891,0.569917,-0.031958,7.138948,188.269834,0
0.057292,-114.999161,192.439612,-62.168940,1.717878,-0.123244,-5.037627,4.688662,0.213323,4.999494,-4.541267,-0.026156,0.577560,-0.050629,9.491428,188.428724,0
0.058333,-155.491888,166.671044,11.583902,3.097698,1.708699,-5.490045,3.225965,-1.664985,5.545064,-3.171496,-0.077298,0.576645,-0.002084,13.415998,188.496740,0
0.059375,-179.946319,116.124541,80.646402,4.409658,3.938274,-5.359082,0.972218,-3.785893,5.377196,-0.990536,-0.117481,0.569002,-0.035692,15.350008,188.495707,0
0.060417,-183.224301,35.762368,131.723106,5.337078,5.085014,-4.402653,-1.012871,-5.072406,4.504284,0.934259,-0.150358,0.566455,-0.043161,15.485728,188.269543,0
0.061458,-153.779170,-35.563289,172.421970,6.117468,5.731164,-2.727911,-3.102438,-5.660526,2.922131,2.933769,-0.197847,0.576972,-0.050629,16.390528,188.497831,0
0.062500,-99.516648,-105.439238,177.493940,6.264498,5.329983,-0.513441,-4.721853,-5.373817,0.735654,4.588168,-0.201500,0.583243,-0.039427,9.921208,188.495819,0
0.063543,-16.217324,-148.507661,181.864205,6.377598,4.318154,1.629594,-5.598724,-4.296822,-1.413053,5.356663,-0.252642,0.584092,-0.039427,5.476378,188.496697,0
0.064584,59.709374,-168.803580,147.062122,5.665068,2.472009,3.482923,-5.419619,-2.565544,-3.251204,5.310411,-0.248989,0.585268,-0.031958,-2.191802,188.270161,0
0.065625,114.743187,-191.950592,63.460796,4.081668,0.217582,5.125917,-4.740509,-0.290255,-4.997029,4.662883,-0.230724,0.584223,-0.091706,-5.573491,188.496396,0
0.066669,155.519476,-166.314913,-10.772159,2.724468,-1.667615,5.582304,-3.244230,1.606432,-5.500632,3.328690,-0.186888,0.576841,-0.039427,-8.434921,188.496847,0
0.067712,180.144045,-117.749679,-81.065720,1.401198,-3.840386,5.435466,-1.042722,3.764098,-5.383124,1.147730,-0.164970,0.569394,-0.050629,-10.504651,188.496396,0
0.068750,183.070410,-35.273348,-131.748485,0.405918,-4.937422,4.475069,0.949830,4.991798,-4.552179,-0.766391,-0.110175,0.564691,-0.020755,-11.081461,188.354139,0
0.069792,153.319031,36.861730,-172.361175,-0.351852,-5.569371,2.820169,2.998352,5.627703,-2.911272,-2.698302,-0.066339,0.575339,-0.054364,-11.149321,188.496686,0
0.070834,98.353274,106.254443,-177.630114,-0.442332,-5.242746,0.661260,4.599110,5.377752,-0.720599,-4.370490,0.003068,0.538757,-0.017021,-4.985371,188.421007,0
0.071876,14.305345,149.516160,-182.037311,-0.589362,-4.167011,-1.513524,5.446130,4.245621,1.394535,-5.203026,-0.011544,0.539737,-0.054364,-0.133382,188.497403,0
0.072918,-61.587326,169.014739,-146.336553,0.123168,-2.345719,-3.339073,5.349115,2.492288,3.278850,-5.146101,-0.004238,0.572073,-0.050629,6.618688,188.346069,0
0.073959,-114.885736,192.391288,-62.292046,1.706568,-0.094842,-4.997941,4.636423,0.209647,4.974314,-4.480783,-0.059033,0.575862,-0.035692,9.253918,188.504370,0
0.075000,-155.548600,166.816015,11.374621,3.086388,1.761953,-5.454328,3.188652,-1.679688,5.528277,-3.153706,-0.102869,0.572334,-0.039427,13.359448,188.420965,0
0.076042,-179.764839,116.257431,80.437121,4.375728,3.920523,-5.331302,0.946098,-3.774866,5.352016,-0.962073,-0.106522,0.564234,-0.058098,15.180358,188.496096,0
0.077087,-182.872684,34.965028,132.277084,5.371008,5.067262,-4.319313,-1.065110,-5.079757,4.495891,0.966280,-0.161317,0.562797,-0.039427,15.451798,188.345299,0
0.078125,-154.028705,-35.575370,172.311175,6.151398,5.670810,-2.712036,-3.136020,-5.653174,2.871770,2.944443,-0.154011,0.577495,-0.017021,16.650658,188.495993,0
0.079167,-99.199058,-105.463400,177.333902,6.287118,5.369036,-0.493598,-4.751704,-5.373817,0.727260,4.534800,-0.256295,0.579389,-0.024490,9.615838,188.420649,0
0.080208,-16.285379,-148.386852,181.987311,6.400218,4.254249,1.653406,-5.594993,-4.263741,-1.450823,5.413589,-0.267254,0.583897,-0.031958,4.967428,188.496275,0
0.081250,59.584607,-168.719013,147.111364,5.665068,2.489760,3.482923,-5.386036,-2.514084,-3.293171,5.313969,-0.248989,0.586183,-0.058098,-1.716782,188.345357,0
0.082292,114.448282,-192.035158,63.805493,4.081668,0.199831,5.125917,-4.699464,-0.264524,-5.013815,4.680672,-0.234377,0.578475,-0.035692,-4.985371,188.496101,0
0.083333,155.337996,-166.641098,-10.021212,2.701848,-1.664065,5.625958,-3.251693,1.624811,-5.534205,3.310901,-0.175929,0.575535,0.001650,-8.299201,188.442102,0
0.084375,179.769742,-116.662398,-79.920834,1.412508,-3.808433,5.447372,-1.080036,3.749395,-5.404108,1.169077,-0.183235,0.564495,-0.061832,-10.538581,188.509117,0
0.085420,182.730135,-35.297509,-131.822349,0.439848,-4.940972,4.455226,0.968487,5.013853,-4.497622,-0.766391,-0.091910,0.570309,-0.039427,-10.764781,188.282882,0
0.086459,153.602594,36.173119,-172.324243,-0.385782,-5.569371,2.847949,2.987158,5.590945,-2.932256,-2.805037,-0.069992,0.541697,-0.058098,-11.171941,188.503431,0
0.087500,98.761604,105.904097,-177.519319,-0.476262,-5.253396,0.649354,4.587915,5.304237,-0.762566,-4.370490,-0.048074,0.566912,-0.039427,-5.200261,188.426942,0
0.088542,14.929182,148.573850,-182.098864,-0.589362,-4.152810,-1.453995,5.453593,4.183133,1.402928,-5.185237,-0.004238,0.599770,-0.017021,-0.450062,188.502886,0
0.089584,-61.133626,168.688555,-146.927463,0.100548,-2.409624,-3.319230,5.334189,2.510667,3.241079,-5.185237,-0.048074,0.554958,-0.069301,7.150258,188.287449,0
0.090625,-114.885736,192.065104,-62.796780,1.695258,-0.169398,-4.986035,4.666274,0.246405,4.944937,-4.470110,0.003068,0.578017,-0.065566,9.400948,188.442377,0
0.091679,-155.798135,165.885785,12.310227,3.120318,1.793906,-5.494014,3.173726,-1.679688,5.465327,-3.143033,-0.077298,0.576645,-0.035692,13.449928,188.441654,0
0.092720,-180.093771,115.049341,81.618940,4.432278,3.885020,-5.335270,0.975949,-3.782217,5.385589,-0.986978,-0.095563,0.567827,-0.028224,15.338698,188.511694,0
0.093757,-183.110876,35.194566,131.969319,5.371008,5.021109,-4.382810,-1.005408,-5.035648,4.529464,0.891565,-0.183235,0.561163,-0.080503,15.497038,188.353693,0
0.094795,-153.643060,-35.756584,172.348107,6.151398,5.695662,-2.751722,-3.106169,-5.634795,2.947311,2.926654,-0.212459,0.585595,-0.061832,16.401838,188.501945,0
0.095838,-99.482620,-105.499643,177.272349,6.264498,5.404539,-0.537253,-4.729315,-5.421602,0.744047,4.577495,-0.216112,0.585595,-0.039427,9.977758,188.428181,0
0.096880,-16.126584,-148.507661,181.778031,6.366288,4.296852,1.621657,-5.568874,-4.260065,-1.421446,5.370894,-0.256295,0.584092,-0.046895,5.532928,188.497569,0
0.097926,60.129047,-168.815660,146.483523,5.665068,2.518163,3.490860,-5.456932,-2.565544,-3.318351,5.303295,-0.223418,0.588339,-0.065566,-2.157872,188.420236,0
0.098969,114.936009,-192.409666,62.402084,4.092978,0.196281,5.161634,-4.725584,-0.275552,-5.009619,4.652209,-0.230724,0.582721,-0.046895,-5.686591,188.495691,0
0.100011,155.678271,-166.073295,-10.882955,2.713158,-1.699568,5.618021,-3.281544,1.617460,-5.563582,3.296670,-0.223418,0.580957,-0.065566,-8.468851,188.420314,0
0.101050,179.610947,-115.865058,-80.647159,1.378578,-3.822634,5.443403,-1.042722,3.753070,-5.391518,1.151288,-0.135746,0.565540,-0.050629,-10.504651,188.495750,0
0.102088,183.240547,-36.034445,-131.502273,0.428538,-4.948072,4.510786,0.908785,4.984447,-4.539589,-0.759276,-0.110175,0.568937,-0.028224,-11.070151,188.420338,0
0.103128,153.319031,35.895258,-172.410417,-0.385782,-5.576472,2.891604,2.990889,5.590945,-2.953239,-2.723207,-0.073645,0.567369,-0.035692,-11.138011,188.420207,0
0.104170,99.033824,105.940339,-177.531629,-0.476262,-5.288899,0.665228,4.640155,5.344670,-0.766762,-4.349143,-0.062686,0.583439,-0.065566,-4.985371,188.420343,0
0.105208,15.348855,148.501364,-182.049622,-0.555432,-4.195413,-1.418278,5.438668,4.252972,1.373551,-5.227931,-0.007891,0.551495,-0.043161,-0.257792,188.495779,0
0.106250,-60.747981,168.906011,-147.149053,0.100548,-2.409624,-3.350978,5.352846,2.547424,3.287243,-5.174563,-0.015197,0.546792,-0.031958,6.629998,188.344822,0
0.107292,-114.749626,191.775162,-63.079924,1.683948,-0.133895,-4.997941,4.651349,0.257432,4.953330,-4.495015,-0.029809,0.574163,-0.028224,9.197368,188.420423,0
0.108333,-155.083557,167.504626,11.128409,3.097698,1.754853,-5.470202,3.222234,-1.657634,5.570244,-3.146591,-0.055380,0.576711,-0.069301,13.280278,188.420278,0
0.109375,-179.345166,116.559454,80.264773,4.409658,3.885020,-5.335270,0.938636,-3.738108,5.393983,-1.011883,-0.132093,0.565410,-0.065566,15.248218,188.495749,0
0.110417,-183.666659,35.907339,131.415341,5.359698,5.074363,-4.386779,-0.986751,-5.046675,4.521071,0.898681,-0.139399,0.568676,-0.009553,15.451798,188.420321,0
0.111458,-154.028705,-35.055891,172.225001,6.162708,5.713413,-2.779502,-3.121095,-5.634795,2.922131,2.915980,-0.219765,0.584550,-0.043161,16.582798,188.420307,0
0.112500,-99.527990,-105.028487,177.321591,6.253188,5.351285,-0.521378,-4.729315,-5.384844,0.756637,4.549032,-0.245336,0.579128,-0.054364,9.649768,188.420265,0
0.113542,-16.659681,-148.157315,182.036554,6.354978,4.296852,1.597846,-5.587530,-4.304174,-1.413053,5.399357,-0.241683,0.580500,-0.054364,5.091838,188.499093,0
0.114583,59.346414,-168.489476,147.579167,5.653758,2.535914,3.451174,-5.442007,-2.609653,-3.267991,5.335316,-0.223418,0.585987,-0.035692,-1.716782,188.421390,0
0.115625,114.300829,-191.394870,64.716477,4.138218,0.263736,5.141791,-4.762898,-0.304958,-4.988635,4.694903,-0.227071,0.580892,-0.054364,-4.928821,188.420377,0
0.116667,154.952351,-167.184738,-9.417992,2.724468,-1.589509,5.621990,-3.322589,1.599081,-5.513222,3.353595,-0.183235,0.578475,-0.024490,-8.287891,188.420314,0
0.117708,179.236645,-117.242281,-79.403788,1.446438,-3.765830,5.435466,-1.083767,3.738367,-5.425091,1.147730,-0.135746,0.570244,-0.046895,-10.572511,188.495662,0
0.118750,183.353972,-36.952593,-131.169887,0.451158,-4.912570,4.498880,0.916247,5.013853,-4.577359,-0.716581,-0.110175,0.572922,-0.043161,-10.764781,188.495718,0
0.119792,153.704676,34.771734,-172.348864,-0.374472,-5.597773,2.915415,2.938650,5.605648,-3.007796,-2.708976,-0.099216,0.580369,-0.035692,-11.126701,188.420247,0
0.120833,99.861826,105.143000,-177.605493,-0.476262,-5.285349,0.716820,4.580453,5.326291,-0.800336,-4.331354,-0.048074,0.582133,-0.050629,-5.245501,188.420320,0
0.121877,15.677787,148.368474,-182.086554,-0.578052,-4.198964,-1.438121,5.408817,4.256648,1.344174,-5.192353,-0.037115,0.550515,-0.061832,-0.540542,188.495712,0
0.122917,-60.441733,168.616069,-147.641478,0.111858,-2.374121,-3.267638,5.352846,2.565803,3.182326,-5.114080,-0.011544,0.579977,-0.050629,7.172878,188.495689,0
0.123958,-114.738283,191.376493,-63.683144,1.717878,-0.187149,-4.974129,4.699856,0.297865,4.944937,-4.530593,-0.048074,0.578801,-0.054364,9.310468,188.420301,0
0.125000,-154.618515,167.927458,11.042235,3.075078,1.687398,-5.478139,3.270742,-1.595146,5.511490,-3.224863,-0.084604,0.571811,-0.024490,13.291588,188.420318,0
0.126042,-178.891466,116.668182,80.067803,4.364418,3.828215,-5.359082,1.046845,-3.705027,5.364606,-1.072366,-0.099216,0.563972,-0.061832,15.361318,188.495642,0
0.127083,-184.086331,36.173119,130.922917,5.337078,5.035310,-4.414559,-0.971826,-5.046675,4.554644,0.866660,-0.161317,0.558812,-0.028224,15.474418,188.495626,0
