1-Time,2-VGERA,3-VGERB,4-VGERC,5-VN,6-IGERAN,7-IGERBN,8-IGERCN,9-IGERAT,10-IGERBT,11-IGERCT,12-IN,13-IFD,14-IFAULT,15-VFAULT,16-Speed (rad/s),17-Active Power,18-Reactive Power,19-FAULT 
0.000000,-85.814531,-106.199790,185.500283,3.883467,5.759456,0.498972,-6.264412,-5.846631,-0.683232,6.734644,0.135714,0.639343,-0.025873,-65.798439,188.570707,1584.966910,918.646877,0
0.001042,-8.681241,-150.513713,182.523124,3.838430,4.240294,2.600272,-6.573702,-4.327469,-2.611483,6.848879,0.128422,0.640377,-0.055607,-92.064110,188.495298,1584.937797,919.250386,0
0.002083,62.813386,-176.376225,132.215203,2.870130,1.811103,4.619810,-6.016979,-1.775276,-4.764050,6.323397,0.117483,0.622670,-0.055607,-106.733707,188.570624,1584.461682,919.423475,0
0.003125,116.216833,-192.889709,50.167116,1.305087,-0.709825,6.083361,-4.806882,0.761725,-6.006414,5.059194,0.102898,0.619018,0.015011,-112.137703,188.495188,1584.303335,920.134305,0
0.004167,164.783913,-161.060732,-18.429071,-0.034769,-2.823441,6.144683,-2.711441,2.964510,-6.105630,2.922995,0.033621,0.607581,-0.003573,-87.887272,188.570673,1583.252070,920.068188,0
0.005208,181.214004,-108.525302,-87.790813,-1.385885,-4.948066,5.596873,-0.125003,5.125518,-5.436997,0.345086,0.008098,0.615642,-0.022156,-53.065274,188.495231,1582.967488,919.643119,0
0.006250,179.665914,-24.454519,-132.812757,-2.264111,-6.217703,4.137410,2.507830,6.447190,-4.000515,-2.263286,-0.050241,0.594765,-0.044457,-6.782301,188.570660,1582.322363,919.364293,0
0.007292,154.986877,48.505483,-166.557949,-2.950928,-6.676388,2.109696,4.792710,6.864959,-1.942850,-4.418524,-0.075764,0.599726,-0.044457,35.920524,188.495300,1582.100476,919.413741,0
0.008333,83.853847,106.795968,-186.000624,-3.367522,-5.795714,-0.453563,6.219311,6.018026,0.679917,-5.915006,-0.075764,0.627286,-0.029590,67.578933,188.570617,1582.453225,919.710667,0
0.009375,7.308153,150.452171,-182.270061,-3.277448,-4.305908,-2.485364,6.513137,4.388725,2.638364,-6.021626,-0.108580,0.635692,-0.022156,93.225396,188.495208,1582.043418,919.416011,0
0.010417,-63.180781,176.784484,-131.366708,-2.264111,-1.847361,-4.623458,6.010540,1.870713,4.773676,-5.549453,-0.130457,0.627217,-0.059323,106.566511,188.645986,1582.310577,918.840100,0
0.011458,-116.098331,192.405347,-49.901901,-0.721587,0.721270,-6.037951,4.827505,-0.692873,6.050550,-4.220517,-0.053887,0.622945,-0.033307,114.424822,188.495255,1582.703171,917.810172,0
0.012500,-165.264306,160.658585,18.317584,0.607011,2.834886,-6.082921,2.681805,-2.922244,6.132511,-2.095741,-0.039302,0.613919,0.000144,88.812133,188.570747,1583.257793,917.053116,0
0.013542,-180.846903,109.051010,87.970966,1.958127,4.977858,-5.547376,0.052839,-5.094646,5.507016,0.485976,0.022683,0.603998,-0.018440,55.780209,188.495217,1584.298269,915.782146,0
0.014583,-179.762111,26.072514,133.454673,2.881389,6.265843,-4.038855,-2.560662,-6.389731,3.962689,3.124810,0.088314,0.612197,-0.025873,7.808488,188.570588,1584.957853,915.027268,0
0.015625,-155.422071,-47.169369,166.665192,3.478132,6.669485,-2.007053,-4.826212,-6.750532,1.922280,5.295280,0.099252,0.631282,0.000144,-35.704937,188.570618,1585.186577,913.672441,0
0.016667,-84.718439,-106.211535,186.448114,3.917245,5.686066,0.584823,-6.295341,-5.865620,-0.726370,6.734644,0.110191,0.634727,-0.022156,-65.933539,188.570602,1585.536039,913.813293,0
0.017708,-8.410043,-150.854318,182.109967,3.827171,4.188921,2.620713,-6.573702,-4.278096,-2.633052,6.826032,0.124775,0.640515,-0.029590,-92.795901,188.502558,1585.279630,913.188152,0
0.018750,62.496988,-177.409786,131.668378,2.825093,1.774408,4.681132,-6.013113,-1.699318,-4.776992,6.315782,0.139360,0.630662,-0.033307,-106.542316,188.570633,1585.782013,912.467643,0
0.019792,116.216833,-192.267223,50.154964,1.271309,-0.794223,6.091537,-4.772087,0.746533,-6.027982,4.963998,0.088314,0.621016,0.011294,-113.297310,188.495262,1585.323081,911.531647,0
0.020833,165.258509,-161.048987,-18.538436,-0.034769,-2.874814,6.156947,-2.688245,3.082245,-6.109944,2.884916,0.077375,0.611370,-0.081624,-89.260787,188.570546,1586.694418,910.703759,0
0.021875,180.682907,-108.290401,-88.216122,-1.408404,-4.966413,5.592785,-0.074743,5.140710,-5.449938,0.272737,0.000805,0.591182,-0.022156,-54.157331,188.495316,1587.080699,910.132673,0
0.022917,180.027512,-24.560224,-132.909970,-2.275370,-6.258068,4.116969,2.534892,6.523148,-4.009142,-2.369906,-0.072118,0.613919,-0.011006,-5.994218,188.495338,1589.073676,909.731198,0
0.023958,154.873878,48.763874,-166.169096,-2.917150,-6.694735,2.032022,4.808175,6.868757,-1.882458,-4.460411,-0.108580,0.592974,-0.018440,36.033107,188.570635,1589.528196,908.894689,0
0.025000,83.266251,106.490598,-186.498842,-3.435078,-5.751680,-0.535325,6.265704,5.961058,0.744623,-5.964508,-0.126811,0.608890,-0.033307,66.351776,188.570740,1590.200616,907.781981,0
0.026045,6.754457,151.015931,-181.577415,-3.187373,-4.217841,-2.563039,6.532467,4.327958,2.707385,-6.055896,-0.104934,0.624737,0.029877,92.763805,188.495289,1590.854721,907.188451,0
0.027083,-63.395480,177.336499,-131.038613,-2.264111,-1.795989,-4.643898,6.026005,1.844128,4.803873,-5.568493,-0.090349,0.631696,-0.037023,107.613535,188.577641,1591.462269,907.274233,0
0.028125,-116.369530,192.417092,-49.379379,-0.687809,0.732278,-6.042040,4.761781,-0.700469,6.054864,-4.205285,-0.061180,0.622050,-0.022156,113.490381,188.498184,1591.379090,907.319829,0
0.029167,-165.253007,160.599860,18.645679,0.607011,2.860572,-6.107450,2.670207,-2.945031,6.162708,-2.072894,-0.057533,0.614677,-0.025873,89.318758,188.571131,1591.854288,907.258571,0
0.030208,-180.880803,108.604700,88.214000,1.969386,5.014553,-5.571904,0.052839,-5.102241,5.524271,0.482168,0.044560,0.604204,-0.025873,53.866294,188.495725,1591.894065,907.652567,0
0.031250,-179.762111,25.532244,133.454673,2.870130,6.262174,-4.112441,-2.610922,-6.423913,3.997199,3.162889,0.051852,0.610957,-0.014723,6.660138,188.571051,1592.549441,908.043638,0
0.032292,-155.150873,-47.568699,166.956832,3.511910,6.724527,-2.056111,-4.810748,-6.784714,1.930908,5.264817,0.091960,0.614884,-0.033307,-35.288379,188.495618,1592.422948,908.759692,0
0.033333,-84.492440,-106.375965,186.618237,3.917245,5.741109,0.564382,-6.279876,-5.831439,-0.696173,6.746068,0.121129,0.633900,-0.029590,-65.865989,188.570993,1592.158900,908.838568,0
0.034375,-8.477843,-150.971768,181.939843,3.849689,4.192591,2.600272,-6.546639,-4.221127,-2.667562,6.837456,0.139360,0.642720,-0.025873,-92.323052,188.495647,1592.536802,908.031948,0
0.035421,63.061985,-178.126231,130.586879,2.757537,1.704688,4.709749,-6.036310,-1.691722,-4.846012,6.323397,0.143006,0.627493,-0.014723,-107.634373,188.571078,1593.161332,908.457041,0
0.036460,116.623631,-192.419909,49.486622,1.293828,-0.731842,6.107890,-4.775953,0.822491,-6.036610,4.975421,0.110191,0.623428,-0.007290,-111.687370,188.495542,1593.764931,908.316297,0
0.037500,165.642707,-160.966772,-18.745015,-0.068547,-2.841788,6.165124,-2.649583,3.040468,-6.178964,2.827799,0.084667,0.609165,-0.018440,-88.011113,188.571036,1594.057928,908.560794,0
0.038542,180.886306,-108.278656,-88.179667,-1.408404,-4.977422,5.547816,-0.005153,5.178689,-5.467193,0.265121,-0.002841,0.592629,-0.059323,-52.761299,188.495604,1594.713574,908.657949,0
0.039583,179.971012,-24.278344,-133.225914,-2.286629,-6.280085,4.080176,2.600617,6.511754,-3.983259,-2.411792,-0.035656,0.617295,-0.037023,-6.602168,188.570964,1594.861711,908.190100,0
0.040625,154.885178,49.057499,-166.448584,-2.917150,-6.705743,2.023846,4.866167,6.895343,-1.847948,-4.494681,-0.097641,0.577954,-0.025873,36.359599,188.495693,1595.620552,908.053858,0
0.041667,82.520456,106.748988,-187.045668,-3.390041,-5.737003,-0.580295,6.285035,5.900291,0.774819,-5.960700,-0.104934,0.594490,0.007577,67.646483,188.571082,1595.400881,907.452287,0
0.042708,6.754457,150.910226,-181.820449,-3.243670,-4.214171,-2.624361,6.528601,4.324160,2.728953,-6.033049,-0.115872,0.607787,-0.003573,93.461821,188.513611,1595.453255,907.111733,0
0.043750,-63.576278,178.017710,-130.260906,-2.264111,-1.751955,-4.684780,5.979611,1.787159,4.855638,-5.496144,-0.123164,0.613368,-0.022156,107.287044,188.513779,1595.592601,906.103258,0
0.044792,-116.471229,192.217427,-48.856857,-0.710327,0.750625,-6.054304,4.730852,-0.753639,6.028981,-4.190054,-0.090349,0.621154,-0.048173,114.289722,188.505729,1595.423472,905.571915,0
0.045833,-165.716303,160.658585,19.411234,0.607011,2.944970,-6.176948,2.619947,-3.009595,6.162708,-2.034815,-0.039302,0.611094,0.000144,88.699550,188.500966,1596.131906,905.247926,0
0.046875,-180.485306,108.099665,88.809432,1.980645,5.054917,-5.563728,0.018044,-5.117433,5.524271,0.546901,0.000805,0.603378,-0.018440,55.296101,188.501965,1596.351793,904.788316,0
0.047917,-180.123708,24.980228,133.977195,2.858871,6.284190,-4.047031,-2.672780,-6.427710,3.945434,3.239045,0.070083,0.610474,-0.011006,7.380671,188.502260,1597.056100,904.019548,0
0.048958,-155.241273,-48.167695,166.543675,3.523169,6.731866,-1.962083,-4.915133,-6.746735,1.836005,5.314319,0.132068,0.625426,-0.003573,-36.098979,188.500115,1597.350208,902.552316,0
0.050001,-83.136449,-106.117574,187.602522,3.939764,5.730100,0.699291,-6.391994,-5.846631,-0.842841,6.784146,0.106545,0.630111,-0.011006,-65.888505,188.520523,1598.737514,901.633658,0
0.051052,-7.381750,-152.052309,180.360126,3.725837,4.115532,2.735181,-6.542773,-4.145169,-2.766779,6.856495,0.139360,0.633763,-0.029590,-93.358818,188.517650,1599.110397,900.962996,0
0.052095,63.276683,-180.028923,128.885645,2.768796,1.642307,4.828304,-5.997649,-1.573987,-4.945228,6.281511,0.132068,0.625908,0.007577,-107.859540,188.578980,1600.279864,899.921216,0
0.053129,116.759230,-191.726953,49.194982,1.248791,-0.874951,6.148771,-4.721827,0.917439,-6.071120,4.922112,0.062790,0.624117,-0.003573,-112.959561,188.517764,1600.870332,898.638254,0
0.054169,166.365902,-161.025497,-19.790058,-0.091066,-3.006915,6.206005,-2.556796,3.154405,-6.187592,2.770681,0.037267,0.608614,-0.007290,-89.193237,188.578989,1602.211227,898.093641,0
0.055213,180.072711,-107.479996,-89.236862,-1.397145,-5.054481,5.568256,0.041241,5.224264,-5.406801,0.204196,0.019036,0.596970,0.000144,-53.549382,188.501018,1602.152667,897.185536,0
0.056253,180.468209,-23.679349,-133.699829,-2.309148,-6.239720,4.076088,2.705002,6.587712,-3.927181,-2.465102,-0.039302,0.562727,-0.018440,-5.622694,188.496700,1603.489721,896.817824,0
0.057295,154.444481,49.809180,-166.144792,-2.917150,-6.647032,1.974788,4.870033,6.857363,-1.830692,-4.540375,-0.097641,0.564931,-0.007290,36.798673,188.496161,1603.343037,896.376266,0
0.058343,80.305671,106.889929,-188.929177,-3.367522,-5.729664,-0.698851,6.354625,5.885100,0.882663,-6.063512,-0.126811,0.609854,-0.029590,66.689525,188.570957,1605.118673,896.033631,0
0.059382,6.053861,151.614927,-180.738950,-3.164855,-4.126104,-2.661154,6.540199,4.282383,2.746208,-6.033049,-0.112226,0.618398,0.000144,93.101555,188.495528,1604.753633,895.925085,0
0.060421,-63.824877,179.051271,-129.264469,-2.185296,-1.645540,-4.778807,6.026005,1.745382,4.924658,-5.503759,-0.123164,0.606754,-0.037023,108.435393,188.495528,1605.678918,895.911856,0
0.061468,-117.058825,191.724136,-47.678145,-0.699068,0.813006,-6.103362,4.684459,-0.776427,6.098001,-4.129128,-0.093995,0.622463,-0.055607,112.972498,188.495678,1605.938806,895.758125,0
0.062503,-166.010102,160.670330,19.909453,0.618270,2.948640,-6.164684,2.573554,-3.066564,6.171335,-2.015776,-0.039302,0.610819,0.011294,89.318758,188.570986,1606.628486,895.594835,0
0.063544,-180.428806,107.512414,89.149678,1.980645,5.047578,-5.494230,-0.032216,-5.132625,5.468192,0.588788,0.000805,0.603102,-0.018440,53.033178,188.495559,1606.455301,894.820233,0
0.064584,-180.202808,24.616133,133.940740,2.847611,6.331894,-4.006150,-2.699843,-6.439104,3.928179,3.273316,0.077375,0.606685,-0.011006,6.356164,188.570950,1606.786899,894.505036,0
0.065625,-154.913575,-48.343870,166.786709,3.534429,6.728197,-1.933467,-4.903535,-6.758128,1.861887,5.333358,0.132068,0.627148,-0.037023,-35.536062,188.495436,1606.951727,894.971632,0
0.066667,-82.899151,-106.364220,187.638977,3.962282,5.715422,0.711555,-6.384261,-5.858025,-0.834214,6.822225,0.157591,0.635485,0.011294,-65.809697,188.570879,1607.335369,895.357091,0
0.067708,-7.980646,-151.382843,181.441625,3.804652,4.181583,2.665682,-6.623961,-4.221127,-2.710700,6.879342,0.117483,0.641479,-0.025873,-92.649543,188.495515,1607.560873,896.275943,0
0.068750,62.722987,-178.525562,130.574727,2.813834,1.701019,4.775159,-6.016979,-1.642349,-4.902091,6.315782,0.106545,0.633487,0.011294,-107.837023,188.570834,1607.314722,896.541182,0
0.069792,116.634931,-192.091048,49.656745,1.260050,-0.889629,6.169212,-4.756622,0.875662,-6.105630,4.948766,0.091960,0.627630,-0.037023,-111.484720,188.495535,1607.752297,897.144037,0
0.070833,166.411102,-160.978517,-19.182475,-0.068547,-3.014254,6.226446,-2.587725,3.165799,-6.153082,2.763065,0.081021,0.610543,-0.022156,-88.134955,188.570910,1607.621286,896.542329,0
0.071875,180.773307,-107.949796,-88.714340,-1.430923,-5.065489,5.572344,0.029642,5.273637,-5.480135,0.204196,0.011744,0.598555,-0.051890,-52.524874,188.495580,1609.047622,897.109002,0
0.072917,180.456909,-24.090424,-133.724132,-2.252852,-6.316779,4.055647,2.708868,6.610500,-3.866788,-2.510796,-0.050241,0.585119,-0.029590,-6.534618,188.498396,1609.682371,896.021721,0
0.073958,154.828678,49.351124,-166.424281,-2.939669,-6.735099,1.954347,4.931891,6.899140,-1.796182,-4.540375,-0.079410,0.620947,-0.003573,36.652315,188.495738,1610.438529,895.831391,0
0.075000,81.164465,106.655028,-188.260835,-3.401300,-5.751680,-0.662057,6.346893,5.904089,0.882663,-6.052089,-0.112226,0.616882,-0.033307,67.691516,188.495629,1610.451264,895.658498,0
0.076042,6.426759,151.344792,-181.285775,-3.266189,-4.173807,-2.669330,6.571128,4.248202,2.797974,-6.063512,-0.130457,0.634865,-0.018440,93.653213,188.495647,1611.530440,894.863694,0
0.077083,-63.632778,179.133486,-129.252317,-2.241592,-1.671227,-4.762454,5.995076,1.711201,4.946227,-5.515183,-0.123164,0.639137,-0.037023,108.007577,188.571098,1612.036744,894.483729,0
0.078125,-116.652028,191.935547,-48.030543,-0.687809,0.882726,-6.119714,4.707656,-0.863779,6.119570,-4.132936,-0.061180,0.618191,-0.022156,114.064555,188.495691,1613.125829,893.548471,0
0.079167,-166.236100,160.635095,20.541340,0.640789,3.047715,-6.209653,2.550357,-3.153916,6.197218,-1.992929,-0.032010,0.610199,-0.025873,88.609483,188.495747,1614.252657,893.325169,0
0.080208,-180.123708,107.289259,89.295498,1.980645,5.128307,-5.526935,-0.097940,-5.181997,5.463878,0.626866,0.033621,0.604136,-0.022156,54.924576,188.495633,1614.827630,892.861737,0
0.081252,-180.666105,23.958412,134.414655,2.858871,6.368588,-3.989797,-2.757835,-6.492275,3.910924,3.345665,0.059144,0.600828,-0.014723,6.862788,188.420218,1616.137017,892.731730,0
0.082292,-154.698876,-48.978100,166.446462,3.511910,6.698841,-1.868056,-4.949929,-6.807501,1.779926,5.398092,0.106545,0.627217,-0.007290,-36.346662,188.495562,1617.241666,892.076508,0
0.083334,-81.577059,-106.094084,188.866296,4.029838,5.678727,0.736084,-6.446119,-5.850429,-0.911861,6.867919,0.139360,0.635485,-0.040740,-65.933539,188.420128,1618.243971,891.625809,0
0.084375,-7.641648,-151.605999,180.906951,3.804652,4.104524,2.796503,-6.612363,-4.164159,-2.827171,6.909805,0.157591,0.639275,-0.044457,-93.133651,188.495624,1619.404880,890.578554,0
0.085417,62.643887,-179.653083,129.857779,2.825093,1.590935,4.848745,-6.067239,-1.581583,-4.988366,6.334821,0.143006,0.627217,-0.007290,-107.690665,188.495738,1620.861761,890.262417,0
0.086459,116.985228,-191.550778,49.207133,1.282569,-0.922654,6.238710,-4.714095,0.944024,-6.079748,4.933535,0.088314,0.621912,-0.044457,-112.801944,188.495546,1620.717342,889.646539,0
0.087500,166.591901,-161.178182,-19.547025,-0.057288,-3.072965,6.242798,-2.579993,3.245555,-6.183278,2.732602,0.037267,0.613713,-0.055607,-89.272046,188.420363,1621.934643,889.274056,0
0.088542,180.061412,-107.573956,-89.030284,-1.408404,-5.120531,5.588697,0.064438,5.281233,-5.428370,0.131847,-0.028364,0.601380,-0.055607,-53.650707,188.495589,1621.715695,888.010905,0
0.089584,180.886306,-24.137404,-133.845649,-2.275370,-6.331457,4.022942,2.708868,6.629489,-3.888357,-2.545066,-0.042949,0.591251,-0.018440,-5.915410,188.495656,1622.484129,888.148846,0
0.090625,154.546180,49.586024,-166.120489,-2.872113,-6.720421,1.966612,4.955088,6.891545,-1.757359,-4.624148,-0.086703,0.590080,-0.025873,36.719865,188.495629,1623.211007,887.351858,0
0.091667,81.040166,106.149993,-188.831963,-3.423819,-5.711316,-0.751996,6.393287,5.904089,0.943056,-6.086359,-0.115872,0.603378,-0.033307,66.227934,188.495664,1624.177705,886.705901,0
0.092709,6.562358,151.121637,-180.909073,-3.221151,-4.122434,-2.759269,6.563396,4.233011,2.845425,-6.090167,-0.093995,0.617571,-0.037023,92.820097,188.495734,1624.752149,886.253408,0
0.093750,-63.474579,179.344896,-128.887767,-2.219074,-1.656549,-4.856481,6.006674,1.696010,4.989364,-5.511375,-0.101287,0.623634,-0.029590,108.559235,188.495638,1625.225898,886.013618,0
0.094792,-116.493829,191.970782,-47.909027,-0.687809,0.904743,-6.119714,4.680593,-0.844789,6.102315,-4.132936,-0.079410,0.619983,-0.018440,113.118856,188.495683,1624.852439,886.113375,0
0.095834,-166.236100,160.823015,20.589947,0.652048,3.062393,-6.209653,2.531026,-3.134926,6.223100,-1.981506,-0.046595,0.610750,-0.029590,89.341274,188.420267,1624.980837,886.266029,0
0.096875,-180.270607,107.183554,89.246892,1.969386,5.150323,-5.547376,-0.090207,-5.223774,5.446623,0.653521,0.015390,0.601724,-0.025873,52.853044,188.495689,1625.511774,885.816151,0
0.097917,-180.564405,23.758747,133.989347,2.870130,6.331894,-3.953004,-2.811961,-6.518860,3.906610,3.368512,0.044560,0.605651,0.007577,6.142255,188.495797,1625.835514,885.577500,0
0.098959,-154.551977,-49.201256,166.616585,3.500651,6.709849,-1.876233,-4.961527,-6.811299,1.818750,5.363821,0.077375,0.625357,-0.037023,-35.885070,188.495674,1625.355787,886.320437,0
0.100000,-81.577059,-106.246770,188.671870,3.928504,5.715422,0.756525,-6.419057,-5.877014,-0.890292,6.864111,0.139360,0.635209,-0.014723,-65.775922,188.420336,1625.235840,886.836450,0
0.101042,-7.506049,-151.664724,181.028468,3.804652,4.141218,2.771974,-6.627827,-4.194542,-2.805603,6.905997,0.150299,0.640928,-0.033307,-92.807160,188.495716,1625.034118,887.371433,0
0.102084,62.768187,-179.512142,129.918537,2.768796,1.638638,4.856921,-6.036310,-1.551200,-4.949542,6.300550,0.121129,0.631971,-0.022156,-108.253581,188.495703,1624.396333,886.814366,0
0.103125,116.838329,-191.856148,49.280043,1.271309,-0.911646,6.181476,-4.729559,0.932631,-6.084061,4.910688,0.117483,0.624117,0.018727,-111.259554,188.495759,1624.402730,886.620569,0
0.104167,166.783999,-161.060732,-19.510570,-0.057288,-3.102321,6.250974,-2.576127,3.272141,-6.196219,2.732602,0.037267,0.613988,-0.018440,-88.281313,188.420240,1624.805881,886.629622,0
0.105209,180.524709,-107.773621,-89.018132,-1.453441,-5.135209,5.605050,0.087634,5.288828,-5.454252,0.135654,0.008098,0.603791,-0.025873,-52.423549,188.495720,1625.262166,886.998521,0
0.106250,180.694207,-24.172639,-134.137289,-2.252852,-6.379160,4.051559,2.751395,6.602904,-3.914239,-2.526027,-0.050241,0.601242,-0.055607,-6.579651,188.420332,1624.832767,887.426042,0
0.107292,154.693079,49.386359,-166.399977,-2.917150,-6.753447,1.909378,4.982150,6.929524,-1.748731,-4.597493,-0.093995,0.606134,-0.051890,36.753640,188.495611,1625.065200,887.710220,0
0.108334,80.712468,106.455363,-188.953480,-3.390041,-5.707647,-0.727468,6.420350,5.942068,0.904232,-6.093975,-0.075764,0.614746,-0.055607,67.691516,188.420177,1625.032313,888.695114,0
0.109375,6.404159,151.685397,-180.933377,-3.176114,-4.093079,-2.730652,6.590459,4.248202,2.806601,-6.116822,-0.093995,0.598555,-0.037023,93.833346,188.495665,1625.013581,889.505846,0
0.110417,-63.497179,179.896911,-128.790554,-2.151518,-1.572151,-4.831952,5.995076,1.631445,4.989364,-5.530414,-0.130457,0.607236,-0.018440,108.457910,188.420240,1625.526239,889.117416,0
