1-Time,2-VGERA,3-VGERB,4-VGERC,5-VN,6-IGERAN,7-IGERBN,8-IGERCN,9-IGERAT,10-IGERBT,11-IGERCT,12-IN,13-IFD,14-IFAULT,15-VFAULT,16-Speed (rad/s),17-Active Power,18-Reactive Power,19-FAULT 
0.000000,51.773359,104.094616,-194.154396,-3.491375,0.912082,-6.128138,4.842970,-0.561155,6.164652,-4.976588,-0.093995,0.346450,0.000144,47.617923,188.420301,1495.240143,-890.664400,0
0.001042,1.782490,164.064638,-148.828660,-2.568112,3.238528,-6.427768,2.747529,-2.984399,6.530631,-2.958432,-0.050241,0.334737,-0.033307,-0.905456,188.344885,1494.779285,-891.071444,0
0.002083,-51.010761,202.188940,-84.303283,-1.374626,5.355814,-5.778570,0.126296,-4.933369,5.736942,-0.292942,0.015390,0.320061,-0.014723,-53.065274,188.420303,1493.979486,-891.086849,0
0.003125,-124.607175,173.613331,-31.905275,-0.372548,6.372258,-4.247127,-2.382821,-6.074591,4.101061,2.174539,0.048206,0.315169,0.003860,-127.313925,188.495797,1492.569822,-890.798314,0
0.004167,-184.666278,124.401739,18.913016,0.640789,6.658477,-2.274562,-4.296553,-6.233918,2.187388,3.968033,0.088314,0.322541,0.007577,-179.575068,188.495682,1492.646804,-889.372211,0
0.005208,-191.717432,61.777345,79.999470,1.834274,5.715422,0.434593,-5.843004,-5.389117,-0.533201,5.567326,0.121129,0.325848,0.007577,-187.118145,188.420267,1491.913017,-888.878845,0
0.006250,-168.868983,10.792256,152.787983,3.230428,4.427437,2.656850,-6.496379,-4.077453,-2.737893,6.035691,0.139360,0.325297,-0.014723,-161.989564,188.420327,1491.599923,-888.160417,0
0.007292,-109.431375,-38.360611,194.164425,4.041097,2.145025,4.475438,-5.839138,-1.772777,-4.642747,5.418820,0.121129,0.334392,0.003860,-100.946928,188.495626,1490.461808,-887.264074,0
0.008333,-50.445765,-104.297098,194.565430,4.041097,-0.287835,6.135889,-4.857141,0.687520,-6.119891,4.306931,0.095606,0.315307,-0.037023,-46.299021,188.495633,1489.832007,-886.439168,0
0.009375,-0.827793,-163.715104,149.069571,3.196650,-2.687671,6.431357,-2.742370,3.077417,-6.410910,2.254504,0.044560,0.331912,-0.011006,1.864092,188.495656,1488.339376,-885.562223,0
0.010417,51.242263,-202.485382,83.875853,1.946867,-4.669186,5.807128,-0.198459,5.081967,-5.648086,-0.338636,0.015390,0.322610,-0.011006,53.618610,188.420231,1488.180131,-884.196006,0
0.011458,124.273680,-173.721853,31.781636,0.967308,-5.755350,4.238231,2.326122,6.145378,-4.122440,-2.870851,-0.039302,0.314342,-0.007290,127.473220,188.495562,1487.370185,-883.356708,0
0.012500,184.558782,-124.322340,-18.805773,-0.023510,-6.019552,2.290636,4.220524,6.367694,-2.151445,-4.641498,-0.064826,0.324677,-0.014723,179.937013,188.495579,1487.764705,-882.185227,0
0.013542,191.643835,-61.580496,-79.782862,-1.262033,-5.146217,-0.376905,5.774706,5.519188,0.547097,-6.259830,-0.079410,0.328467,-0.033307,187.468832,188.495653,1487.236061,-880.929238,0
0.014583,168.930985,-10.560172,-152.328342,-2.680705,-3.894927,-2.678230,6.478341,4.222345,2.747380,-6.781505,-0.119518,0.333910,-0.037023,162.745551,188.495655,1488.064772,-879.703178,0
0.015625,109.131780,38.580950,-194.215154,-3.468856,-1.539126,-4.467688,5.852029,1.902848,4.691918,-6.145595,-0.119518,0.319027,-0.011006,101.849273,188.495602,1488.289333,-878.618065,0
0.016667,50.722466,104.165086,-194.385277,-3.457597,0.915752,-6.136461,4.866167,-0.561155,6.147015,-5.033705,-0.086703,0.328604,-0.011006,47.843090,188.495682,1488.938646,-877.993573,0
0.017708,1.579091,164.099873,-148.755750,-2.590631,3.271553,-6.461061,2.720466,-2.958462,6.495356,-2.988894,-0.039302,0.325297,0.000144,-0.500156,188.495636,1488.913860,-877.239421,0
0.018750,-51.157660,202.141960,-84.522014,-1.385885,5.311780,-5.824347,0.172689,-4.944485,5.754580,-0.342444,0.015390,0.322955,0.000144,-53.189115,188.571073,1489.514849,-876.944977,0
0.019792,-124.968773,173.648566,-32.415645,-0.395067,6.397944,-4.247127,-2.324829,-6.082002,4.176020,2.182155,0.040913,0.316271,-0.044457,-127.955649,188.495754,1490.423222,-876.980375,0
0.020833,-184.417680,125.012479,18.888713,0.618270,6.695171,-2.295370,-4.277223,-6.282086,2.160932,3.929954,0.073729,0.326193,-0.018440,-179.394934,188.571022,1490.604057,-877.169526,0
0.021875,-191.717432,62.869631,80.594901,1.845534,5.737439,0.392978,-5.889397,-5.433580,-0.542020,5.582558,0.128422,0.328467,-0.022156,-187.253245,188.495689,1491.346637,-877.735163,0
0.022917,-169.309680,11.414742,152.787983,3.264206,4.456793,2.669335,-6.531174,-4.077453,-2.715846,6.062346,0.139360,0.343831,-0.014723,-162.383606,188.571123,1491.616385,-878.022725,0
0.023958,-110.154571,-38.278396,194.553279,4.119912,2.141356,4.521215,-5.877799,-1.787598,-4.655975,5.434052,0.150299,0.349550,-0.025873,-101.735011,188.495674,1492.151776,-878.434945,0
0.025000,-51.700057,-104.402803,194.285942,4.041097,-0.295174,6.160858,-4.895803,0.691226,-6.133119,4.303123,0.110191,0.338388,-0.022156,-47.334786,188.571031,1492.100459,-878.999255,0
0.026042,-1.754387,-164.502020,149.166785,3.196650,-2.684001,6.468811,-2.792630,3.077417,-6.463822,2.246888,0.077375,0.337355,0.003860,1.323693,188.571111,1492.710937,-879.692167,0
0.027083,51.355262,-202.086052,84.762925,1.969386,-4.724228,5.832097,-0.175262,5.044914,-5.700999,-0.384331,0.004452,0.322128,-0.025873,53.629869,188.571013,1492.729877,-880.035628,0
0.028125,125.121175,-173.909773,32.559343,0.944790,-5.781036,4.250716,2.275862,6.200957,-4.126849,-2.828965,-0.068472,0.319579,0.022444,128.081169,188.495667,1493.590978,-880.233240,0
0.029167,184.457083,-124.956571,-18.684256,-0.023510,-6.045238,2.357220,4.216657,6.356578,-2.124989,-4.675768,-0.053887,0.326744,-0.033307,179.689330,188.646431,1493.326579,-881.039120,0
0.030208,191.915033,-62.449627,-79.916530,-1.262033,-5.116862,-0.364420,5.790171,5.545125,0.560326,-6.267446,-0.126811,0.328536,0.000144,187.705257,188.570995,1493.722733,-881.616244,0
0.031250,168.998785,-10.853798,-152.413403,-2.680705,-3.861902,-2.628292,6.451279,4.181587,2.778246,-6.735811,-0.115872,0.344176,0.003860,162.396543,188.571004,1492.845467,-881.972523,0
0.032292,109.651577,38.498735,-194.336671,-3.525153,-1.597837,-4.438557,5.813368,1.865795,4.643415,-6.164634,-0.119518,0.348034,-0.022156,101.443973,188.495584,1492.677166,-882.044282,0
0.033333,50.654667,104.329516,-194.203002,-3.525153,0.893735,-6.111492,4.839104,-0.572270,6.182290,-5.003243,-0.126811,0.337561,-0.014723,46.807324,188.646402,1492.559149,-882.422509,0
0.034375,0.991495,163.853227,-148.840812,-2.601890,3.278892,-6.402799,2.739797,-2.913999,6.495356,-2.939392,-0.064826,0.327847,-0.003573,-1.412080,188.646560,1492.096271,-882.044050,0
0.035417,-51.225460,202.306391,-83.853672,-1.374626,5.355814,-5.778570,0.168823,-4.937075,5.719304,-0.319597,0.004452,0.317580,-0.055607,-53.301699,188.571129,1491.595753,-881.898970,0
0.036458,-124.618475,173.707291,-31.394905,-0.395067,6.379597,-4.255450,-2.332561,-6.063476,4.167201,2.136461,0.051852,0.312551,0.003860,-127.235116,188.495620,1491.496818,-880.953803,0
0.037500,-184.621079,124.272543,19.131746,0.652048,6.643799,-2.274562,-4.281089,-6.245034,2.169751,3.956609,0.066437,0.321439,-0.003573,-179.563809,188.721806,1491.287628,-880.696586,0
0.038542,-191.683532,61.342779,80.096683,1.823015,5.726431,0.405463,-5.804342,-5.374296,-0.586114,5.559711,0.135714,0.324746,0.007577,-187.016820,188.646476,1490.099513,-880.393976,0
0.039583,-168.631684,10.228496,152.800135,3.275465,4.409090,2.631881,-6.480915,-4.051516,-2.671753,6.020459,0.124775,0.329914,-0.022156,-161.955789,188.571122,1489.515921,-879.110577,0
0.040625,-109.047178,-38.806922,194.030757,4.063616,2.156034,4.442146,-5.827539,-1.791303,-4.589834,5.380742,0.088314,0.351410,-0.022156,-101.059512,188.495635,1488.552894,-877.608477,0
0.041667,-49.779070,-104.531998,194.516824,4.041097,-0.302513,6.094273,-4.884204,0.668994,-6.119891,4.299315,0.081021,0.337286,-0.018440,-46.456637,188.721790,1488.695528,-876.558520,0
0.042708,-0.341896,-163.738594,149.081723,3.140353,-2.687671,6.410550,-2.765567,3.044070,-6.455004,2.265927,0.062790,0.364088,-0.018440,1.999192,188.721820,1488.730603,-875.475931,0
0.043750,51.615160,-202.532362,84.082431,1.980645,-4.650839,5.802966,-0.217790,5.074556,-5.709818,-0.327213,0.015390,0.321646,-0.018440,54.012652,188.570991,1489.575661,-874.994603,0
0.044792,124.522279,-173.804068,32.024670,0.956049,-5.766358,4.279847,2.256531,6.130557,-4.175352,-2.855620,-0.042949,0.320336,-0.007290,127.957328,188.571060,1489.273319,-874.411265,0
0.045833,184.716981,-124.639455,-18.939441,-0.023510,-6.026891,2.319766,4.185728,6.319526,-2.191130,-4.626266,-0.072118,0.327847,-0.025873,180.117146,188.721837,1489.474037,-873.034700,0
0.046875,191.621235,-62.238217,-80.171715,-1.284552,-5.157226,-0.376905,5.755376,5.485841,0.542688,-6.236983,-0.075764,0.331360,-0.011006,187.468832,188.721905,1488.700243,-872.400927,0
0.047917,169.010085,-10.959503,-152.656437,-2.635668,-3.876580,-2.615808,6.451279,4.203818,2.712105,-6.739619,-0.134103,0.343831,-0.025873,162.869393,188.571027,1489.098171,-871.626074,0
0.048958,109.888875,38.569205,-194.142244,-3.446337,-1.568481,-4.480173,5.863627,1.899143,4.630187,-6.160827,-0.057533,0.333634,-0.029590,102.322123,188.646482,1489.244815,-871.246446,0
0.050000,51.423062,104.458711,-194.190851,-3.468856,0.857040,-6.132300,4.858434,-0.550039,6.138196,-5.033705,-0.079410,0.340249,-0.011006,47.978190,188.721866,1489.369787,-870.860834,0
0.051042,1.556491,164.264303,-148.877267,-2.579371,3.223850,-6.423607,2.813254,-2.936231,6.535040,-3.007934,-0.039302,0.335426,-0.003573,-0.882939,188.797253,1490.497454,-871.106332,0
0.052083,-51.598358,201.954040,-84.740744,-1.397145,5.297102,-5.853477,0.207484,-4.911138,5.794264,-0.338636,0.029975,0.326744,-0.044457,-53.605673,188.570966,1491.333358,-870.915516,0
0.053125,-125.398170,173.589841,-32.281977,-0.395067,6.416292,-4.263773,-2.320962,-6.100528,4.171611,2.140269,0.066437,0.320336,-0.007290,-128.079491,188.646482,1491.807851,-871.435226,0
0.054167,-184.451580,125.106439,19.180353,0.607011,6.687833,-2.332824,-4.261758,-6.263560,2.187388,3.960417,0.033621,0.327778,0.000144,-179.383676,188.721853,1492.215897,-871.718555,0
0.055208,-191.751331,62.669966,80.886542,1.845534,5.781473,0.409624,-5.873933,-5.440991,-0.559658,5.613020,0.161237,0.329845,0.015011,-187.298278,188.797251,1493.713223,-872.368599,0
0.056250,-169.140181,10.897961,152.751528,3.264206,4.478810,2.669335,-6.554371,-4.107095,-2.768759,6.081385,0.153945,0.344451,0.003860,-162.113406,188.571284,1494.775777,-873.995240,0
0.057292,-109.623474,-38.525041,194.638340,4.108653,2.126678,4.504569,-5.897130,-1.772777,-4.664794,5.468322,0.110191,0.351617,-0.033307,-101.003220,188.797403,1496.084351,-875.541946,0
0.058333,-51.044661,-104.614213,194.285942,4.007319,-0.328200,6.135889,-4.880338,0.698636,-6.141937,4.310738,0.099252,0.341282,-0.025873,-46.557962,188.721864,1496.168861,-876.443386,0
0.059375,-1.110291,-164.795645,148.777931,3.174131,-2.698679,6.468811,-2.811961,3.066302,-6.485869,2.304006,0.055498,0.335012,-0.033307,1.965417,188.797275,1497.081771,-876.797066,0
0.060417,51.603860,-202.238737,84.410526,1.924349,-4.698542,5.819612,-0.167530,5.052325,-5.683362,-0.365291,-0.013779,0.323506,-0.022156,53.945102,188.571046,1496.327917,-876.986506,0
0.061458,125.290674,-173.757088,31.915305,0.967308,-5.806723,4.288170,2.291326,6.204663,-4.184171,-2.897506,-0.046595,0.319165,-0.022156,128.283819,188.797179,1497.220870,-877.861257,0
0.062500,184.389283,-124.451535,-19.255385,-0.034769,-6.089272,2.298959,4.228256,6.363989,-2.151445,-4.710039,-0.090349,0.326193,-0.040740,179.644296,188.721811,1497.457166,-879.105476,0
0.063542,191.937633,-61.486536,-80.341838,-1.250774,-5.131540,-0.372743,5.809502,5.537715,0.547097,-6.282678,-0.104934,0.317305,-0.040740,187.840357,188.797237,1498.496733,-879.309851,0
0.064583,168.704987,-10.219567,-152.437707,-2.669446,-3.843555,-2.649100,6.493806,4.211229,2.765017,-6.751042,-0.112226,0.345692,-0.007290,162.238926,188.570931,1498.604968,-879.582519,0
0.065625,108.917082,38.827595,-194.761979,-3.536412,-1.605176,-4.488496,5.832698,1.880616,4.705146,-6.206521,-0.112226,0.358920,-0.011006,100.847282,188.797436,1499.434861,-880.295060,0
0.066667,50.247869,104.599652,-194.215154,-3.513893,0.904743,-6.157269,4.885497,-0.531512,6.177880,-5.033705,-0.064826,0.333634,-0.018440,46.604674,188.797142,1499.909453,-879.957718,0
0.067708,0.629897,164.522693,-148.318290,-2.601890,3.260545,-6.444414,2.797789,-2.921409,6.512994,-3.042204,-0.050241,0.337424,-0.007290,-1.625989,188.797224,1500.204913,-878.942959,0
0.068750,-51.564458,202.259410,-83.489121,-1.352108,5.333797,-5.849316,0.161091,-4.896317,5.767808,-0.372907,0.033621,0.327020,0.022444,-53.628190,188.646505,1500.158563,-878.007232,0
0.069792,-125.047872,173.578096,-31.103265,-0.361289,6.419961,-4.267935,-2.351892,-6.107939,4.211295,2.117422,0.033621,0.317098,-0.048173,-127.989424,188.797315,1500.734716,-877.265787,0
0.070833,-184.711478,124.002408,19.508448,0.618270,6.676824,-2.291208,-4.281089,-6.274676,2.235891,3.956609,0.095606,0.325504,-0.029590,-179.563809,188.797293,1501.305124,-876.407939,0
0.071875,-191.728732,61.225329,80.752873,1.845534,5.763125,0.422109,-5.843004,-5.459517,-0.497926,5.552095,0.102898,0.331154,0.000144,-187.287020,188.797369,1501.422754,-874.634748,0
0.072917,-168.654284,10.205005,153.055320,3.264206,4.475140,2.673496,-6.546639,-4.114505,-2.711437,6.050922,0.113837,0.319510,0.000144,-161.933273,188.721886,1501.376627,-873.359971,0
0.073958,-108.843779,-38.853902,194.650492,4.108653,2.189059,4.454631,-5.897130,-1.776482,-4.647156,5.494977,0.121129,0.322679,-0.029590,-101.217128,188.797286,1501.654206,-872.823772,0
0.075000,-50.502265,-105.037034,194.249487,4.052357,-0.317191,6.181665,-4.899669,0.646762,-6.141937,4.352625,0.132068,0.329087,-0.014723,-47.199687,188.797271,1502.508527,-871.910462,0
0.076042,-0.805193,-164.725175,148.668566,3.162872,-2.676662,6.464649,-2.811961,3.051481,-6.512326,2.277351,0.091960,0.321232,-0.003573,1.560117,188.797240,1502.524768,-871.890844,0
0.077083,51.762059,-202.215247,84.604953,1.935608,-4.735236,5.819612,-0.206191,5.100493,-5.723046,-0.350060,-0.021072,0.327571,0.011294,54.260335,188.797231,1503.329660,-872.308303,0
0.078125,125.595771,-173.533932,32.352765,0.956049,-5.799384,4.288170,2.283594,6.223189,-4.192990,-2.859428,-0.028364,0.323024,-0.033307,128.869252,188.797235,1503.659624,-872.054967,0
0.079167,184.852580,-124.909591,-19.048806,-0.068547,-6.092941,2.328089,4.197327,6.397336,-2.191130,-4.649113,-0.072118,0.328949,-0.018440,180.094629,188.797273,1504.408395,-871.462415,0
0.080208,191.915033,-62.754997,-80.852209,-1.284552,-5.212268,-0.372743,5.848163,5.585883,0.525051,-6.278870,-0.101287,0.333565,0.011294,187.750290,188.797291,1505.188465,-871.614317,0
0.081250,169.168284,-11.170913,-152.887319,-2.669446,-3.883919,-2.669907,6.489940,4.218640,2.778246,-6.781505,-0.123164,0.342453,-0.040740,162.542901,188.797369,1505.672737,-872.411450,0
0.082292,109.662877,38.710145,-195.017164,-3.525153,-1.619854,-4.492657,5.867493,1.884322,4.700737,-6.233176,-0.108580,0.349688,-0.018440,101.320132,188.797264,1506.131071,-872.753034,0
0.083333,51.524761,104.928512,-193.862755,-3.468856,0.890065,-6.144784,4.897096,-0.575976,6.173471,-5.071784,-0.101287,0.345416,-0.011006,47.437790,188.797387,1506.320550,-873.473318,0
0.084375,1.635591,165.427059,-148.002346,-2.613149,3.256875,-6.498514,2.743663,-2.991810,6.565906,-3.007934,-0.024718,0.335839,-0.033307,-1.130622,188.872693,1506.663014,-875.005737,0
0.085417,-51.620957,201.883570,-84.121008,-1.408404,5.363153,-5.878446,0.114697,-4.992654,5.767808,-0.292942,0.004452,0.324126,-0.011006,-53.605673,188.797423,1506.466694,-876.929035,0
0.086458,-126.223064,173.413666,-31.637938,-0.350030,6.456656,-4.301227,-2.375088,-6.174634,4.206886,2.220233,0.048206,0.317994,-0.040740,-128.946382,188.791511,1507.044071,-878.631944,0
0.087500,-184.440280,124.530934,19.496296,0.640789,6.735536,-2.295370,-4.312018,-6.322844,2.138885,4.032766,0.095606,0.326537,-0.040740,-179.349901,188.797043,1506.846175,-880.595507,0
0.088542,-191.977330,61.624660,81.311850,1.856793,5.770464,0.447078,-5.982184,-5.518801,-0.590523,5.704409,0.143006,0.331843,-0.025873,-187.602253,188.796802,1508.284577,-883.097036,0
0.089583,-168.948082,10.169770,152.800135,3.207909,4.471471,2.681819,-6.612363,-4.084863,-2.781987,6.092808,0.132068,0.342729,-0.007290,-161.629298,188.796881,1508.296090,-884.375369,0
0.090625,-108.323983,-38.865647,195.780597,4.041097,2.123008,4.562831,-5.947389,-1.765366,-4.757391,5.544479,0.117483,0.348103,-0.011006,-99.776063,188.796689,1509.523510,-885.724978,0
0.091667,-50.276266,-104.966563,193.982150,4.018579,-0.350216,6.256573,-4.880338,0.694931,-6.186031,4.348817,0.106545,0.346174,-0.007290,-46.096371,188.796738,1509.513972,-886.457651,0
0.092708,-0.895593,-165.993636,147.903011,3.151613,-2.695010,6.572849,-2.804228,3.125586,-6.635788,2.326853,0.051852,0.338871,-0.007290,1.987934,188.872218,1511.623963,-887.386463,0
0.093750,51.829859,-202.015582,83.644971,1.935608,-4.775601,5.869551,-0.152066,5.126430,-5.767140,-0.369099,0.015390,0.327295,-0.033307,53.978877,188.796894,1512.056214,-887.428408,0
0.094792,126.036469,-173.663127,31.368479,0.911012,-5.876442,4.279847,2.360917,6.308410,-4.188581,-2.882275,-0.032010,0.317718,0.015011,129.207002,188.797066,1513.004753,-887.985880,0
0.095833,184.276284,-123.793815,-19.461963,-0.068547,-6.129636,2.353059,4.278515,6.419568,-2.147036,-4.725270,-0.039302,0.324539,-0.003573,179.588005,188.796920,1512.764041,-888.689600,0
0.096875,192.152332,-60.911031,-80.803602,-1.307070,-5.201259,-0.389389,5.875226,5.622936,0.573554,-6.366450,-0.101287,0.332049,-0.037023,188.166848,188.872178,1513.601492,-889.318659,0
0.097917,168.569388,-9.714532,-152.510617,-2.669446,-3.854563,-2.665746,6.497672,4.200113,2.787064,-6.831007,-0.119518,0.305867,-0.025873,161.968727,188.796784,1513.826501,-889.110154,0
0.098958,107.922688,38.992025,-195.709810,-3.547671,-1.594168,-4.559242,5.906155,1.876911,4.771287,-6.240791,-0.119518,0.325917,-0.018440,100.430724,188.796811,1514.254180,-889.295179,0
0.100000,50.112270,104.952002,-193.741239,-3.423819,0.926760,-6.169754,4.870033,-0.575976,6.235202,-5.010858,-0.104934,0.314962,-0.018440,47.178849,188.796782,1514.056251,-889.337546,0
0.101042,0.867196,165.661959,-147.577038,-2.568112,3.308248,-6.548453,2.790057,-2.962167,6.557087,-3.030781,-0.053887,0.323781,-0.025873,-1.153139,188.947591,1514.354060,-888.392551,0
0.102083,-51.745257,201.895315,-83.586335,-1.352108,5.359483,-5.857639,0.126296,-4.985243,5.789855,-0.327213,0.019036,0.326744,-0.037023,-53.819581,188.796811,1514.830713,-887.763280,0
0.103125,-125.985766,173.448901,-31.589332,-0.372548,6.408953,-4.288742,-2.355758,-6.178339,4.264208,2.155500,0.048206,0.320474,-0.037023,-129.081482,188.796921,1515.550114,-886.880149,0
0.104167,-184.621079,124.108113,19.338324,0.652048,6.695171,-2.287047,-4.327482,-6.326550,2.143294,3.998495,0.128422,0.329914,-0.022156,-179.563809,188.796811,1515.528252,-886.366966,0
0.105208,-191.943430,61.847815,81.384760,1.834274,5.759456,0.430432,-5.947389,-5.518801,-0.555248,5.685369,0.117483,0.330947,0.015011,-187.647286,188.947636,1515.593762,-885.901510,0
0.106250,-168.767283,10.768766,153.468477,3.241687,4.508166,2.673496,-6.589166,-4.092274,-2.751121,6.130887,0.150299,0.343625,0.003860,-161.843206,188.872169,1516.169035,-885.928283,0
0.107292,-108.888979,-38.759942,195.610474,4.041097,2.174381,4.512892,-5.955121,-1.787598,-4.695660,5.491169,0.124775,0.348310,-0.040740,-100.834345,188.796753,1515.491353,-885.183725,0
0.108333,-51.315859,-105.424619,193.860633,4.029838,-0.302513,6.185827,-4.911267,0.643057,-6.168394,4.348817,0.084667,0.342384,-0.007290,-47.436111,188.796813,1515.668986,-884.810246,0
0.109375,-1.268490,-165.864441,148.024528,3.140353,-2.695010,6.518749,-2.835157,3.062596,-6.556420,2.281159,0.033621,0.334116,-0.029590,1.582634,188.872189,1514.309130,-884.163155,0
0.110417,52.055857,-201.839407,84.361920,1.946867,-4.738906,5.902843,-0.186861,5.085672,-5.780368,-0.372907,-0.028364,0.325504,-0.033307,54.350402,188.872096,1514.254684,-883.988287,0
