1-Time,2-VGERA,3-VGERB,4-VGERC,5-VN,6-IGERAN,7-IGERBN,8-IGERCN,9-IGERAT,10-IGERBT,11-IGERCT,12-IN,13-IFD,14-IFAULT,15-VFAULT,16-Speed (rad/s),17-Active Power,18-Reactive Power,19-FAULT 
0.000000,145.867008,68.719074,-171.511743,-0.397092,-4.905469,2.292348,2.841634,5.024880,-2.357309,-2.605798,-0.091910,0.519486,-0.043161,31.953088,188.495761,1027.562379,995.643322,0
0.001042,65.335255,125.136896,-189.349811,-0.770322,-4.596595,0.105658,4.502094,4.620547,-0.179225,-4.253081,-0.037115,0.554370,-0.061832,31.251868,188.420256,1028.376102,995.493219,0
0.002083,-8.867384,164.134054,-167.190720,-0.351852,-3.616718,-1.493681,4.908813,3.650149,1.411321,-4.715601,-0.029809,0.564234,-0.028224,23.504518,188.495651,1028.606535,994.946006,0
0.003125,-78.850612,184.985694,-116.864962,0.666048,-1.621462,-3.505753,4.744633,1.771841,3.408947,-4.580403,-0.007891,0.560053,-0.031958,11.097448,188.269445,1029.668713,994.717646,0
0.004167,-131.547869,186.725344,-35.110227,2.215518,0.231783,-4.545522,3.878955,-0.128522,4.529464,-3.794119,-0.040768,0.562470,-0.043161,-0.563162,188.495617,1030.231289,993.268030,0
0.005208,-174.297753,154.590140,39.541288,3.595338,2.095680,-5.061438,2.494617,-1.948018,5.062444,-2.470600,-0.069992,0.557244,-0.039427,-9.215311,188.420207,1031.731255,991.674504,0
0.006250,-176.214636,96.420587,110.068750,4.963848,3.750109,-4.648705,0.479677,-3.716054,4.747692,-0.520900,-0.135746,0.551234,-0.050629,-13.490491,188.495674,1032.495164,990.027453,0
0.007292,-177.314858,8.374959,153.635985,5.800788,4.854246,-3.771648,-1.356157,-4.763643,3.853797,1.282928,-0.157664,0.572857,-0.061832,-23.771281,188.344858,1033.744588,989.575153,0
0.008333,-146.225065,-68.012597,171.904925,6.128778,4.978505,-2.136592,-2.990497,-5.039324,2.292627,2.844823,-0.168623,0.565279,-0.054364,-27.899431,188.495711,1034.689133,988.994837,0
0.009375,-66.237751,-124.273367,190.001516,6.513318,4.687383,0.105658,-4.628568,-4.638667,0.093560,4.410276,-0.238030,0.563450,-0.058098,-26.904151,188.420323,1035.971887,988.449617,0
0.010417,8.055627,-164.200755,166.796023,6.083538,3.668453,1.697060,-5.016631,-3.697675,-1.513774,4.865680,-0.245336,0.572138,-0.013287,-17.709121,188.495586,1036.847625,987.160853,0
0.011458,78.764775,-185.330256,116.494887,5.144808,1.662546,3.649603,-4.863645,-1.756879,-3.452646,4.684230,-0.248989,0.561686,-0.061832,-6.885451,188.344934,1037.999960,985.551941,0
0.012500,131.303238,-186.393376,34.186174,3.550098,-0.130345,4.685404,-3.949459,0.143484,-4.610933,3.905062,-0.197847,0.555611,-0.073035,6.064498,188.495636,1038.154974,983.642241,0
0.013542,173.690162,-154.548113,-40.231440,2.158968,-1.980040,5.189414,-2.609897,1.937250,-5.114536,2.642026,-0.179582,0.554892,-0.058098,13.438618,188.420301,1039.274801,981.801249,0
0.014583,175.482277,-96.233589,-109.872538,0.824388,-3.677073,4.788587,-0.568838,3.694258,-4.787194,0.695884,-0.154011,0.551822,-0.020755,18.799558,188.495740,1039.645637,980.618001,0
0.015625,177.092912,-9.202757,-153.735228,0.021378,-4.802511,3.907561,1.293116,4.767577,-3.926872,-1.107945,-0.095563,0.547380,-0.061832,29.442268,188.344997,1041.398783,980.673562,0
0.016667,146.150571,67.486822,-171.610228,-0.340542,-4.937422,2.228850,2.901336,4.973419,-2.336325,-2.691186,-0.062686,0.562797,-0.065566,33.265048,188.495740,1042.328372,979.456930,0
0.017708,66.390107,124.399961,-189.879167,-0.679842,-4.514939,0.054066,4.524482,4.594817,-0.141455,-4.260197,-0.062686,0.564887,-0.039427,31.444138,188.420283,1043.053155,978.557028,0
0.018750,-8.946781,164.109892,-166.846023,-0.250062,-3.563464,-1.573053,4.890156,3.664852,1.512042,-4.726275,-0.018850,0.554304,-0.028224,24.725998,188.495761,1044.113704,978.236966,0
0.019792,-79.576532,185.529335,-115.867803,0.666048,-1.593060,-3.509722,4.789409,1.694650,3.438324,-4.555498,-0.037115,0.561359,-0.031958,10.305748,188.344932,1044.393467,977.548104,0
0.020833,-131.502499,186.797830,-33.792993,2.249448,0.221133,-4.565365,3.897612,-0.168955,4.605005,-3.787003,-0.040768,0.554762,-0.084238,-0.201242,188.495754,1045.285731,977.644726,0
0.021875,-174.104931,154.674706,39.602841,3.629268,2.102780,-5.089218,2.490885,-1.973748,5.091821,-2.463484,-0.088257,0.560967,-0.035692,-8.073001,188.420316,1045.845633,977.639239,0
0.022917,-176.180608,97.447464,109.810228,4.963848,3.821115,-4.720140,0.461020,-3.745460,4.760282,-0.542247,-0.110175,0.554958,-0.069301,-13.965511,188.495732,1046.436370,977.799170,0
0.023958,-177.541708,10.114609,153.943750,5.846028,4.893299,-3.771648,-1.378545,-4.789373,3.845403,1.300718,-0.110175,0.559988,-0.031958,-23.839141,188.345004,1047.386662,977.444794,0
0.025000,-146.542655,-67.505199,171.831061,6.162708,5.003357,-2.100875,-3.009154,-4.991539,2.280037,2.841265,-0.212459,0.560902,-0.020755,-27.944671,188.495678,1047.156772,976.741011,0
0.026042,-65.273639,-124.273367,190.247728,6.502008,4.627028,0.149312,-4.609911,-4.631316,0.072576,4.428065,-0.256295,0.585726,-0.061832,-27.130351,188.420273,1047.279938,976.666776,0
0.027083,9.961167,-163.971218,166.882197,6.106158,3.654252,1.673249,-5.016631,-3.657242,-1.551544,4.858564,-0.256295,0.560445,-0.035692,-18.749641,188.495613,1047.203743,976.306691,0
0.028125,79.547408,-185.294014,115.977841,5.088258,1.673196,3.677383,-4.848719,-1.756879,-3.490416,4.709135,-0.234377,0.559073,-0.065566,-7.722391,188.344816,1047.576765,976.773094,0
0.029167,131.223840,-186.417538,34.838636,3.561408,-0.109043,4.713184,-4.005430,0.132457,-4.627720,3.986892,-0.219765,0.558550,-0.024490,5.532928,188.495718,1048.044488,977.736325,0
0.030208,174.279972,-154.620598,-38.963447,2.147658,-2.008442,5.221163,-2.594972,1.904168,-5.139716,2.656257,-0.208806,0.563646,-0.035692,12.624298,188.495734,1048.180219,978.083701,0
0.031250,175.720469,-96.934282,-109.638637,0.824388,-3.698375,4.808430,-0.568838,3.738367,-4.824964,0.699442,-0.143052,0.560053,-0.069301,17.996548,188.495765,1049.163028,978.438989,0
0.032292,177.104255,-8.562469,-153.587500,-0.046482,-4.784760,3.871844,1.334161,4.804335,-3.826151,-1.164870,-0.110175,0.548882,-0.031958,29.114278,188.344811,1049.851397,977.108558,0
0.033333,145.560761,68.803640,-171.622538,-0.351852,-4.926771,2.209007,2.875217,5.035907,-2.302752,-2.726765,-0.106522,0.522883,-0.046895,31.998328,188.495718,1050.532056,977.547143,0
0.034375,64.348457,124.520770,-190.470076,-0.747702,-4.561092,0.010412,4.546870,4.635250,-0.074308,-4.310007,-0.048074,0.537058,-0.043161,31.410208,188.420321,1051.370838,977.867986,0
0.035417,-9.321084,164.363591,-166.722917,-0.295302,-3.542162,-1.588927,4.905082,3.591337,1.545616,-4.783200,-0.015197,0.552867,-0.039427,23.346178,188.495691,1052.220404,977.342802,0
0.036458,-78.998064,185.650144,-116.421781,0.666048,-1.564657,-3.585125,4.722245,1.683623,3.492881,-4.559056,-0.007891,0.562209,-0.043161,10.871248,188.344825,1053.207830,977.017379,0
0.037500,-131.797404,186.435403,-34.765530,2.192898,0.299239,-4.585208,3.852836,-0.220415,4.634381,-3.765656,-0.040768,0.560967,-0.020755,-0.461372,188.495531,1054.061040,976.320766,0
0.038542,-174.354466,155.097538,40.132197,3.629268,2.170235,-5.089218,2.408795,-2.025209,5.104411,-2.388769,-0.069992,0.558028,-0.028224,-9.034351,188.420329,1054.985538,975.539410,0
0.039583,-176.067183,95.961513,110.117993,4.963848,3.842416,-4.632831,0.393856,-3.807948,4.680545,-0.446185,-0.128440,0.551103,-0.020755,-13.558351,188.495683,1055.410520,973.962603,0
0.040625,-177.779901,7.915884,153.623675,5.778168,4.903950,-3.712120,-1.490486,-4.796724,3.774059,1.378990,-0.175929,0.531310,-0.069301,-24.020101,188.420390,1055.708695,973.013441,0
0.041667,-145.589885,-68.242135,171.954167,6.185328,5.031760,-2.029440,-3.053930,-5.028297,2.225480,2.930211,-0.212459,0.553716,-0.039427,-27.910741,188.495607,1056.863681,972.725030,0
0.042708,-65.205584,-123.802212,190.863258,6.558558,4.669631,0.196935,-4.669613,-4.627640,-0.002964,4.492106,-0.248989,0.565018,-0.069301,-26.881531,188.420260,1058.336627,972.078720,0
0.043750,8.180395,-164.333645,166.451326,6.094848,3.583246,1.788338,-5.031556,-3.653566,-1.639674,4.897701,-0.212459,0.569656,-0.043161,-17.720431,188.495709,1059.972965,971.480337,0
0.044792,78.515240,-185.861816,116.457955,5.099568,1.644794,3.693258,-4.803943,-1.694391,-3.507203,4.716251,-0.219765,0.561751,-0.065566,-6.783661,188.420274,1060.894806,970.647753,0
0.045833,131.325923,-186.151758,34.087689,3.595338,-0.215552,4.721121,-3.927071,0.231702,-4.636113,3.905062,-0.183235,0.555937,-0.073035,5.872228,188.495758,1061.364961,969.049389,0
0.046875,173.792244,-154.825974,-40.785417,2.170278,-2.061696,5.237037,-2.550195,2.032819,-5.156503,2.556638,-0.179582,0.559138,-0.028224,13.382068,188.420251,1062.863140,967.797943,0
0.047917,175.527647,-95.581220,-110.081819,0.847008,-3.758729,4.780650,-0.561375,3.738367,-4.791391,0.617611,-0.143052,0.538692,-0.035692,18.833488,188.495680,1062.739438,966.859475,0
0.048958,177.433187,-8.562469,-153.685985,0.043998,-4.830913,3.911530,1.334161,4.774929,-3.855528,-1.186217,-0.121134,0.558289,-0.024490,29.725018,188.420159,1062.767076,966.997908,0
0.050000,145.844323,67.776764,-171.794887,-0.385782,-4.948072,2.189165,2.949844,5.013853,-2.298555,-2.730323,-0.117481,0.559988,-0.050629,33.242428,188.495669,1062.904898,966.496188,0
0.051042,65.743585,124.134181,-190.543940,-0.736392,-4.585944,-0.037211,4.539408,4.580114,-0.044931,-4.310007,-0.037115,0.566977,-0.035692,31.579858,188.420325,1063.323141,965.327379,0
0.052083,-8.787986,164.327348,-166.513637,-0.340542,-3.545713,-1.604802,4.931201,3.602365,1.583386,-4.747622,-0.029809,0.568349,-0.043161,24.703378,188.495667,1063.419588,964.874483,0
0.053125,-79.372367,186.000490,-115.732387,0.666048,-1.497202,-3.569251,4.740902,1.668920,3.501274,-4.566172,-0.015197,0.556721,-0.043161,10.136098,188.495707,1063.468351,965.026685,0
0.054167,-131.457129,186.689102,-33.472917,2.249448,0.263736,-4.601082,3.841641,-0.224091,4.609201,-3.751425,-0.037115,0.558616,-0.061832,-0.156002,188.495626,1062.933620,964.905500,0
0.055208,-174.127616,154.928405,40.181440,3.640578,2.148934,-5.109061,2.475960,-2.039912,5.125394,-2.413674,-0.066339,0.559008,-0.065566,-7.971211,188.420229,1063.141663,965.241520,0
0.056250,-176.089868,96.988390,109.847159,4.952538,3.838866,-4.668548,0.419975,-3.782217,4.772872,-0.495995,-0.110175,0.556003,-0.031958,-13.976821,188.495689,1063.351421,966.536100,0
0.057292,-177.847956,9.933395,153.882197,5.778168,4.914600,-3.739900,-1.449441,-4.840833,3.841206,1.332738,-0.168623,0.557897,-0.050629,-23.963551,188.420301,1063.960186,967.506720,0
0.058333,-146.304462,-67.468957,171.904925,6.117468,5.035310,-2.033409,-3.061393,-5.083433,2.250660,2.869728,-0.197847,0.563058,-0.061832,-27.910741,188.495712,1063.939699,968.164671,0
0.059375,-64.785911,-124.116316,190.924811,6.558558,4.669631,0.177093,-4.647225,-4.594558,-0.028144,4.467201,-0.230724,0.547315,-0.046895,-27.175591,188.420361,1063.589655,967.682416,0
0.060417,10.040565,-164.164512,166.796023,6.117468,3.590347,1.752620,-5.050213,-3.635187,-1.597707,4.894143,-0.219765,0.581545,-0.061832,-18.681781,188.495712,1062.788896,968.072863,0
0.061458,79.468010,-185.861816,116.076326,5.133498,1.673196,3.701195,-4.900958,-1.712770,-3.511399,4.716251,-0.205153,0.557897,-0.035692,-7.631911,188.495694,1062.536047,968.581461,0
0.062500,131.325923,-186.477942,34.518561,3.584028,-0.187149,4.709215,-4.016624,0.147160,-4.678080,3.954871,-0.212459,0.561294,-0.020755,5.442448,188.495788,1062.627906,969.972210,0
0.063542,174.427424,-154.789731,-39.295833,2.170278,-2.068797,5.241006,-2.580046,2.003413,-5.164896,2.652699,-0.186888,0.563515,-0.009553,12.567748,188.495736,1062.474315,971.081002,0
0.064583,175.901949,-96.837634,-109.749432,0.835698,-3.744528,4.796524,-0.542718,3.760422,-4.799784,0.638958,-0.132093,0.556721,-0.031958,18.098338,188.495691,1063.121931,971.231712,0
0.065625,177.444530,-8.393336,-153.575190,0.010068,-4.838014,3.867876,1.367743,4.793308,-3.872315,-1.196891,-0.132093,0.550385,-0.065566,29.238688,188.495772,1063.397154,971.452614,0
0.066667,145.458678,68.791560,-171.647160,-0.374472,-4.955173,2.193133,2.979695,5.006501,-2.260785,-2.751670,-0.062686,0.556199,-0.061832,31.987018,188.495698,1063.434826,971.166253,0
0.067708,63.758647,124.448284,-190.753220,-0.725082,-4.596595,-0.001494,4.602841,4.576438,-0.053324,-4.320680,-0.022503,0.555219,-0.054364,31.432828,188.495655,1062.953351,971.621066,0
0.068750,-9.615989,164.375672,-166.636743,-0.238752,-3.613168,-1.664330,4.972246,3.598689,1.621156,-4.765411,-0.011544,0.552606,-0.039427,23.255698,188.495604,1063.399362,971.695393,0
0.069792,-79.100147,185.867600,-116.323296,0.688668,-1.557557,-3.612905,4.778215,1.668920,3.526455,-4.612424,-0.033462,0.561163,-0.061832,10.848628,188.495810,1064.190588,971.963983,0
0.070833,-131.740691,186.544131,-34.802462,2.215518,0.285038,-4.628862,3.822985,-0.260849,4.651168,-3.762098,-0.077298,0.565410,-0.043161,-0.427442,188.495658,1065.294184,971.765225,0
0.071875,-174.422521,155.206266,40.218371,3.595338,2.184437,-5.077312,2.423721,-2.050939,5.158968,-2.399443,-0.077298,0.557244,-0.002084,-9.011731,188.420323,1065.878287,971.911370,0
0.072917,-176.191951,96.058160,110.105682,4.941228,3.870819,-4.624894,0.378930,-3.763839,4.760282,-0.435512,-0.117481,0.531767,-0.031958,-13.558351,188.495734,1065.715684,971.370843,0
0.073958,-177.870641,7.758833,153.635985,5.812098,4.928802,-3.700214,-1.453173,-4.800400,3.803436,1.382548,-0.172276,0.523993,-0.069301,-24.087961,188.495738,1065.201134,970.793290,0
0.075000,-145.476460,-68.411267,171.941857,6.140088,5.038860,-2.017534,-3.068856,-5.031972,2.208693,2.926654,-0.194194,0.554958,-0.039427,-27.955981,188.495702,1065.213867,970.026354,0
0.076042,-64.819939,-123.886778,190.961743,6.547248,4.680282,0.173124,-4.677076,-4.657046,-0.032341,4.495664,-0.256295,0.559922,-0.035692,-26.926771,188.420390,1065.872428,970.659459,0
0.077083,8.475300,-164.369888,166.328220,6.060918,3.604548,1.748652,-5.080064,-3.649890,-1.614494,4.922606,-0.238030,0.573314,-0.058098,-17.743051,188.495589,1066.555551,970.603373,0
0.078125,78.605980,-185.849735,116.408712,5.133498,1.630593,3.705164,-4.886033,-1.672337,-3.490416,4.734040,-0.230724,0.564626,-0.031958,-6.738421,188.495745,1066.803644,970.076249,0
0.079167,131.416663,-186.055110,34.026136,3.595338,-0.169398,4.729058,-3.971847,0.194944,-4.669687,3.901504,-0.208806,0.554566,-0.073035,5.883538,188.495680,1066.735566,969.096680,0
0.080208,173.656134,-154.741407,-40.859280,2.136348,-2.082998,5.217194,-2.550195,1.992386,-5.122929,2.585100,-0.201500,0.553324,-0.028224,13.336828,188.495671,1066.019815,968.216187,0
0.081250,175.448249,-95.279198,-110.180303,0.869628,-3.709025,4.784618,-0.542718,3.738367,-4.787194,0.663863,-0.143052,0.541631,-0.020755,18.810868,188.495711,1064.937813,968.530091,0
0.082292,177.285735,-8.272527,-153.698296,-0.023862,-4.788310,3.899624,1.311773,4.804335,-3.838741,-1.147081,-0.106522,0.559334,-0.020755,29.679778,188.495763,1064.468570,968.558416,0
0.083333,145.708213,67.873411,-171.671781,-0.397092,-4.944522,2.185196,2.938650,4.973419,-2.294358,-2.758785,-0.048074,0.562143,-0.028224,33.242428,188.495665,1064.364973,968.383854,0
0.084375,65.800297,124.110019,-190.383902,-0.759012,-4.553992,0.018349,4.528213,4.613196,-0.086898,-4.317122,-0.029809,0.567173,-0.050629,31.534618,188.495725,1064.718401,968.652755,0
0.085417,-8.765301,164.206539,-166.316667,-0.340542,-3.531511,-1.580990,4.912545,3.635446,1.558206,-4.754738,-0.040768,0.569068,-0.017021,24.669448,188.495716,1063.999744,969.101680,0
0.086458,-79.429079,185.891762,-115.596970,0.699978,-1.554006,-3.545439,4.740902,1.702002,3.492881,-4.583961,-0.033462,0.556917,-0.024490,10.147408,188.495716,1063.005097,969.374776,0
0.087500,-131.423101,186.616616,-33.399053,2.260758,0.267286,-4.573302,3.890149,-0.172631,4.571431,-3.762098,-0.051727,0.553520,-0.043161,-0.156002,188.495854,1061.025120,969.974961,0
0.088542,-174.048218,154.747192,40.366099,3.651888,2.134733,-5.105093,2.524468,-2.003154,5.087624,-2.484831,-0.059033,0.558354,-0.058098,-7.971211,188.495644,1059.442169,970.549277,0
0.089583,-175.863018,96.879661,109.945644,4.975158,3.785612,-4.668548,0.461020,-3.730757,4.760282,-0.506668,-0.146705,0.553586,-0.028224,-13.920271,188.495707,1058.768350,971.044299,0
0.090625,-177.643791,9.824667,153.931440,5.812098,4.893299,-3.720057,-1.434516,-4.815103,3.874780,1.297160,-0.150358,0.557048,-0.039427,-23.929621,188.495794,1058.604262,972.161664,0
0.091667,-146.349832,-67.179015,171.880304,6.162708,5.003357,-2.081032,-3.016617,-5.013594,2.296824,2.869728,-0.190541,0.560118,-0.031958,-27.865501,188.495676,1057.902611,972.780669,0
0.092708,-65.205584,-124.128397,190.555493,6.513318,4.637679,0.133438,-4.621106,-4.612937,0.030609,4.442296,-0.216112,0.550973,-0.028224,-27.107731,188.495767,1056.597333,972.728309,0
0.093750,9.802372,-164.055784,166.660607,6.117468,3.611648,1.712934,-5.001705,-3.631512,-1.543150,4.890585,-0.263601,0.558746,-0.024490,-18.636541,188.495658,1055.293956,972.926058,0
0.094792,79.615463,-185.596036,115.830114,5.133498,1.641244,3.645635,-4.871107,-1.738500,-3.486219,4.677114,-0.227071,0.553194,-0.009553,-7.609291,188.495702,1054.214920,973.369816,0
0.095833,131.291895,-186.357133,34.383144,3.584028,-0.137445,4.665561,-3.945728,0.147160,-4.627720,3.926409,-0.197847,0.559596,-0.073035,5.521618,188.495582,1053.563450,973.834093,0
0.096875,174.359369,-154.536032,-39.357386,2.181588,-2.008442,5.225131,-2.613629,1.926223,-5.185880,2.634910,-0.168623,0.559008,-0.039427,12.601678,188.571062,1053.568972,974.999578,0
0.097917,175.833894,-96.970524,-109.687879,0.847008,-3.652221,4.768744,-0.542718,3.672204,-4.808177,0.685210,-0.113828,0.552018,-0.031958,18.030478,188.495736,1053.389115,975.181422,0
0.098958,177.138282,-8.695359,-153.685985,0.021378,-4.798961,3.887718,1.293116,4.749199,-3.876512,-1.143523,-0.117481,0.555545,-0.043161,29.114278,188.495736,1052.854301,975.292098,0
0.100000,145.401966,68.694912,-171.585607,-0.374472,-4.930321,2.248693,2.916262,5.002825,-2.311145,-2.733881,-0.073645,0.547249,-0.046895,31.953088,188.495674,1052.517751,976.013759,0
0.101042,64.053552,124.665741,-190.334660,-0.691152,-4.585944,-0.001494,4.528213,4.627899,-0.095291,-4.302891,-0.051727,0.546923,-0.054364,31.376278,188.420329,1051.820913,976.615766,0
0.102083,-9.797469,164.254863,-166.599811,-0.306612,-3.549263,-1.596864,4.927470,3.617068,1.549812,-4.776085,-0.044421,0.549601,-0.050629,23.278318,188.495875,1051.812073,976.848334,0
0.103125,-79.270284,185.529335,-116.175569,0.688668,-1.628562,-3.545439,4.767021,1.694650,3.446717,-4.576845,-0.037115,0.560053,-0.031958,10.871248,188.495687,1051.354000,976.568972,0
0.104167,-131.740691,186.374998,-34.851705,2.170278,0.263736,-4.561397,3.830447,-0.187334,4.579824,-3.772772,-0.051727,0.558812,-0.020755,-0.472682,188.495725,1051.886455,976.403985,0
0.105208,-174.467891,154.868001,39.787500,3.606648,2.109881,-5.057470,2.464766,-2.017857,5.129591,-2.431464,-0.110175,0.557309,-0.024490,-9.124831,188.495680,1052.731304,976.013929,0
0.106250,-176.021813,96.227293,110.031819,4.929918,3.796263,-4.628862,0.412512,-3.734433,4.726709,-0.506668,-0.102869,0.550842,-0.046895,-13.524421,188.495705,1052.423705,975.784807,0
0.107292,-177.564393,7.915884,153.599053,5.778168,4.843595,-3.747837,-1.441978,-4.745264,3.824420,1.329180,-0.175929,0.512888,-0.054364,-23.997481,188.495734,1051.428655,974.937995,0
0.108333,-145.465117,-68.580400,171.720266,6.174018,4.999807,-2.092937,-3.050199,-4.995215,2.196103,2.869728,-0.157664,0.567239,-0.031958,-27.922051,188.495712,1051.145967,973.997676,0
0.109375,-65.001419,-124.116316,190.493940,6.513318,4.669631,0.109627,-4.639762,-4.631316,0.059986,4.406718,-0.248989,0.570897,-0.028224,-26.881531,188.495761,1050.504770,974.405650,0
0.110417,8.463957,-164.140351,166.475947,6.049608,3.654252,1.708966,-5.016631,-3.679296,-1.551544,4.840775,-0.234377,0.572269,-0.046895,-17.731741,188.495687,1050.333991,974.309495,0
