1-Time,2-VGERA,3-VGERB,4-VGERC,5-VN,6-IGERAN,7-IGERBN,8-IGERCN,9-IGERAT,10-IGERBT,11-IGERCT,12-IN,13-IFD,14-IFAULT,15-VFAULT,16-Speed (rad/s),17-FAULT 
0.000000,-179.957661,115.259554,5.024836,2.961978,5.866075,0.095173,-5.899837,-5.480414,0.251515,5.794860,-0.219765,0.197564,-0.020755,8.009818,188.721969,0
0.001042,-192.865427,65.510878,70.852108,4.273938,4.414011,2.674435,-6.992941,-3.910869,-2.431683,6.891246,-0.270907,0.192338,0.012853,6.573448,188.571181,0
0.002083,-165.133013,21.314826,147.504835,5.823408,2.248342,4.236469,-6.197600,-1.892882,-4.015011,6.270722,-0.238030,0.210891,-0.046895,5.363278,188.571141,0
0.003125,-102.193478,-24.088833,196.313925,6.773448,-0.403716,5.428950,-4.755799,0.849228,-5.219630,4.694667,-0.197847,0.203770,-0.046895,3.632848,188.646424,0
0.004167,-58.547536,-96.320311,181.092107,6.445458,-2.807255,6.030904,-2.781157,3.289926,-5.981078,2.874971,-0.208806,0.188811,-0.013287,2.920318,188.721940,0
0.005208,-16.546256,-175.513290,137.884835,5.653758,-4.763458,5.425140,-0.242333,5.238073,-5.441215,0.389068,-0.150358,0.188419,-0.035692,1.133338,188.571252,0
0.006250,37.716266,-196.563539,82.138472,4.579308,-6.030907,3.832626,2.656941,6.520910,-3.853858,-2.454683,-0.084604,0.176595,-0.054364,-1.072112,188.571107,0
0.007292,123.057240,-168.658344,38.080291,3.697128,-6.669957,2.194395,4.874495,7.145788,-2.181896,-4.754048,-0.022503,0.174635,-0.013287,-3.096601,188.646437,0
0.008333,179.599605,-115.050061,-5.067891,2.803638,-5.672329,0.110412,5.853979,6.304041,-0.187627,-5.732421,-0.000585,0.197042,-0.039427,-2.960881,188.721947,0
0.009375,192.518713,-65.905188,-71.450618,1.502988,-4.255768,-2.415512,6.884397,4.760226,2.394850,-6.745055,0.010374,0.199590,-0.020755,-1.694162,188.571207,0
0.010417,164.899724,-20.631761,-147.465162,-0.001242,-2.093649,-3.992786,6.089056,2.676076,4.022495,-6.124531,0.014027,0.218272,-0.028224,-0.755432,188.495848,0
0.011458,101.687969,24.629826,-196.404253,-0.939972,0.558409,-5.272893,4.698187,0.022184,5.219056,-4.655069,-0.022503,0.200177,-0.043161,1.155958,188.646485,0
0.012500,57.440874,96.636358,-181.016980,-0.657222,3.015202,-5.863418,2.688285,-2.422190,6.000648,-2.797304,-0.055380,0.184434,-0.024490,2.072068,188.721880,0
0.013542,15.723157,175.758301,-137.502435,0.179718,4.914600,-5.269083,0.172968,-4.337256,5.432584,-0.311401,-0.124787,0.182278,-0.009553,3.655468,188.571129,0
0.014583,-37.983582,196.666479,-81.401527,1.242858,6.189150,-3.649901,-2.710635,-5.638471,3.889544,2.547578,-0.150358,0.177248,-0.054364,6.007948,188.495727,0
0.015625,-123.347241,168.784962,-37.402436,2.147658,6.856603,-1.965951,-4.983039,-6.255997,2.145062,4.858364,-0.234377,0.170193,-0.017021,7.975888,188.646464,0
0.016667,-179.708126,114.537358,5.592109,3.041148,5.791519,0.133271,-5.931180,-5.439981,0.154823,5.813895,-0.274560,0.196585,-0.028224,7.840168,188.646505,0
0.017708,-192.854084,65.226735,71.584836,4.307868,4.421112,2.663005,-6.992941,-3.863084,-2.415568,6.883632,-0.248989,0.195605,-0.035692,6.505588,188.571114,0
0.018750,-164.395750,20.190094,147.457562,5.778168,2.195087,4.259328,-6.213272,-1.845097,-4.023069,6.206005,-0.252642,0.231664,-0.024490,5.001358,188.495635,0
0.019792,-101.036543,-24.597922,196.408471,6.728208,-0.467621,5.447999,-4.716619,0.860255,-5.231717,4.721316,-0.197847,0.219122,-0.039427,3.587608,188.646540,0
0.020833,-57.163751,-96.296633,180.761198,6.456768,-2.853408,6.038524,-2.749814,3.334035,-5.948847,2.833095,-0.183235,0.188354,-0.065566,2.988178,188.646418,0
0.021875,-15.400664,-175.702719,137.364835,5.642448,-4.791860,5.432759,-0.242333,5.274831,-5.376754,0.347192,-0.117481,0.186133,0.009119,1.144648,188.571087,0
0.022917,37.807006,-196.196521,81.098472,4.522758,-6.030907,3.786908,2.676531,6.550316,-3.805512,-2.492752,-0.055380,0.168234,-0.024490,-1.004252,188.495662,0
0.023958,122.864417,-168.729380,37.016654,3.685818,-6.652206,2.163916,4.909756,7.149464,-2.169809,-4.788310,-0.033462,0.172088,-0.031958,-3.096601,188.646540,0
0.025000,179.225302,-114.221311,-5.670618,2.803638,-5.636826,0.064694,5.861815,6.307717,-0.123166,-5.743841,-0.000585,0.194429,-0.009553,-2.813851,188.646569,0
0.026042,192.609453,-64.531831,-71.580618,1.491678,-4.230916,-2.396463,6.884397,4.745523,2.414994,-6.779317,0.024986,0.195539,-0.054364,-1.388792,188.571093,0
0.027083,164.457366,-19.601743,-147.536071,0.021378,-2.015543,-4.019455,6.065548,2.661373,4.030553,-6.113110,-0.018850,0.202921,-0.028224,-0.664952,188.495727,0
0.028125,101.188899,25.032362,-196.498798,-0.962592,0.597462,-5.211935,4.608075,-0.010898,5.190854,-4.571317,-0.037115,0.195082,-0.039427,1.257748,188.571098,0
0.029167,56.919119,96.778430,-180.969707,-0.668532,3.025852,-5.806271,2.613844,-2.447920,5.928129,-2.759235,-0.033462,0.194102,-0.017021,2.151238,188.646498,0
0.030208,15.292142,175.521516,-137.242435,0.224958,4.932352,-5.234794,0.133789,-4.362986,5.380209,-0.250490,-0.117481,0.186525,-0.013287,3.598918,188.571239,0
0.031250,-38.425940,196.488890,-80.940617,1.265478,6.185600,-3.623232,-2.749814,-5.612741,3.837169,2.520930,-0.183235,0.177444,-0.035692,6.075808,188.495761,0
0.032292,-123.143076,168.548177,-36.835163,2.102418,6.799798,-1.939282,-4.990875,-6.156752,2.128947,4.797453,-0.216112,0.169475,-0.017021,7.930648,188.646473,0
0.033333,-180.048401,114.608393,5.934836,3.029838,5.759567,0.152320,-5.895919,-5.388520,0.150794,5.756791,-0.248989,0.194037,-0.035692,7.975888,188.646440,0
0.034375,-192.752002,65.096503,71.537563,4.307868,4.389159,2.628717,-6.989024,-3.852057,-2.375279,6.799881,-0.256295,0.195997,-0.061832,6.562138,188.571042,0
0.035417,-164.747368,20.344005,147.433926,5.823408,2.170235,4.198371,-6.166256,-1.812015,-4.039184,6.217426,-0.267254,0.211544,-0.043161,5.318038,188.495712,0
0.036458,-101.751120,-24.834708,196.042107,6.773448,-0.432119,5.440379,-4.685276,0.852904,-5.207544,4.668019,-0.230724,0.214222,-0.035692,3.576298,188.646552,0
0.037500,-57.628793,-96.829401,181.044835,6.490698,-2.864059,6.015665,-2.694963,3.278899,-5.952876,2.852130,-0.197847,0.201223,-0.050629,2.920318,188.571116,0
0.038542,-15.616171,-175.383058,137.459380,5.619828,-4.752807,5.436569,-0.226661,5.208667,-5.360639,0.339578,-0.091910,0.188419,-0.028224,1.155958,188.571087,0
0.039583,38.340103,-196.397789,81.512108,4.534068,-6.002505,3.794528,2.688285,6.487829,-3.821628,-2.485138,-0.055380,0.176922,-0.035692,-1.049492,188.495620,0
0.040625,123.250062,-168.468915,37.264836,3.697128,-6.627354,2.156296,4.886248,7.086976,-2.145636,-4.715979,-0.044421,0.174831,-0.046895,-3.085291,188.646533,0
0.041667,179.610947,-114.410739,-5.942436,2.792328,-5.643927,0.068504,5.853979,6.241553,-0.175541,-5.717193,-0.000585,0.193580,-0.031958,-2.960881,188.571169,0
0.042708,192.189780,-64.685741,-71.864254,1.480368,-4.223816,-2.434562,6.888315,4.727144,2.406936,-6.729827,-0.004238,0.193841,-0.017021,-1.705472,188.571062,0
0.043750,164.922409,-20.252904,-147.855162,-0.001242,-1.997791,-3.996596,6.053794,2.642994,4.022495,-6.097883,-0.011544,0.211413,-0.039427,-0.710192,188.495747,0
0.044792,101.948846,25.162594,-196.037889,-0.951282,0.611663,-5.215745,4.627665,0.000130,5.215027,-4.571317,-0.018850,0.210825,-0.058098,1.189888,188.646538,0
0.045833,57.565642,97.204644,-180.934253,-0.691152,3.015202,-5.813890,2.656941,-2.429541,5.948273,-2.766849,-0.102869,0.198610,-0.043161,2.072068,188.495658,0
0.046875,15.439595,175.604391,-137.455162,0.157098,4.921701,-5.196696,0.133789,-4.348283,5.343950,-0.284753,-0.121134,0.183977,-0.024490,3.644158,188.570973,0
0.047917,-38.652790,196.453372,-81.496072,1.242858,6.128796,-3.619422,-2.726306,-5.609065,3.780765,2.532350,-0.175929,0.175746,-0.043161,6.019258,188.495691,0
0.048958,-123.426639,168.477141,-36.575163,2.136348,6.792698,-1.916423,-4.983039,-6.175131,2.060457,4.843136,-0.205153,0.166404,-0.046895,7.941958,188.645754,0
0.050000,-179.832894,114.300572,6.206654,3.018528,5.738265,0.171369,-5.946852,-5.329708,0.114535,5.768212,-0.212459,0.189268,-0.061832,7.794928,188.495645,0
0.051042,-192.536494,65.309610,72.234836,4.330488,4.343006,2.689674,-6.934172,-3.804272,-2.423625,6.761812,-0.259948,0.193841,-0.035692,6.460348,188.571154,0
0.052083,-164.497833,20.083540,147.646653,5.812098,2.166685,4.244089,-6.103569,-1.753203,-4.031127,6.164129,-0.238030,0.207233,-0.028224,5.035288,188.495817,0
0.053125,-101.331448,-24.988618,195.888471,6.784758,-0.485373,5.428950,-4.614753,0.882310,-5.179342,4.637564,-0.219765,0.216313,-0.005818,3.587608,188.646493,0
0.054167,-56.857503,-96.663651,180.690289,6.502008,-2.903112,5.985186,-2.702799,3.337711,-5.900501,2.787412,-0.183235,0.196193,-0.043161,2.954248,188.495633,0
0.055208,-14.708771,-175.240986,137.376653,5.642448,-4.774109,5.345133,-0.132631,5.227046,-5.316322,0.293896,-0.132093,0.174309,-0.035692,1.167268,188.571180,0
0.056250,38.487556,-196.054450,80.779381,4.556688,-5.991854,3.722141,2.700039,6.517235,-3.777311,-2.530821,-0.062686,0.171630,-0.024490,-1.004252,188.495698,0
0.057292,122.648910,-168.528112,36.567563,3.685818,-6.570550,2.095339,4.882331,7.053894,-2.085204,-4.742628,-0.026156,0.170912,-0.009553,-3.085291,188.646534,0
0.058333,179.282015,-114.268668,-6.155164,2.814948,-5.555170,0.026596,5.818718,6.204796,-0.107051,-5.675317,-0.018850,0.193188,-0.035692,-2.847781,188.495694,0
0.059375,192.065013,-63.880670,-71.899708,1.502988,-4.177662,-2.445991,6.825628,4.664656,2.475426,-6.672724,0.028639,0.194494,-0.039427,-1.388792,188.571123,0
0.060417,164.343941,-18.844029,-147.666071,0.010068,-1.962288,-3.996596,5.940174,2.569479,4.022495,-5.979869,-0.018850,0.209258,-0.039427,-0.664952,188.495548,0
0.061458,101.030104,25.565130,-195.919707,-0.973902,0.643616,-5.208126,4.529716,-0.073385,5.158624,-4.453304,-0.022503,0.212393,-0.020755,1.325608,188.646600,0
0.062500,56.249912,97.098091,-180.886980,-0.668532,3.025852,-5.771982,2.551157,-2.521435,5.891870,-2.686904,-0.051727,0.208474,-0.002084,2.128618,188.495702,0
0.063542,14.350715,175.107141,-137.242435,0.168408,4.903950,-5.131929,0.075020,-4.293147,5.247258,-0.174353,-0.117481,0.169997,-0.069301,3.598918,188.571109,0
0.064583,-39.072462,196.559925,-80.550617,1.288098,6.121695,-3.550845,-2.804665,-5.583335,3.740477,2.589454,-0.143052,0.170193,-0.020755,6.053188,188.495718,0
0.065625,-122.791459,168.121962,-36.208800,2.158968,6.707491,-1.878325,-4.990875,-6.112643,2.008082,4.858364,-0.208806,0.161897,-0.024490,7.885408,188.646504,0
0.066667,-180.059744,114.442643,6.513927,3.052458,5.649508,0.190419,-5.911590,-5.292951,0.062160,5.764405,-0.227071,0.188354,-0.050629,7.975888,188.495734,0
0.067708,-192.162192,64.303271,71.939381,4.319178,4.243598,2.727773,-6.847978,-3.705027,-2.427654,6.769426,-0.227071,0.187700,-0.009553,6.573448,188.571111,0
0.068750,-164.724683,19.527094,147.658471,5.789478,2.070828,4.190751,-6.017375,-1.723797,-4.031127,6.080377,-0.241683,0.206449,-0.017021,5.340658,188.495680,0
0.069792,-101.274735,-25.308279,195.486653,6.750828,-0.517325,5.375612,-4.548148,0.922743,-5.179342,4.527164,-0.216112,0.203444,-0.039427,3.564988,188.721860,0
0.070833,-56.573941,-97.089865,181.021198,6.479388,-2.849858,5.931849,-2.632276,3.326683,-5.868271,2.741730,-0.183235,0.193057,-0.024490,2.897698,188.495611,0
0.071875,-14.515949,-174.767415,137.282108,5.608518,-4.770559,5.295605,-0.132631,5.219695,-5.263947,0.236792,-0.106522,0.188484,-0.039427,1.122028,188.495674,0
0.072917,38.929913,-196.445146,80.803017,4.545378,-5.931500,3.657374,2.696121,6.535613,-3.716878,-2.496559,-0.062686,0.171043,-0.024490,-1.049492,188.495700,0
0.073958,122.682937,-168.101898,36.413927,3.685818,-6.563449,2.061050,4.886248,7.009785,-2.016714,-4.681717,-0.022503,0.169017,-0.024490,-3.085291,188.721933,0
0.075000,179.769742,-114.410739,-6.627891,2.758398,-5.526768,0.003736,5.791292,6.182741,-0.070791,-5.717193,0.003068,0.190248,-0.017021,-2.994811,188.495662,0
0.076042,191.668025,-64.283206,-72.325163,1.457748,-4.113757,-2.480280,6.790367,4.613196,2.423051,-6.630848,0.010374,0.192665,-0.039427,-1.705472,188.495642,0
0.077083,164.820327,-19.187368,-147.902435,-0.001242,-1.951638,-3.973737,5.932338,2.595209,3.998322,-5.998903,0.014027,0.209976,-0.046895,-0.710192,188.495770,0
0.078125,101.472461,25.778237,-195.576980,-0.973902,0.657817,-5.177647,4.525798,-0.051331,5.194883,-4.479952,-0.015197,0.206449,-0.050629,1.223818,188.646487,0
0.079167,56.885092,97.571662,-180.934253,-0.668532,3.036503,-5.756743,2.547239,-2.447920,5.831437,-2.686904,-0.088257,0.197564,-0.043161,2.094688,188.495743,0
0.080208,14.588907,175.083462,-137.313344,0.191028,4.943003,-5.093830,0.031922,-4.340931,5.239200,-0.155318,-0.113828,0.185937,-0.050629,3.610228,188.495649,0
0.081250,-39.299312,196.346818,-80.905163,1.276788,6.157198,-3.489887,-2.836009,-5.638471,3.740477,2.616102,-0.161317,0.172284,-0.046895,6.007948,188.495635,0
0.082292,-123.392611,168.027248,-35.913345,2.170278,6.750094,-1.844036,-5.030054,-6.101616,2.028226,4.881205,-0.227071,0.162681,-0.024490,7.930648,188.571141,0
0.083333,-180.059744,114.797822,6.833018,3.041148,5.645958,0.232327,-5.895919,-5.289275,0.037987,5.806281,-0.219765,0.190444,-0.054364,7.817548,188.495626,0
0.084375,-192.116822,65.155699,72.813927,4.341798,4.215196,2.746822,-6.844060,-3.701351,-2.484058,6.708515,-0.270907,0.191555,-0.024490,6.494278,188.495645,0
0.085417,-164.792738,20.154576,148.013017,5.823408,1.992721,4.240279,-6.040882,-1.646607,-4.047242,6.057536,-0.241683,0.203444,-0.035692,5.012668,188.495613,0
0.086458,-101.875888,-25.497707,195.392107,6.796068,-0.552828,5.390851,-4.575573,1.010961,-5.155169,4.496709,-0.208806,0.198283,-0.043161,3.587608,188.571075,0
0.087500,-57.163751,-97.362169,180.607562,6.468078,-2.927964,5.920419,-2.589178,3.385495,-5.848127,2.696047,-0.157664,0.197499,-0.061832,2.920318,188.495758,0
0.088542,-14.334469,-175.063397,137.494835,5.642448,-4.742156,5.280366,-0.066026,5.245425,-5.243803,0.213951,-0.128440,0.199394,-0.054364,1.099408,188.495767,0
0.089583,39.156764,-195.865021,81.157563,4.545378,-5.942150,3.664993,2.758808,6.487829,-3.656446,-2.553662,-0.073645,0.173851,-0.054364,-1.004252,188.495734,0
0.090625,122.875760,-168.149255,36.461200,3.697128,-6.517295,2.038191,4.858823,7.002434,-2.024772,-4.754048,-0.004238,0.169540,-0.035692,-3.107911,188.571038,0
0.091667,179.486180,-114.410739,-6.935164,2.781018,-5.445111,-0.026742,5.756031,6.090847,-0.050647,-5.682931,-0.015197,0.194429,-0.035692,-2.825161,188.495781,0
0.092708,191.826820,-63.987224,-72.620618,1.491678,-4.067603,-2.503139,6.719844,4.605844,2.487513,-6.604200,0.021333,0.192273,-0.020755,-1.377482,188.495019,0
0.093750,164.196489,-18.784833,-147.926071,-0.001242,-1.852230,-4.053744,5.916666,2.506991,4.042639,-5.949414,-0.026156,0.187635,-0.054364,-0.687572,188.496147,0
0.094792,100.848624,26.133415,-195.517889,-0.973902,0.689769,-5.200506,4.443521,-0.135873,5.154595,-4.403814,0.003068,0.205142,-0.076769,1.325608,188.571540,0
0.095833,55.864267,97.737412,-180.792435,-0.645912,3.050704,-5.691975,2.476716,-2.521435,5.799207,-2.584118,-0.055380,0.216639,-0.031958,2.173858,188.496083,0
0.096875,13.749562,175.059784,-136.994253,0.202338,4.918151,-5.025253,-0.026847,-4.377689,5.194883,-0.117249,-0.095563,0.190771,-0.020755,3.598918,188.496060,0
0.097917,-39.639587,196.346818,-80.136981,1.322028,6.096843,-3.436550,-2.836009,-5.553929,3.676016,2.638944,-0.168623,0.168887,-0.046895,6.019258,188.496111,0
0.098958,-123.040994,168.003570,-35.428800,2.147658,6.671988,-1.767839,-4.986957,-6.042804,2.004054,4.831716,-0.201500,0.165555,-0.039427,7.885408,188.646815,0
0.100000,-180.218539,114.170340,7.282109,3.041148,5.599804,0.300904,-5.856739,-5.223111,0.029929,5.711108,-0.263601,0.186459,-0.024490,8.009818,188.496167,0
0.101042,-191.889972,63.663949,72.589381,4.341798,4.183243,2.689674,-6.828388,-3.649890,-2.492115,6.678060,-0.238030,0.189072,-0.028224,6.550828,188.496187,0
0.102083,-164.475148,18.520755,148.072108,5.812098,2.017573,4.190751,-5.927262,-1.650282,-4.010982,6.000433,-0.248989,0.204097,-0.043161,5.284108,188.496038,0
0.103125,-100.798350,-26.148868,195.238471,6.728208,-0.563479,5.375612,-4.505050,0.970528,-5.147111,4.515743,-0.201500,0.199067,-0.017021,3.542368,188.571456,0
0.104167,-55.836678,-97.658151,180.891198,6.513318,-2.927964,5.912799,-2.597014,3.359765,-5.860213,2.756957,-0.175929,0.188942,-0.031958,2.886388,188.496158,0
0.105208,-13.563179,-174.838451,136.939380,5.631138,-4.710204,5.272746,-0.077780,5.238073,-5.171284,0.179689,-0.102869,0.190705,-0.024490,1.076788,188.496100,0
0.106250,39.655834,-196.374111,80.164836,4.522758,-5.913748,3.664993,2.747054,6.469450,-3.680619,-2.568890,-0.069992,0.167384,-0.043161,-1.072112,188.496054,0
0.107292,122.955157,-167.912469,35.693018,3.663198,-6.495994,2.064860,4.878413,6.987731,-1.976426,-4.723593,-0.059033,0.167646,-0.028224,-3.062671,188.496103,0
0.108333,179.826455,-114.162114,-7.289709,2.769708,-5.441561,-0.041982,5.787374,6.127605,-0.066763,-5.671510,0.024986,0.188615,-0.043161,-2.972191,188.496076,0
0.109375,191.497888,-63.572849,-72.868799,1.435128,-4.067603,-2.487899,6.774695,4.580114,2.431109,-6.653689,0.017680,0.192404,-0.035692,-1.682852,188.496156,0
0.110417,164.548106,-18.382297,-148.067890,0.010068,-1.869981,-3.988977,5.932338,2.536397,4.010408,-5.964641,0.006721,0.205991,-0.031958,-0.710192,188.496094,0
0.111458,100.984734,26.500433,-195.482435,-0.906042,0.711071,-5.204316,4.482701,-0.121170,5.146537,-4.445690,-0.004238,0.200373,-0.054364,1.235128,188.496206,0
0.112500,55.932322,98.222823,-180.839707,-0.657222,3.029403,-5.718644,2.527649,-2.488353,5.855610,-2.645028,-0.062686,0.187962,-0.017021,2.117308,188.496138,0
0.113542,13.613452,175.450480,-136.994253,0.179718,4.935902,-5.051922,0.016251,-4.282119,5.259344,-0.117249,-0.124787,0.184565,-0.024490,3.644158,188.496092,0
0.114583,-39.900465,196.346818,-80.349708,1.265478,6.132346,-3.486078,-2.788993,-5.524523,3.704218,2.680819,-0.143052,0.170912,-0.061832,5.985328,188.496123,0
0.115625,-123.710201,168.098284,-35.511527,2.170278,6.714592,-1.813558,-4.986957,-6.090588,2.016140,4.896433,-0.223418,0.165359,-0.061832,7.953268,188.496129,0
0.116667,-180.173169,114.383447,7.506654,3.007218,5.628206,0.274235,-5.876329,-5.241490,0.021872,5.787246,-0.256295,0.189725,-0.031958,7.806238,188.496100,0
0.117708,-191.958027,63.806021,73.227563,4.319178,4.200995,2.716343,-6.812716,-3.682972,-2.443769,6.723743,-0.241683,0.188811,-0.069301,6.471658,188.496092,0
0.118750,-164.588573,19.183755,148.450289,5.800788,1.971420,4.255519,-5.958606,-1.639255,-4.047242,5.992819,-0.227071,0.203966,-0.065566,4.967428,188.496078,0
0.119792,-101.456215,-26.208065,195.593016,6.750828,-0.556378,5.375612,-4.501133,0.992582,-5.179342,4.458640,-0.175929,0.201876,-0.065566,3.542368,188.496232,0
0.120833,-56.744078,-97.918615,180.406653,6.479388,-2.910213,5.939468,-2.569589,3.345062,-5.836040,2.650364,-0.201500,0.186133,-0.024490,2.909008,188.496176,0
0.121875,-13.880769,-175.548808,137.234835,5.642448,-4.738606,5.253697,-0.081698,5.216019,-5.187399,0.168268,-0.106522,0.182344,-0.061832,1.076788,188.496145,0
0.122917,39.837314,-195.687432,80.791199,4.545378,-5.938600,3.630705,2.735300,6.447395,-3.640331,-2.542242,-0.051727,0.171500,-0.020755,-1.015562,188.496129,0
0.123958,123.771817,-168.007183,36.000291,3.651888,-6.456941,2.015332,4.882331,6.980379,-1.984483,-4.712172,-0.018850,0.170128,-0.031958,-3.073981,188.496154,0
0.125000,179.610947,-114.552811,-7.549709,2.769708,-5.459313,-0.019123,5.779538,6.072469,-0.074820,-5.625827,0.014027,0.195343,-0.054364,-2.825161,188.496174,0
0.126042,191.690710,-63.987224,-73.353345,1.469058,-4.056953,-2.491709,6.766859,4.561735,2.431109,-6.573745,0.014027,0.195735,-0.005818,-1.400102,188.496154,0
0.127083,164.332599,-18.666440,-148.256980,-0.012552,-1.862881,-3.950878,5.861815,2.499640,3.978178,-5.918958,-0.000585,0.199328,-0.039427,-0.698882,188.496177,0
0.128125,101.154871,26.618826,-195.399707,-0.951282,0.689769,-5.150978,4.451357,-0.084413,5.134451,-4.453304,0.003068,0.202660,-0.024490,1.280368,188.496197,0
