1-Time,2-VGERA,3-VGERB,4-VGERC,5-VN,6-IGERAN,7-IGERBN,8-IGERCN,9-IGERAT,10-IGERBT,11-IGERCT,12-IN,13-IFD,14-IFAULT,15-VFAULT,16-Speed (rad/s),17-FAULT 
0.000000,91.241526,80.751655,-196.736175,-0.849492,-3.038023,-2.621244,5.701180,3.216411,2.423051,-5.652476,-0.011544,0.455010,-0.028224,1.608358,188.269232,0
0.001042,24.173320,139.706466,-185.127273,-0.611982,-1.298386,-3.943258,5.133079,1.507187,3.857313,-5.184228,-0.066339,0.455860,-0.031958,7.093708,188.419439,0
0.002083,-38.459967,184.780319,-136.771213,0.304128,0.924088,-4.930007,3.875420,-0.683560,4.844375,-3.943179,-0.095563,0.450242,-0.028224,15.214288,188.420833,0
0.003125,-92.280132,199.482779,-62.833712,1.672638,3.032953,-4.994774,1.751898,-2.892686,5.065961,-1.925525,-0.084604,0.441227,-0.020755,20.756188,188.496098,0
0.004167,-154.539117,168.531503,1.784659,2.939358,4.492117,-4.491875,-0.258005,-4.278444,4.514012,0.122585,-0.154011,0.436458,-0.050629,27.259438,188.269937,0
0.005208,-185.696966,118.818583,62.549811,4.036428,5.177321,-3.044136,-2.342348,-5.068730,3.184499,2.170695,-0.179582,0.435217,-0.028224,26.105818,188.496062,0
0.006250,-188.804811,38.347681,121.788447,5.178738,5.372586,-1.314468,-4.285646,-5.186354,1.440018,4.047495,-0.205153,0.437830,-0.043161,19.806148,188.420707,0
0.007292,-161.174480,-28.822145,167.596213,6.083538,4.708684,0.407580,-5.163264,-4.646019,-0.272233,5.090584,-0.230724,0.454814,-0.002084,15.463108,188.496071,0
0.008333,-92.438927,-80.890841,195.085796,6.637728,3.096858,2.624907,-5.707858,-2.988255,-2.467942,5.524571,-0.252642,0.455729,-0.017021,2.886388,188.269912,0
0.009375,-23.249674,-138.999989,186.283713,6.445458,1.360772,3.992640,-5.210279,-1.334168,-3.930406,5.189564,-0.267254,0.452789,-0.039427,-2.418001,188.496094,0
0.010417,39.757916,-182.503325,137.595266,5.563278,-0.804898,4.922241,-3.968293,0.816146,-4.840920,3.883798,-0.241683,0.438483,-0.054364,-10.764781,188.420694,0
0.011458,91.695226,-200.189768,62.315909,4.104288,-2.888911,5.127972,-1.919211,3.073057,-5.139054,2.006999,-0.186888,0.436719,-0.039427,-16.227511,188.496112,0
0.012500,152.683851,-168.211615,-1.908523,2.882808,-4.365827,4.564116,0.106363,4.429408,-4.599191,-0.025884,-0.099216,0.433322,-0.073035,-21.317011,188.269850,0
0.013542,185.769925,-118.691990,-62.439773,1.785738,-5.139787,3.223052,2.139773,5.304237,-3.318025,-2.043538,-0.095563,0.434237,-0.039427,-22.267051,188.420680,0
0.014583,188.004398,-37.665367,-121.013637,0.654738,-5.296000,1.520053,4.051728,5.421861,-1.561457,-3.927952,-0.055380,0.436001,-0.028224,-16.645981,188.420701,0
0.015625,161.122671,29.287003,-167.436932,-0.227442,-4.696003,-0.232474,5.027294,4.918283,0.074246,-5.031952,-0.037115,0.428946,-0.035692,-9.498061,188.496158,0
0.016667,92.988271,81.730208,-193.720076,-0.770322,-3.112579,-2.419322,5.591477,3.256844,2.233697,-5.473552,-0.044421,0.454488,-0.039427,1.483948,188.345341,0
0.017708,23.107125,138.945369,-186.789205,-0.657222,-1.436847,-3.787055,5.121325,1.577026,3.784794,-5.203262,-0.029809,0.451352,-0.035692,7.319908,188.420710,0
0.018750,-39.730327,181.494313,-138.777841,0.258888,0.732373,-4.781423,3.883256,-0.492421,4.707395,-3.931759,-0.066339,0.461608,-0.039427,14.863678,188.420680,0
0.019792,-92.053282,200.509656,-63.830871,1.683948,2.862540,-5.032873,1.936041,-2.701547,5.053874,-2.047345,-0.102869,0.444493,-0.039427,20.993698,188.496053,0
0.020833,-152.781030,168.531503,0.393561,2.894118,4.350106,-4.472826,-0.113041,-4.105683,4.514012,-0.063953,-0.139399,0.443774,-0.031958,26.682628,188.420710,0
0.021875,-186.252749,120.582395,61.934280,4.036428,5.120517,-3.120333,-2.236564,-4.958457,3.220759,2.033647,-0.175929,0.437960,-0.017021,26.840968,188.420698,0
0.022917,-187.852041,40.534325,121.074432,5.212668,5.298031,-1.421144,-4.085831,-5.120190,1.536710,3.860957,-0.227071,0.440965,-0.035692,21.706228,188.420692,0
0.023958,-162.138593,-26.985847,167.645455,6.038298,4.705134,0.285665,-5.080987,-4.701155,-0.135253,4.987798,-0.259948,0.456513,-0.028224,15.983368,188.496143,0
0.025000,-96.215980,-80.770032,192.574432,6.535938,3.167864,2.438225,-5.645171,-3.043392,-2.258444,5.437012,-0.263601,0.459779,-0.024490,3.112588,188.420698,0
0.026042,-25.064474,-138.106002,187.330114,6.434148,1.474381,3.870725,-5.206361,-1.415034,-3.801484,5.212405,-0.223418,0.468794,-0.024490,-2.406691,188.420721,0
0.027083,39.077366,-179.966335,139.885038,5.597208,-0.609632,4.819375,-3.999636,0.665440,-4.716027,3.956129,-0.227071,0.443121,-0.020755,-10.504651,188.420765,0
0.028125,91.808651,-200.407224,64.260985,4.172148,-2.764651,5.097493,-2.068093,2.900296,-5.126967,2.075523,-0.194194,0.441031,-0.043161,-15.990001,188.496101,0
0.029167,151.300066,-168.574042,-0.258902,2.916738,-4.216715,4.522208,-0.046436,4.264000,-4.542787,0.134006,-0.143052,0.439202,-0.028224,-21.350941,188.496058,0
0.030208,186.200940,-120.310831,-61.811932,1.751808,-4.990676,3.264960,2.033989,5.171910,-3.342198,-1.982628,-0.091910,0.434956,-0.065566,-21.927751,188.420708,0
0.031250,187.425930,-39.380855,-119.856440,0.654738,-5.207243,1.565771,3.851913,5.311588,-1.678293,-3.771869,-0.048074,0.434433,-0.013287,-16.815631,188.420683,0
0.032292,161.440261,28.199722,-167.313826,-0.261372,-4.678251,-0.068650,4.909756,4.892553,-0.002301,-4.898710,-0.040768,0.441031,-0.039427,-8.321821,188.496226,0
0.033333,95.279456,81.657722,-191.651895,-0.713772,-3.080626,-2.320266,5.426924,3.271547,2.104774,-5.313662,-0.037115,0.439920,-0.028224,1.676218,188.496051,0
0.034375,23.277263,138.111787,-187.847917,-0.657222,-1.454599,-3.661330,5.089981,1.632163,3.639757,-5.127124,-0.029809,0.442599,-0.050629,7.319908,188.420689,0
0.035417,-40.320137,178.534492,-140.328978,0.236268,0.643616,-4.674748,3.847995,-0.385824,4.518040,-3.912724,-0.033462,0.421041,-0.035692,15.542278,188.420670,0
0.036458,-91.747035,201.210348,-63.880114,1.672638,2.763132,-4.914768,1.959548,-2.635383,4.989413,-2.100642,-0.099216,0.436001,-0.054364,20.552608,188.496136,0
0.037500,-150.501187,168.519422,0.319697,2.905428,4.151291,-4.404249,-0.011175,-3.932923,4.421349,-0.136284,-0.117481,0.436066,-0.043161,26.298088,188.496163,0
0.038542,-186.978669,121.077712,61.380303,4.059048,5.035310,-3.177480,-2.056339,-4.881267,3.281191,1.911826,-0.190541,0.438091,-0.031958,26.626078,188.420680,0
0.039583,-187.058066,40.341031,119.609470,5.156118,5.187972,-1.489721,-3.878180,-5.039324,1.629373,3.670612,-0.208806,0.445212,-0.017021,20.450818,188.496127,0
0.040625,-161.979798,-26.526773,167.830114,6.094848,4.744187,0.178989,-4.939942,-4.649694,-0.058705,4.873591,-0.270907,0.446649,-0.035692,15.587518,188.496083,0
0.041667,-97.815272,-81.168702,190.124622,6.490698,3.192716,2.304880,-5.515879,-3.102204,-2.133550,5.345646,-0.248989,0.439659,-0.035692,3.519748,188.496168,0
0.042708,-24.985077,-137.985193,188.290341,6.445458,1.577339,3.767859,-5.210279,-1.477522,-3.700763,5.170529,-0.241683,0.441945,-0.002084,-2.214422,188.420779,0
0.043750,39.394956,-177.223970,141.928599,5.631138,-0.517325,4.712700,-4.003554,0.529438,-4.599191,3.998005,-0.241683,0.452136,-0.046895,-11.115391,188.496132,0
0.044792,91.649856,-201.011270,65.984470,4.217388,-2.686545,5.086064,-2.115108,2.767969,-5.114881,2.174502,-0.172276,0.441031,-0.061832,-16.431091,188.496250,0
0.045833,150.177158,-168.598204,1.476894,2.950668,-4.088905,4.545067,-0.144385,4.139024,-4.546816,0.236792,-0.146705,0.444689,-0.017021,-20.593171,188.496120,0
0.046875,187.096997,-122.147128,-60.728599,1.751808,-5.008427,3.329727,1.916451,5.131477,-3.422774,-1.841773,-0.139399,0.439790,-0.065566,-22.561111,188.483486,0
0.047917,186.870147,-41.724550,-119.228599,0.643428,-5.189491,1.626729,3.781390,5.311588,-1.770956,-3.680504,-0.037115,0.440247,-0.017021,-17.584711,188.484968,0
0.048958,162.234236,26.025159,-167.806251,-0.306612,-4.717304,-0.061031,4.917592,4.907256,-0.066763,-4.921552,-0.033462,0.456774,-0.054364,-9.464131,188.489909,0
0.050000,98.137766,81.573156,-190.137690,-0.725082,-3.158732,-2.217401,5.438678,3.378144,2.000025,-5.363152,0.024986,0.456643,-0.035692,1.269058,188.475619,0
0.051042,24.592993,137.846007,-188.512690,-0.679842,-1.532705,-3.687999,5.156586,1.676272,3.623641,-5.210876,-0.051727,0.458668,-0.065566,7.342528,188.551618,0
0.052083,-39.798382,177.543857,-141.596970,0.202338,0.593912,-4.629030,3.961615,-0.334364,4.598617,-3.992669,-0.055380,0.450699,-0.050629,14.965468,188.553591,0
0.053125,-91.520185,201.524452,-64.803409,1.638708,2.770232,-5.017633,2.030071,-2.587599,5.029701,-2.176780,-0.113828,0.437699,-0.031958,20.880598,188.479220,0
0.054167,-150.308365,168.845607,-0.185038,2.871498,4.215196,-4.507115,0.016251,-3.940275,4.481781,-0.197194,-0.154011,0.436850,-0.028224,26.162368,188.482162,0
0.055208,-187.024039,121.826728,61.109470,4.036428,5.092114,-3.265107,-2.060257,-4.936403,3.337595,1.904213,-0.212459,0.435086,-0.028224,27.101098,188.484872,0
0.056250,-187.443711,40.522244,119.055493,5.178738,5.301581,-1.539249,-3.952621,-5.138569,1.601171,3.735330,-0.223418,0.447106,-0.017021,22.226488,188.480385,0
0.057292,-162.308730,-26.901281,167.423864,6.094848,4.793891,0.159940,-5.084905,-4.715858,-0.070791,4.961150,-0.227071,0.427704,-0.013287,15.926818,188.475762,0
0.058333,-97.418285,-81.047893,190.469319,6.535938,3.263721,2.342979,-5.649089,-3.124258,-2.161752,5.437012,-0.256295,0.416795,-0.028224,3.123898,188.471761,0
0.059375,-24.236472,-137.381148,188.893561,6.513318,1.641244,3.817387,-5.343489,-1.499577,-3.753138,5.269509,-0.270907,0.465201,-0.039427,-2.270972,188.485364,0
0.060417,39.599121,-177.405183,142.137879,5.665068,-0.496024,4.834614,-4.097585,0.588250,-4.707969,4.043688,-0.223418,0.457166,-0.035692,-10.527271,188.480806,0
0.061458,90.969306,-201.337454,65.824432,4.228698,-2.729149,5.177500,-2.181713,2.881918,-5.183371,2.239219,-0.186888,0.442990,-0.065566,-15.990001,188.475697,0
0.062500,149.746143,-169.081440,1.636932,2.984598,-4.170562,4.644122,-0.179646,4.234594,-4.631422,0.232985,-0.161317,0.443578,-0.061832,-21.079501,188.489135,0
0.063542,186.870147,-122.352504,-60.408523,1.763118,-5.075882,3.383065,1.986974,5.212343,-3.475149,-1.876035,-0.102869,0.441423,-0.043161,-22.131331,188.562492,0
0.064583,187.267135,-42.123220,-118.699243,0.688668,-5.267598,1.680066,3.859749,5.366725,-1.742754,-3.741414,-0.088257,0.443970,-0.039427,-17.324581,188.495615,0
0.065625,162.336319,25.251982,-167.892425,-0.261372,-4.781209,-0.064841,4.988115,4.962392,-0.070791,-4.971041,-0.037115,0.454488,0.001650,-8.717671,188.495812,0
0.066667,99.351414,80.582522,-190.371591,-0.691152,-3.194235,-2.247879,5.524872,3.385495,2.068515,-5.416448,-0.040768,0.458211,-0.024490,1.223818,188.495767,0
0.067708,26.407793,137.628551,-188.869698,-0.702462,-1.543356,-3.741337,5.219273,1.724056,3.684074,-5.317469,-0.029809,0.445408,-0.028224,7.138948,188.344972,0
0.068750,-38.425940,177.338482,-142.655682,0.179718,0.569060,-4.735705,3.985123,-0.345391,4.642934,-4.019317,-0.055380,0.447498,-0.043161,15.598828,188.495772,0
0.069792,-91.055142,201.681504,-66.268371,1.593468,2.819936,-5.063352,2.053579,-2.642735,5.130422,-2.172973,-0.099216,0.444297,-0.017021,20.586538,188.495868,0
0.070833,-150.308365,169.401328,-1.699242,2.837568,4.250698,-4.526164,0.031922,-4.024817,4.530127,-0.185773,-0.121134,0.444232,-0.046895,26.218918,188.495776,0
0.071875,-187.693246,122.454935,60.247727,4.013808,5.141818,-3.261297,-2.115108,-5.006242,3.329537,1.953702,-0.186888,0.437503,-0.017021,26.807038,188.345064,0
0.072917,-187.636534,41.742415,118.353788,5.122188,5.347734,-1.543059,-4.011390,-5.197381,1.661603,3.822888,-0.267254,0.449196,-0.054364,20.643088,188.495830,0
0.073958,-162.660348,-25.608624,167.682387,6.038298,4.868447,0.247566,-5.167182,-4.782021,-0.103022,5.018253,-0.259948,0.451091,-0.050629,15.429178,188.495743,0
0.075000,-98.620590,-80.371362,190.469319,6.558558,3.256621,2.430605,-5.703940,-3.212476,-2.214126,5.497922,-0.230724,0.451809,-0.035692,3.282238,188.495825,0
0.076042,-25.189242,-137.369067,189.361364,6.524628,1.559588,3.916443,-5.355243,-1.448116,-3.849829,5.349453,-0.263601,0.429011,-0.031958,-2.214422,188.344874,0
0.077083,39.190791,-177.236051,142.199432,5.642448,-0.577680,4.887952,-4.160272,0.595601,-4.812719,4.093178,-0.216112,0.467814,-0.043161,-10.866571,188.495812,0
0.078125,90.243386,-202.013985,65.602841,4.183458,-2.835657,5.238458,-2.150369,2.966460,-5.276034,2.189730,-0.219765,0.438352,-0.046895,-16.284061,188.420338,0
0.079167,149.337813,-169.286816,1.218371,2.961978,-4.309022,4.659362,-0.081698,4.308109,-4.699912,0.175882,-0.146705,0.444232,-0.031958,-20.649721,188.495676,0
0.080208,187.380560,-121.893429,-60.051515,1.774428,-5.175290,3.367826,2.084922,5.370400,-3.499322,-2.024504,-0.084604,0.433453,-0.043161,-22.685521,188.344914,0
0.081250,187.380560,-40.842644,-118.231440,0.699978,-5.331503,1.615299,4.012548,5.495376,-1.754840,-3.863235,-0.037115,0.430056,-0.017021,-17.505541,188.495821,0
0.082292,162.461086,25.940593,-167.523107,-0.238752,-4.848665,-0.110559,5.125243,4.991798,0.054102,-5.058600,-0.037115,0.478201,-0.050629,-9.577231,188.420428,0
0.083333,97.684066,80.208014,-191.319508,-0.713772,-3.222637,-2.381224,5.685508,3.422253,2.165207,-5.534462,-0.004238,0.437634,-0.046895,1.110718,188.495866,0
0.084375,25.625160,137.374852,-189.005114,-0.679842,-1.522054,-3.863252,5.336811,1.716705,3.885515,-5.374572,-0.033462,0.431559,-0.031958,7.093708,188.345059,0
0.085417,-38.108350,178.739867,-141.867803,0.247578,0.675568,-4.914768,4.047810,-0.459339,4.836318,-4.106876,-0.069992,0.447171,-0.024490,14.807128,188.420508,0
0.086458,-90.091030,201.826474,-66.723864,1.627398,2.947746,-5.189076,2.045743,-2.797116,5.263373,-2.157745,-0.073645,0.444689,-0.035692,20.914528,188.420484,0
0.087500,-150.807435,169.642946,-2.548674,2.848878,4.481467,-4.629030,-0.089534,-4.230659,4.638905,-0.105828,-0.161317,0.446518,-0.020755,26.422498,188.495843,0
0.088542,-187.500424,123.312679,59.570644,4.025118,5.308681,-3.280346,-2.267907,-5.204733,3.402056,2.048875,-0.183235,0.443056,-0.039427,27.089788,188.344934,0
0.089583,-188.362454,43.047153,118.600000,5.156118,5.557201,-1.455432,-4.234713,-5.307654,1.605200,4.001812,-0.190541,0.449196,0.005384,22.090768,188.420292,0
0.090625,-163.658488,-24.279725,167.423864,6.072228,4.939452,0.346622,-5.347407,-4.892294,-0.240002,5.239053,-0.248989,0.460367,-0.031958,16.130398,188.420417,0
0.091667,-98.461795,-78.849168,192.660607,6.547248,3.281472,2.598238,-5.939016,-3.267612,-2.423625,5.714915,-0.241683,0.459322,-0.020755,3.248308,188.495841,0
0.092708,-26.833904,-136.934155,188.967425,6.502008,1.516984,4.118364,-5.488453,-1.426062,-4.051271,5.475081,-0.227071,0.463503,-0.020755,-2.146562,188.345048,0
0.093750,37.149141,-179.785121,141.423864,5.619828,-0.733892,5.124162,-4.175944,0.764686,-5.070564,4.157895,-0.223418,0.445995,-0.058098,-10.210591,188.420452,0
0.094792,89.279273,-201.651558,66.341477,4.206078,-3.027372,5.371802,-2.083764,3.139220,-5.445244,2.125013,-0.154011,0.444754,-0.024490,-15.842971,188.421651,0
0.095834,150.483406,-169.830456,1.944697,2.950668,-4.557542,4.842234,0.086774,4.635250,-4.828834,-0.010656,-0.135746,0.440247,-0.043161,-21.441421,188.496051,0
0.096876,186.870147,-121.893429,-59.620644,1.785738,-5.402508,3.398305,2.229886,5.561539,-3.515437,-2.127290,-0.080951,0.441031,-0.054364,-22.029541,188.345290,0
0.097917,188.696290,-40.890968,-118.120644,0.677358,-5.626176,1.554342,4.263296,5.723272,-1.650091,-4.175400,-0.033462,0.417971,-0.031958,-16.793011,188.420806,0
0.098959,162.960156,26.218454,-166.907576,-0.272682,-4.980025,-0.301051,5.328976,5.164558,0.154823,-5.336503,-0.080951,0.455598,-0.039427,-8.468851,188.420853,0
0.100000,95.891951,79.096571,-193.953978,0.835698,-3.251039,-2.583145,5.920584,3.459010,2.374705,-5.800945,-0.022503,0.431428,-0.013287,1.585738,188.495779,0
0.101042,25.284885,137.241962,-188.894319,-0.668532,-1.440398,-4.126131,5.497447,1.683623,4.082927,-5.465938,-0.018850,0.421760,-0.050629,6.991918,188.269859,0
0.102084,-37.552567,180.805702,-140.513637,0.236268,0.842431,-5.162407,4.165348,-0.613721,5.078047,-4.209662,-0.033462,0.452463,-0.073035,15.089878,188.422673,0
0.103125,-89.115575,204.653406,-65.234281,1.661328,3.150112,-5.349090,1.983056,-3.017661,5.424526,-2.142518,-0.055380,0.445016,-0.009553,20.496058,188.420432,0
0.104167,-151.113682,170.114101,-1.797727,2.882808,4.698033,-4.781423,-0.246251,-4.487961,4.820202,0.042641,-0.143052,0.445538,-0.035692,26.852278,188.495908,0
0.105209,-187.500424,122.334126,59.065909,4.013808,5.539449,-3.280346,-2.455969,-5.447332,3.466517,2.269675,-0.175929,0.443513,-0.039427,26.580838,188.270372,0
0.106251,-189.235826,41.911548,118.292235,5.167428,5.727614,-1.432573,-4.544230,-5.546577,1.568940,4.272102,-0.223418,0.434368,-0.054364,20.315098,188.495264,0
0.107293,-163.454323,-24.593828,167.411554,6.083538,5.088564,0.445678,-5.609909,-5.043000,-0.328636,5.494115,-0.230724,0.466116,-0.035692,15.825028,188.420074,0
0.108334,-97.055325,-77.604835,194.753410,6.626418,3.348928,2.800160,-6.142749,-3.278640,-2.633124,5.939522,-0.248989,0.466703,-0.065566,3.553678,188.495309,0
0.109375,-27.537139,-137.127449,188.881251,6.456768,1.485032,4.331715,-5.637335,-1.400331,-4.280914,5.604515,-0.252642,0.465070,-0.043161,-1.920362,188.269218,0
0.110417,35.538506,-181.838875,140.783713,5.608518,-0.833300,5.379422,-4.328743,0.867607,-5.296178,4.272102,-0.194194,0.458930,-0.035692,-10.402861,188.419920,0
0.111459,88.405901,-201.844852,67.190909,4.217388,-3.208436,5.577533,-2.072011,3.282574,-5.626541,2.147854,-0.168623,0.452397,-0.050629,-16.159651,188.420014,0
0.112500,151.685711,-170.434502,3.114205,2.984598,-4.838014,4.929860,0.212148,4.822714,-4.953728,-0.140090,-0.157664,0.447825,-0.061832,-21.407491,188.495336,0
0.113542,187.153710,-122.545798,-58.315720,1.808358,-5.604874,3.459262,2.398357,5.778409,-3.583927,-2.336669,-0.088257,0.449066,-0.024490,-22.527181,188.269171,0
0.114584,189.671745,-41.881602,-118.268372,0.699978,-5.785938,1.520053,4.557142,5.896033,-1.589659,-4.430462,-0.069992,0.450829,-0.013287,-16.759081,188.420046,0
0.115625,163.504596,24.865393,-167.116857,-0.250062,-5.072332,-0.422966,5.611067,5.278507,0.279716,-5.595372,-0.040768,0.461347,-0.050629,-9.724261,188.419958,0
0.116667,94.315343,77.683105,-196.711554,-0.849492,-3.208436,-2.849834,6.167414,3.436956,2.648666,-6.025552,-0.007891,0.450111,-0.050629,1.461328,188.495486,0
0.117708,26.974918,137.362771,-188.561932,-0.668532,-1.309037,-4.331862,5.548380,1.496160,4.280340,-5.610600,-0.022503,0.460106,-0.050629,6.822268,188.344618,0
0.118750,-35.544945,183.910494,-139.282576,0.258888,1.066099,-5.402427,4.173184,-0.808536,5.291575,-4.236310,-0.037115,0.440247,-0.039427,14.207698,188.420066,0
0.119792,-87.935955,202.007688,-65.345076,1.650018,3.405732,-5.497673,1.889025,-3.260261,5.521218,-2.005469,-0.106522,0.442468,-0.050629,20.767498,188.419913,0
0.120834,-152.486125,170.778551,-1.576136,2.837568,5.042410,-4.861430,-0.442148,-4.785697,4.864519,0.217758,-0.154011,0.440051,-0.058098,27.044548,188.495325,0
0.121875,-186.831216,121.222683,58.536553,4.002498,5.724064,-3.291776,-2.687127,-5.653174,3.458459,2.482861,-0.183235,0.444232,-0.031958,27.055858,188.344572,0
0.122917,-190.721694,40.872590,118.144508,5.099568,5.954832,-1.337327,-4.826321,-5.745068,1.452104,4.633757,-0.219765,0.459975,-0.046895,21.570508,188.419976,0
0.123959,-163.011965,-25.403249,166.734470,6.038298,5.152469,0.613311,-5.841068,-5.142245,-0.505905,5.718722,-0.259948,0.468598,-0.054364,15.938128,188.420079,0
0.125000,-93.709287,-76.348421,198.372728,6.705588,3.338277,3.051609,-6.417005,-3.205125,-2.882911,6.179357,-0.270907,0.440247,-0.024490,3.146518,188.495271,0
0.126042,-26.629739,-136.958317,188.228788,6.490698,1.357222,4.560306,-5.782298,-1.260653,-4.550845,5.737757,-0.270907,0.461935,-0.043161,-2.044772,188.344645,0
0.127084,34.891983,-185.318175,139.183334,5.597208,-1.049867,5.642301,-4.364005,1.099179,-5.570138,4.325398,-0.223418,0.455402,-0.039427,-9.837361,188.419961,0
