1-Time,2-VGERA,3-VGERB,4-VGERC,5-VN,6-IGERAN,7-IGERBN,8-IGERCN,9-IGERAT,10-IGERBT,11-IGERCT,12-IN,13-IFD,14-IFAULT,15-VFAULT,16-Speed (rad/s),17-Active Power,18-Reactive Power,19-FAULT 
0.000000,-128.663848,186.074787,-27.141820,-0.214918,3.403598,-4.238692,0.601777,-3.029888,4.205028,-0.643213,-0.098148,0.413558,-0.071140,129.859985,188.571460,1224.908417,-23.129856,0
0.001042,-165.942302,148.091424,40.846783,1.068642,4.133823,-3.257148,-0.976542,-3.787931,3.384895,0.927560,-0.152841,0.418243,-0.100873,163.848867,188.571587,1225.977779,-23.889302,0
0.002083,-192.440627,74.497191,92.673663,2.093238,4.735617,-1.764718,-2.831161,-4.223171,1.846090,2.831413,-0.207533,0.430921,-0.071140,190.339705,188.646964,1227.182237,-25.046499,0
0.003125,-175.445539,8.760369,149.810823,3.151613,4.163179,-0.392970,-3.557870,-3.864098,0.544025,3.558132,-0.229410,0.421688,-0.093440,167.383981,188.722308,1227.690309,-25.407477,0
0.004167,-129.398343,-52.666034,187.942769,3.928504,3.216455,1.473573,-4.277008,-2.902943,-1.316069,4.334056,-0.192949,0.429405,-0.067423,122.969890,188.571560,1228.483508,-26.414138,0
0.005208,-57.293520,-107.879326,192.110793,4.007319,1.623904,3.078640,-4.129395,-1.372349,-2.985927,4.281066,-0.258580,0.425340,-0.056273,51.513304,188.571581,1229.726096,-26.897558,0
0.006250,8.585045,-164.525510,163.092601,3.444354,-0.053045,4.100411,-3.467031,0.180007,-3.979386,3.573272,-0.214826,0.418932,-0.048839,-14.325379,188.722357,1230.709354,-27.238810,0
0.007292,69.909739,-181.450069,108.203500,2.329684,-1.862095,4.345797,-1.915207,1.917340,-4.287992,2.085769,-0.178364,0.412731,-0.067423,-71.911709,188.722313,1230.209994,-27.067278,0
0.008333,128.816250,-186.371228,28.087528,0.798419,-3.428960,4.265343,-0.393661,3.429799,-4.233035,0.473361,-0.152841,0.412662,-0.052556,-129.295390,188.571558,1230.705184,-27.523875,0
0.009375,166.173803,-148.246926,-40.618024,-0.518919,-4.129829,3.303912,1.188443,4.158826,-3.332580,-1.063347,-0.112733,0.416107,-0.089723,-163.250497,188.571585,1230.412306,-27.960589,0
0.010417,192.434830,-74.159402,-92.250477,-1.520997,-4.632547,1.835618,3.001428,4.608574,-1.840278,-2.993694,-0.087210,0.411147,-0.048839,-190.045309,188.722291,1230.418747,-28.609831,0
0.011458,175.417142,-7.529960,-149.071694,-2.601890,-4.137168,0.451802,3.675147,4.234993,-0.495937,-3.731768,-0.061686,0.403912,-0.086006,-166.785611,188.722387,1229.713147,-28.478209,0
0.012500,128.465953,53.849463,-187.616796,-3.423819,-3.208792,-1.430832,4.439704,3.281092,1.334565,-4.439562,-0.065333,0.395369,-0.059989,-121.290721,188.571545,1230.140193,-28.512370,0
0.013542,55.389335,107.946979,-192.307341,-3.468856,-1.619910,-2.963489,4.242887,1.783141,2.987512,-4.390357,-0.054394,0.420517,-0.063706,-49.912943,188.571475,1230.532122,-28.790375,0
0.014583,-9.958133,164.146853,-162.778779,-2.928410,0.013005,-4.041579,3.644867,0.219904,3.926014,-3.671208,-0.058040,0.396540,-0.067423,15.013815,188.722367,1229.898563,-28.672643,0
0.015625,-70.039836,181.529468,-107.950437,-1.768702,1.807378,-4.286965,2.127107,-1.510175,4.276895,-2.255620,-0.072625,0.424513,-0.089723,72.341204,188.797617,1229.965741,-28.015800,0
0.016667,-128.833347,185.851631,-28.296229,-0.259955,3.326539,-4.218579,0.647196,-2.975483,4.179663,-0.654568,-0.116379,0.415694,-0.100873,130.141443,188.571609,1229.278087,-27.805035,0
0.017708,-166.190900,148.666929,40.251351,1.034864,4.097129,-3.233012,-0.965187,-3.751661,3.376440,0.859430,-0.182010,0.424444,-0.067423,163.781317,188.647034,1228.806486,-27.161583,0
0.018750,-191.943430,75.612967,92.831635,2.081979,4.695253,-1.756673,-2.797097,-4.172393,1.858773,2.778423,-0.211179,0.414040,-0.037689,190.092021,188.722373,1227.975375,-26.757742,0
0.019792,-175.795837,9.218425,149.677155,3.162872,4.144832,-0.413083,-3.501095,-3.853217,0.552480,3.539207,-0.222118,0.427958,-0.086006,167.642922,188.797818,1227.750536,-26.766365,0
0.020833,-129.432243,-52.983149,187.602522,3.917245,3.220125,1.425301,-4.220234,-2.888435,-1.197700,4.265926,-0.229410,0.431334,-0.059989,122.373199,188.571502,1226.377498,-25.354465,0
0.021875,-56.660724,-107.844091,192.438888,4.052357,1.609226,3.014276,-4.057481,-1.426754,-2.905604,4.201581,-0.214826,0.431265,-0.086006,50.747738,188.646911,1225.100472,-24.099547,0
0.022917,9.376040,-164.231884,162.837415,3.478132,-0.023689,4.019957,-3.429182,0.147364,-3.903291,3.505142,-0.211179,0.430025,-0.059989,-14.809487,188.722346,1223.510907,-23.534266,0
0.023958,70.203538,-181.790674,107.911859,2.352202,-1.814392,4.317638,-1.941701,1.899205,-4.287992,2.089554,-0.185656,0.413214,-0.071140,-72.170651,188.797712,1223.534500,-23.155018,0
0.025000,128.669351,-186.042368,27.540703,0.820937,-3.315206,4.225116,-0.393661,3.350005,-4.148485,0.514996,-0.192949,0.410595,-0.086006,-129.250356,188.571581,1221.902862,-22.182815,0
0.026042,166.309402,-148.481826,-41.079787,-0.541438,-4.056440,3.271730,1.108959,4.104421,-3.315670,-1.059562,-0.123671,0.413558,-0.078573,-163.081622,188.722413,1221.273817,-21.942921,0
0.027083,191.768134,-74.006717,-92.481359,-1.554775,-4.654564,1.819528,2.971148,4.575931,-1.865643,-2.906639,-0.076271,0.413076,-0.086006,-189.606235,188.722340,1220.307890,-20.741925,0
0.028125,175.733540,-7.506470,-149.095997,-2.590631,-4.148177,0.471916,3.629727,4.173334,-0.512847,-3.663638,-0.043455,0.440567,-0.115740,-167.202169,188.797673,1219.094554,-20.404746,0
0.029167,128.658051,53.908188,-187.215791,-3.401300,-3.241817,-1.354400,4.375360,3.299227,1.262697,-4.431992,-0.047102,0.427269,-0.078573,-121.966220,188.571534,1218.835290,-19.480902,0
0.030208,56.225530,107.829529,-192.441010,-3.480115,-1.663944,-2.943376,4.276952,1.848427,2.936782,-4.424422,-0.047102,0.417899,-0.086006,-51.117584,188.797780,1219.227646,-18.498714,0
0.031250,-8.602142,164.217323,-162.730173,-2.917150,0.001997,-3.985261,3.652437,0.248920,3.904876,-3.735553,-0.061686,0.431954,-0.052556,14.068116,188.723496,1219.646401,-17.987516,0
0.032292,-69.712138,181.447253,-108.472958,-1.870035,1.792700,-4.262829,2.157387,-1.444889,4.272668,-2.266975,-0.068979,0.423342,-0.052556,72.307429,188.798221,1219.385827,-17.391127,0
0.033334,-129.183645,185.616731,-28.478504,-0.293733,3.348556,-4.166283,0.597992,-2.931959,4.217710,-0.699987,-0.120025,0.416314,-0.071140,130.299059,188.571036,1219.565481,-16.350285,0
0.034375,-166.416899,148.678674,40.409323,0.989827,4.078781,-3.249103,-0.912198,-3.726272,3.359531,0.814011,-0.160133,0.421895,-0.019106,163.792575,188.722000,1219.113579,-15.778005,0
0.035417,-191.785231,75.530752,92.916697,2.003164,4.632872,-1.768741,-2.789527,-4.179647,1.896820,2.748143,-0.207533,0.421068,-0.063706,189.968180,188.721920,1219.165506,-15.048133,0
0.036458,-175.739337,8.290569,149.397667,3.151613,4.126485,-0.401015,-3.482171,-3.809693,0.565162,3.505142,-0.192949,0.430301,-0.037689,167.541597,188.797371,1218.284119,-14.659906,0
0.037500,-129.093245,-53.640869,187.347337,3.815911,3.187099,1.405187,-4.178599,-2.877554,-1.210382,4.269711,-0.214826,0.431403,-0.030256,122.305649,188.571218,1218.204519,-14.674052,0
0.038542,-55.756730,-107.879326,192.669770,4.029838,1.605557,2.986117,-4.061266,-1.419500,-2.884467,4.178871,-0.251287,0.423135,-0.074856,50.173563,188.721829,1217.727378,-14.396253,0
0.039583,9.861936,-164.043964,162.922477,3.455614,-0.045706,4.056161,-3.459461,0.140110,-3.903291,3.535422,-0.233057,0.414867,-0.059989,-15.012136,188.721927,1217.998789,-14.022964,0
0.040625,70.553835,-181.532284,107.875404,2.318424,-1.770358,4.285456,-1.968196,1.888324,-4.254172,2.153899,-0.178364,0.385585,-0.074856,-72.362042,188.797347,1217.950589,-13.156200,0
0.041667,128.375553,-185.936663,27.504248,0.809678,-3.256495,4.192934,-0.446651,3.288346,-4.123120,0.549061,-0.145548,0.413489,-0.089723,-129.317906,188.571114,1217.154002,-12.397471,0
0.042708,166.038204,-148.716726,-40.921816,-0.451364,-4.001398,3.275753,1.033260,4.064524,-3.311443,-0.934657,-0.112733,0.420241,-0.052556,-163.284272,188.797295,1216.386882,-10.922412,0
0.043750,191.225738,-75.239943,-92.772999,-1.487219,-4.610530,1.855732,2.853815,4.503391,-1.929055,-2.830940,-0.065333,0.419208,-0.063706,-189.279743,188.721934,1215.455977,-9.777239,0
0.044792,176.004738,-8.657481,-149.290424,-2.568112,-4.144507,0.564438,3.591878,4.166080,-0.610079,-3.591724,-0.036163,0.425547,-0.074856,-167.494885,188.797291,1214.918676,-8.524620,0
0.045833,129.934943,53.309193,-186.924151,-3.311226,-3.212461,-1.281991,4.345081,3.328243,1.199285,-4.303303,-0.036163,0.407219,-0.082290,-122.641720,188.572161,1213.558719,-7.680696,0
0.046875,57.671920,107.923489,-192.161521,-3.491375,-1.696969,-2.858899,4.239102,1.826665,2.826867,-4.344938,-0.061686,0.430783,-0.041406,-51.286458,188.721945,1211.823360,-7.437367,0
0.047917,-7.867647,163.794502,-162.487139,-2.950928,-0.075062,-3.876647,3.629727,0.314206,3.828781,-3.693918,-0.065333,0.429405,-0.056273,14.259508,188.797253,1210.461327,-6.758911,0
0.048958,-69.949436,181.341548,-108.497262,-1.858776,1.708302,-4.202488,2.153602,-1.397738,4.196573,-2.297255,-0.090856,0.420448,-0.056273,72.712729,188.797329,1209.568711,-5.836246,0
0.050000,-128.516949,185.276126,-27.980285,-0.293733,3.267828,-4.146170,0.658551,-2.812268,4.086658,-0.726482,-0.141902,0.413765,-0.086006,129.792435,188.571046,1206.956080,-4.993993,0
0.051042,-166.100501,149.078005,41.174878,1.057383,3.957689,-3.196807,-0.832714,-3.642851,3.351076,0.802656,-0.163779,0.416934,-0.056273,163.128334,188.797356,1206.012007,-4.475256,0
0.052083,-190.463140,75.295851,93.293398,2.059460,4.552143,-1.784832,-2.675979,-4.030940,1.917958,2.638378,-0.196595,0.399709,-0.056273,189.146322,188.797320,1203.376421,-3.075731,0
0.053125,-176.021835,7.585868,148.972358,3.106575,4.082451,-0.533765,-3.334558,-3.791558,0.662394,3.410517,-0.218472,0.419621,-0.052556,167.913122,188.797278,1202.314209,-1.311676,0
0.054167,-129.307944,-54.510000,186.387355,3.815911,3.154074,1.284506,-4.118040,-2.870300,-1.138515,4.129666,-0.192949,0.444908,-0.078573,122.305649,188.646533,1200.239852,-0.098757,0
0.055208,-55.395132,-107.996776,192.973561,3.962282,1.638582,2.893594,-4.023417,-1.412246,-2.778780,4.144806,-0.211179,0.382691,-0.078573,50.612638,188.721931,1199.093276,0.778538,0
0.056250,9.839336,-163.609399,162.582230,3.410576,0.068048,3.923411,-3.478386,0.103840,-3.755329,3.527852,-0.200241,0.406875,-0.082290,-14.156504,188.797248,1197.318881,1.929290,0
0.057292,70.599035,-181.802419,108.762476,2.352202,-1.652935,4.213047,-2.013615,1.725109,-4.152713,2.169039,-0.185656,0.414178,-0.041406,-72.362042,188.721862,1195.696895,3.717859,0
0.058333,128.330353,-185.231962,28.865235,0.877234,-3.142741,4.148684,-0.533704,3.201298,-4.089300,0.586911,-0.167425,0.419001,-0.067423,-129.498040,188.721922,1194.562263,4.414086,0
0.059375,166.535401,-149.691562,-40.192715,-0.496401,-3.964703,3.291844,0.980271,3.955714,-3.349490,-0.870312,-0.141902,0.425685,-0.063706,-163.239238,188.721962,1193.868757,5.594852,0
0.060417,190.073145,-76.837264,-93.271217,-1.543516,-4.511455,1.863778,2.808396,4.459867,-1.920600,-2.721175,-0.079917,0.419690,-0.086006,-188.446627,188.797215,1192.590863,6.314836,0
0.061458,176.524535,-9.479631,-149.181059,-2.624408,-4.104143,0.560415,3.512394,4.173334,-0.698856,-3.531164,-0.065333,0.430025,-0.074856,-167.798860,188.722074,1192.296051,7.489824,0
0.062500,130.081842,53.673288,-186.049231,-3.367522,-3.201453,-1.241764,4.276952,3.273838,1.148555,-4.242743,-0.039809,0.430508,-0.071140,-122.349003,188.797282,1190.811174,7.770144,0
0.063542,57.084324,108.005705,-192.744802,-3.412560,-1.663944,-2.834762,4.227748,1.859308,2.788820,-4.318443,-0.050748,0.424375,-0.067423,-50.430826,188.721858,1190.462292,8.526372,0
0.064583,-8.636041,163.688797,-162.268409,-2.860854,-0.064053,-3.808261,3.622158,0.317833,3.769597,-3.652283,-0.054394,0.428509,-0.093440,15.013815,188.797356,1189.367552,8.840804,0
0.065625,-70.378833,181.635173,-108.314987,-1.802480,1.700963,-4.166283,2.146032,-1.386857,4.158525,-2.304825,-0.076271,0.420310,-0.056273,73.118029,188.646581,1189.023349,9.224802,0
0.066667,-128.415250,185.088206,-27.421308,-0.271215,3.205447,-4.089852,0.669906,-2.786879,4.069748,-0.734052,-0.127317,0.411767,-0.059989,129.702368,188.797316,1188.551666,9.598246,0
0.067708,-165.919702,149.148475,41.612339,1.046123,3.965028,-3.212898,-0.825144,-3.588446,3.355303,0.738311,-0.152841,0.413283,-0.082290,163.173367,188.721893,1187.861207,10.686815,0
0.068750,-190.203242,75.107931,93.572887,2.048201,4.519118,-1.833104,-2.645700,-4.034567,1.917958,2.600528,-0.200241,0.410595,-0.104590,188.819831,188.797327,1187.609010,11.166311,0
0.069792,-176.146135,7.386203,149.033116,3.140353,4.093459,-0.545833,-3.379977,-3.733526,0.637029,3.421872,-0.207533,0.422722,-0.067423,168.014447,188.646520,1187.120071,10.577612,0
0.070833,-129.454843,-54.427785,186.144322,3.860949,3.183430,1.296574,-4.083976,-2.819522,-1.134288,4.095601,-0.214826,0.397504,-0.074856,123.127507,188.797407,1186.265294,10.224560,0
0.071875,-56.197427,-108.067246,192.414584,4.041097,1.689955,2.849345,-4.012062,-1.488413,-2.783007,4.175086,-0.236703,0.439327,-0.056273,51.839795,188.721934,1186.915386,10.925223,0
0.072917,8.664144,-163.832554,162.399955,3.410576,0.141437,3.846980,-3.421612,0.060316,-3.717282,3.505142,-0.229410,0.405841,-0.071140,-13.188288,188.797402,1186.308139,11.230868,0
0.073958,70.486036,-181.320874,109.394363,2.295906,-1.597893,4.192934,-1.979550,1.696093,-4.148485,2.191749,-0.192949,0.419759,-0.037689,-72.530917,188.646438,1186.228843,11.577633,0
0.075000,128.578952,-185.091022,29.241937,0.775900,-3.172097,4.168797,-0.552629,3.157774,-4.106210,0.639901,-0.141902,0.419484,-0.067423,-129.419231,188.797133,1186.208532,12.553661,0
0.076042,166.467601,-149.574112,-40.532962,-0.518919,-3.913330,3.303912,0.953776,3.995611,-3.332580,-0.866527,-0.127317,0.423273,-0.078573,-163.047847,188.797291,1186.458483,12.407301,0
0.077083,190.061845,-76.520149,-93.417037,-1.509738,-4.493107,1.863778,2.778116,4.448986,-1.916372,-2.717390,-0.079917,0.418312,-0.059989,-188.232719,188.797324,1186.264660,12.504371,0
0.078125,176.377636,-8.328620,-148.950177,-2.568112,-4.074787,0.544325,3.493470,4.129810,-0.643899,-3.489529,-0.094502,0.437949,-0.071140,-167.675018,188.646476,1185.220862,12.233192,0
0.079167,130.036642,54.436713,-185.818349,-3.299967,-3.150080,-1.217628,4.265597,3.262957,1.102053,-4.242743,-0.036163,0.411560,-0.052556,-122.135095,188.797324,1184.960180,12.846671,0
0.080208,56.315929,108.170135,-192.659740,-3.480115,-1.685960,-2.782467,4.174759,1.841173,2.746545,-4.329798,-0.050748,0.425616,-0.052556,-49.935459,188.797253,1184.626845,13.274741,0
0.081250,-9.280137,163.336447,-162.183347,-2.883372,-0.133773,-3.776079,3.618373,0.397627,3.714639,-3.610649,-0.068979,0.388547,-0.026539,15.261498,188.797336,1183.527018,14.356632,0
0.082292,-70.717831,181.458998,-108.047650,-1.847517,1.627574,-4.154215,2.191451,-1.307063,4.141615,-2.301040,-0.090856,0.420655,-0.063706,73.365712,188.721804,1182.882865,15.316548,0
0.083333,-128.087552,184.841561,-27.360550,-0.214918,3.124718,-4.085829,0.783454,-2.728847,4.048611,-0.771902,-0.120025,0.416383,-0.093440,129.713627,188.797208,1182.133521,16.114110,0
0.084375,-165.998802,149.406865,41.648794,1.124939,3.873291,-3.253125,-0.757016,-3.541295,3.359531,0.711816,-0.152841,0.417141,-0.078573,163.083301,188.797383,1181.681113,16.624629,0
0.085417,-189.412247,75.988807,93.998195,2.059460,4.445729,-1.841150,-2.566216,-4.030940,1.985597,2.521043,-0.203887,0.422102,-0.112023,188.223140,188.797356,1181.458587,17.985925,0
0.086458,-176.552932,8.443254,149.349060,3.174131,4.086120,-0.594106,-3.262644,-3.762542,0.725807,3.323462,-0.200241,0.427545,-0.052556,168.509813,188.721889,1181.099548,19.527556,0
0.087500,-130.573536,-54.051945,185.561042,3.894726,3.194438,1.228187,-4.012062,-2.866673,-1.045510,4.023686,-0.236703,0.427683,-0.056273,123.712940,188.797249,1180.371805,20.747876,0
0.088542,-57.609918,-108.125971,192.766983,3.973542,1.708302,2.789004,-3.962858,-1.521056,-2.668865,4.148591,-0.240349,0.432437,-0.045123,52.064962,188.797351,1179.609259,21.705566,0
0.089583,7.782750,-163.468459,162.193377,3.444354,0.163454,3.798707,-3.353483,-0.008597,-3.649642,3.467292,-0.196595,0.424651,-0.082290,-13.447229,188.797246,1178.404367,22.370065,0
0.090625,70.418236,-181.755439,109.309302,2.363462,-1.641927,4.144661,-2.024970,1.674331,-4.101983,2.161469,-0.182010,0.421757,-0.086006,-72.699792,188.797322,1177.662064,22.369358,0
0.091667,128.307754,-184.644712,28.658657,0.809678,-3.106046,4.056161,-0.552629,3.096115,-4.034343,0.651256,-0.138256,0.417623,-0.071140,-129.182806,188.721876,1176.195314,22.876597,0
0.092708,166.603201,-149.679817,-41.286366,-0.563957,-3.843610,3.291844,0.912142,3.919444,-3.353718,-0.817322,-0.123671,0.420448,-0.048839,-162.912747,188.797402,1175.553318,24.115888,0
0.093750,189.157851,-75.944644,-93.818042,-1.588553,-4.478429,1.847687,2.762977,4.347430,-1.882553,-2.656830,-0.105440,0.413627,-0.052556,-187.647286,188.721934,1173.559424,24.555175,0
0.094792,176.716634,-7.518215,-148.767902,-2.646927,-4.045432,0.592597,3.417771,4.126183,-0.639672,-3.463034,-0.087210,0.406255,-0.063706,-167.945218,188.797326,1173.274507,24.820432,0
0.095833,129.776744,55.188394,-185.222917,-3.367522,-3.142741,-1.177401,4.186113,3.252076,1.068233,-4.216248,-0.054394,0.386067,-0.056273,-122.011254,188.797342,1172.612440,25.374678,0
0.096875,55.739633,108.264095,-192.829863,-3.468856,-1.722655,-2.693967,4.155834,1.833919,2.716953,-4.284378,-0.043455,0.445045,-0.067423,-49.957976,188.797293,1171.832640,25.606502,0
0.097917,-9.472236,163.289467,-161.916011,-2.917150,-0.137443,-3.747920,3.557814,0.375865,3.680819,-3.610649,-0.058040,0.432092,-0.082290,14.585999,188.646554,1171.421684,25.620404,0
0.098958,-70.740431,181.470743,-108.606627,-1.836257,1.579870,-4.162261,2.214161,-1.296182,4.120478,-2.350245,-0.112733,0.419828,-0.108307,73.118029,188.797391,1171.541585,26.118418,0
0.100000,-128.415250,184.313035,-28.344835,-0.237437,3.073346,-4.045602,0.749390,-2.696204,4.090886,-0.783257,-0.101794,0.416865,-0.063706,129.972568,188.797405,1171.734537,26.499193,0
0.101042,-166.428199,149.712235,40.883238,1.068642,3.862282,-3.269216,-0.753231,-3.505025,3.342621,0.711816,-0.160133,0.425616,-0.063706,163.511117,188.797255,1171.318486,26.324735,0
0.102083,-189.186248,77.175053,94.071105,2.115757,4.460407,-1.889422,-2.562431,-3.958400,1.892593,2.509688,-0.189302,0.414661,-0.071140,187.986715,188.646498,1170.018240,25.211011,0
0.103125,-176.654631,9.265405,149.458425,3.140353,4.053095,-0.590083,-3.247505,-3.737153,0.696214,3.331032,-0.207533,0.428578,-0.052556,168.408488,188.797179,1169.869106,24.494983,0
0.104167,-130.788234,-54.087180,185.463828,3.883467,3.150405,1.228187,-3.985568,-2.877554,-1.049738,3.989621,-0.192949,0.432643,-0.063706,123.397706,188.797210,1169.594725,24.588259,0
0.105208,-57.169221,-108.196441,192.548253,3.996060,1.678946,2.776936,-3.974213,-1.521056,-2.698457,4.072891,-0.225764,0.429543,-0.067423,51.164296,188.797211,1168.842178,24.292842,0
0.106250,8.539845,-163.374499,162.084012,3.444354,0.141437,3.786639,-3.361053,-0.012224,-3.594685,3.433227,-0.218472,0.432712,-0.086006,-14.111471,188.721915,1167.890367,24.610204,0
0.107292,70.904133,-181.403089,108.665263,2.374721,-1.597893,4.132593,-1.949271,1.656196,-4.047026,2.119834,-0.163779,0.394886,-0.056273,-73.037542,188.797360,1166.757248,24.702037,0
0.108333,128.126955,-184.762162,28.063225,0.787160,-3.054674,4.040070,-0.545059,3.110623,-3.987841,0.632331,-0.152841,0.411147,-0.048839,-129.081482,188.797355,1166.289479,24.319268,0
0.109375,166.196403,-149.597602,-41.687371,-0.541438,-3.821594,3.255639,0.885648,3.846904,-3.277623,-0.794612,-0.123671,0.417003,-0.100873,-162.676322,188.797335,1164.695399,24.394786,0
0.110417,188.728454,-75.862428,-93.878801,-1.566034,-4.412379,1.859755,2.645644,4.325668,-1.912145,-2.596270,-0.101794,0.402465,-0.059989,-187.298278,188.646500,1164.099152,25.317998,0
