1-Time,2-VGERA,3-VGERB,4-VGERC,5-VN,6-IGERAN,7-IGERBN,8-IGERCN,9-IGERAT,10-IGERBT,11-IGERCT,12-IN,13-IFD,14-IFAULT,15-VFAULT,16-Speed (rad/s),17-Active Power,18-Reactive Power,19-FAULT 
0.000000,74.942353,72.041323,-202.128220,-0.906042,-0.137445,-5.525762,5.132695,0.580898,5.473720,-5.000229,-0.018850,0.305089,-0.054364,-139.992838,188.495613,1511.932377,-893.002127,0
0.001042,22.460603,151.763208,-177.568561,-0.498882,2.326448,-6.414725,3.479699,-1.922288,6.480926,-3.473913,-0.084604,0.314496,-0.028224,-134.790239,188.495638,1512.644936,-893.261787,0
0.002083,-24.576747,192.596664,-116.877273,0.643428,4.414011,-5.855155,0.871471,-3.954978,5.943750,-1.015441,-0.117481,0.318416,-0.028224,-90.409800,188.646341,1513.822432,-893.668926,0
0.003125,-95.535430,199.555265,-55.558144,1.819668,6.306310,-4.922538,-1.721831,-5.917828,5.091821,1.531978,-0.157664,0.305024,-0.002084,-45.011461,188.495577,1514.559332,-894.626506,0
0.004167,-157.488168,153.394130,-3.558144,2.792328,6.711041,-2.934277,-3.893488,-6.318485,3.144555,3.641781,-0.238030,0.312340,-0.046895,-7.156891,188.495712,1515.693462,-895.734497,0
0.005208,-204.071817,89.776090,47.272349,3.787608,6.206902,-0.378509,-5.650964,-5.899449,0.630736,5.438493,-0.245336,0.317566,-0.058098,25.020058,188.495602,1517.249338,-897.168454,0
0.006250,-179.583359,35.738206,125.592425,5.280528,4.843595,1.982798,-6.442014,-4.546773,-1.706821,6.164294,-0.274560,0.331611,-0.039427,82.531407,188.646507,1517.805346,-898.373466,0
0.007292,-133.646232,-13.684772,190.309281,6.445458,3.086207,3.927404,-6.374849,-2.804468,-3.733824,6.263914,-0.274560,0.341933,-0.035692,131.220956,188.495642,1519.045502,-899.215961,0
0.008333,-75.209669,-71.467736,202.139773,6.671658,0.267286,5.737078,-5.296484,0.003805,-5.513222,5.136076,-0.259948,0.320375,-0.024490,145.075705,188.495586,1519.856099,-900.404222,0
0.009375,-22.398987,-151.443320,177.592425,6.241878,-2.178855,6.622073,-3.583785,2.510667,-6.566592,3.673801,-0.190541,0.330305,0.005384,137.803375,188.495626,1521.219287,-901.915636,0
0.010417,24.354800,-192.433828,116.938069,5.088258,-4.259318,6.006942,-0.990483,4.502923,-5.953875,1.186867,-0.150358,0.318481,-0.017021,95.402186,188.570986,1522.174733,-902.689843,0
0.011458,95.052606,-199.428671,56.062121,3.979878,-6.133865,5.078294,1.561774,6.469450,-5.114536,-1.399688,-0.088257,0.309532,-0.065566,50.671137,188.495613,1522.424716,-903.961897,0
0.012500,157.073399,-153.533317,3.939015,2.984598,-6.499544,3.129719,3.725969,6.855404,-3.137894,-3.441892,-0.040768,0.315280,-0.065566,11.606398,188.571056,1523.025460,-904.153292,0
0.013542,203.588993,-89.866953,-46.756061,1.955388,-6.094812,0.601731,5.535683,6.421665,-0.657648,-5.238605,-0.037115,0.319918,-0.046895,-19.914571,188.495519,1523.283019,-904.048268,0
0.014583,179.418125,-35.623694,-125.211553,0.485088,-4.720855,-1.775451,6.341659,5.102071,1.684106,-6.042678,-0.015197,0.324360,-0.050629,-77.256270,188.571069,1523.840850,-905.149362,0
0.015625,133.152065,13.750961,-190.383902,-0.725082,-2.963467,-3.708151,6.252106,3.323008,3.711109,-6.117393,0.024986,0.344807,-0.043161,-127.122059,188.495541,1523.907975,-905.720339,0
0.016667,75.044435,71.606410,-202.362122,-0.917352,-0.151647,-5.565448,5.158815,0.595601,5.482113,-5.007345,-0.029809,0.318873,-0.024490,-141.033358,188.495595,1524.054102,-905.841005,0
0.017708,22.267780,151.654480,-177.531629,-0.510192,2.358400,-6.414725,3.513281,-1.914936,6.506106,-3.481028,-0.055380,0.318808,-0.024490,-135.548009,188.495562,1524.351828,-905.818785,0
0.018750,-24.247814,192.427531,-116.938826,0.666048,4.414011,-5.839281,0.882665,-3.966005,5.939553,-1.026114,-0.113828,0.324818,-0.031958,-92.321190,188.646386,1524.273252,-905.946267,0
0.019792,-95.183812,199.784802,-55.902841,1.819668,6.288558,-4.910632,-1.703174,-5.895774,5.100214,1.539093,-0.186888,0.307833,-0.069301,-45.633511,188.495524,1524.100364,-906.061622,0
0.020833,-156.977755,153.913609,-3.915152,2.781018,6.693290,-2.918403,-3.848712,-6.314809,3.173932,3.652454,-0.219765,0.312406,-0.017021,-7.428331,188.495830,1524.167060,-906.299338,0
0.021875,-204.173900,90.416378,46.816856,3.764988,6.231754,-0.338823,-5.636038,-5.899449,0.647523,5.431378,-0.216112,0.318808,-0.061832,24.997438,188.495519,1524.171834,-906.429754,0
0.022917,-179.957661,36.281847,125.149243,5.235288,4.836494,1.966924,-6.442014,-4.612937,-1.698428,6.199873,-0.263601,0.329456,-0.046895,82.293897,188.570977,1525.101737,-906.792057,0
0.023958,-133.578177,-12.887432,190.444698,6.456768,3.103959,3.919467,-6.363655,-2.830198,-3.687660,6.260356,-0.267254,0.315149,-0.020755,131.797766,188.495611,1525.066356,-906.310953,0
0.025000,-75.504574,-70.875772,202.189016,6.671658,0.285038,5.752953,-5.277827,0.011157,-5.546795,5.136076,-0.223418,0.321943,-0.031958,147.213295,188.495546,1525.039984,-906.964896,0
0.026042,-22.489727,-151.588291,177.493940,6.241878,-2.214358,6.618104,-3.613636,2.503315,-6.541412,3.680917,-0.186888,0.316391,-0.073035,138.956995,188.495693,1524.920799,-906.672133,0
0.027083,24.127950,-192.373423,116.913447,5.144808,-4.262869,6.074408,-1.050185,4.477193,-5.962268,1.165520,-0.154011,0.329064,-0.028224,95.164676,188.503640,1524.678615,-906.645952,0
0.028125,94.859783,-199.730694,56.123674,3.991188,-6.172918,5.153697,1.558043,6.480477,-5.181683,-1.342762,-0.099216,0.309205,-0.046895,51.180087,188.496554,1525.795591,-906.150464,0
0.029167,156.937289,-153.787016,4.222159,2.995908,-6.524396,3.125750,3.733432,6.903188,-3.158877,-3.438334,-0.033462,0.313712,-0.024490,12.171898,188.495126,1526.397167,-906.444441,0
0.030208,203.838528,-90.313946,-46.497538,2.000628,-6.087712,0.605700,5.539415,6.480477,-0.682828,-5.267067,0.003068,0.321225,-0.031958,-18.851431,188.495175,1527.390182,-906.883534,0
0.031250,179.452152,-36.336467,-125.223864,0.496398,-4.745707,-1.838948,6.378973,5.164558,1.700893,-6.078256,-0.022503,0.330436,-0.073035,-77.799150,188.570658,1528.261798,-907.477784,0
0.032292,133.526368,13.183158,-190.617804,-0.679842,-2.956366,-3.767680,6.311808,3.418577,3.744683,-6.131624,0.024986,0.334355,-0.043161,-126.307739,188.495329,1529.356309,-907.620651,0
0.033333,75.282628,71.388954,-202.312879,-0.928662,-0.126795,-5.617040,5.199860,0.584574,5.545064,-5.064270,-0.029809,0.301431,-0.046895,-140.377378,188.495188,1530.246228,-908.485864,0
0.034375,22.245095,151.424943,-177.691667,-0.464952,2.379702,-6.466317,3.528206,-1.962721,6.564860,-3.548627,-0.048074,0.316587,-0.024490,-134.948579,188.495340,1531.391417,-909.180763,0
0.035417,-23.952909,193.116143,-116.397159,0.688668,4.474366,-5.918652,0.934904,-4.043196,6.023487,-1.008325,-0.084604,0.325928,-0.050629,-90.251460,188.495287,1532.539067,-910.369623,0
0.036460,-94.854880,199.736478,-55.816667,1.774428,6.363114,-4.930475,-1.699443,-5.998695,5.217722,1.567556,-0.194194,0.306592,-0.046895,-45.656131,188.495454,1534.315509,-911.436424,0
0.037503,-158.089320,152.935056,-4.149053,2.758398,6.764295,-2.966026,-3.923339,-6.362594,3.161342,3.698706,-0.190541,0.315215,-0.054364,-7.914661,188.507193,1534.867447,-912.041103,0
0.038541,-204.389407,91.117070,46.779924,3.708438,6.324061,-0.374541,-5.729322,-6.017073,0.702080,5.506093,-0.245336,0.322009,-0.028224,24.330148,188.496011,1537.003114,-912.859735,0
0.039583,-179.764839,37.187915,125.629356,5.201358,4.967855,2.046296,-6.561418,-4.668073,-1.711018,6.278145,-0.256295,0.324948,-0.058098,82.361757,188.493380,1538.252163,-913.763772,0
0.040625,-134.111274,-12.621653,190.641667,6.456768,3.164313,3.971059,-6.412163,-2.892686,-3.788381,6.345744,-0.267254,0.341345,-0.035692,131.164406,188.490722,1540.016458,-915.182719,0
0.041666,-75.788137,-70.863691,202.373675,6.626418,0.302789,5.852167,-5.326334,0.022184,-5.592959,5.235696,-0.256295,0.321094,-0.017021,145.550725,188.496078,1541.458061,-915.914228,0
0.042708,-22.569124,-151.092974,177.801705,6.253188,-2.228559,6.725256,-3.665875,2.529046,-6.600165,3.659570,-0.194194,0.304110,-0.058098,137.961715,188.496105,1541.583253,-916.865075,0
0.043750,23.594853,-193.098278,116.248675,5.076948,-4.333874,6.102188,-1.042722,4.605844,-6.016825,1.176193,-0.146705,0.306984,0.012853,95.198606,188.420678,1542.720733,-918.328237,0
0.044791,94.360713,-199.706532,55.926705,3.979878,-6.187120,5.185445,1.584163,6.528262,-5.148109,-1.417477,-0.106522,0.311230,-0.054364,51.033057,188.494004,1542.140871,-919.635805,0
0.045833,157.028029,-153.654126,4.751515,3.007218,-6.559899,3.153530,3.778208,6.939946,-3.221828,-3.491702,-0.055380,0.316587,-0.050629,12.590368,188.492933,1543.013688,-920.232465,0
0.046880,203.804501,-90.265623,-47.002273,2.000628,-6.126765,0.589825,5.576728,6.491504,-0.670238,-5.309762,0.014027,0.324099,-0.043161,-19.835401,188.496085,1543.393842,-920.699213,0
0.047917,179.599605,-37.000917,-125.285417,0.530328,-4.784760,-1.803231,6.393898,5.186613,1.717680,-6.092488,0.014027,0.331677,-0.043161,-77.109240,188.496215,1543.705104,-921.239364,0
0.048958,133.855300,12.615356,-190.728599,-0.634602,-2.956366,-3.763711,6.311808,3.392847,3.761469,-6.142298,-0.007891,0.342717,-0.024490,-127.144679,188.496092,1543.577647,-921.966749,0
0.050000,75.883780,70.917799,-202.522160,-0.872112,-0.148096,-5.549574,5.218517,0.569871,5.566047,-5.050039,-0.026156,0.339254,-0.020755,-141.304798,188.496056,1543.365683,-922.711246,0
0.051042,22.812220,151.292053,-177.802463,-0.464952,2.354850,-6.498065,3.569251,-1.966397,6.577450,-3.552185,-0.059033,0.328737,-0.028224,-135.728969,188.496009,1543.406561,-923.092633,0
0.052083,-23.623977,192.874525,-116.495644,0.677358,4.499218,-5.910715,0.927441,-3.958653,6.023487,-1.015441,-0.091910,0.298557,-0.061832,-91.959270,188.292125,1543.056430,-922.222222,0
0.053125,-94.299097,200.050582,-55.816667,1.808358,6.348913,-4.930475,-1.699443,-5.950910,5.133788,1.581788,-0.135746,0.310315,-0.024490,-45.803161,188.444673,1541.600924,-922.254959,0
0.054167,-156.841645,153.986095,-4.604545,2.747088,6.742994,-2.973963,-3.871100,-6.384648,3.178129,3.656012,-0.245336,0.313451,-0.024490,-8.163481,188.520463,1541.565493,-922.328653,0
0.055208,-204.400750,91.310365,46.250568,3.731058,6.277907,-0.406289,-5.677083,-5.961937,0.693687,5.466956,-0.238030,0.322792,-0.058098,24.420628,188.507911,1540.552882,-922.079396,0
0.056250,-180.003031,37.743636,124.804546,5.223978,4.911050,1.990735,-6.486791,-4.646019,-1.690035,6.246125,-0.281866,0.328672,-0.039427,82.056387,188.287221,1539.799373,-921.976696,0
0.057292,-134.202014,-11.775989,190.690910,6.468078,3.096858,3.951216,-6.419626,-2.852253,-3.733824,6.345744,-0.256295,0.332134,-0.058098,131.865626,188.504876,1539.173364,-921.929554,0
0.058333,-76.820304,-70.199241,202.385985,6.660348,0.253085,5.800576,-5.296484,0.018508,-5.521615,5.182328,-0.245336,0.322074,-0.028224,147.371635,188.502261,1537.948044,-921.746590,0
0.059375,-23.385784,-151.250026,177.826326,6.219258,-2.246311,6.709382,-3.628561,2.543749,-6.612755,3.648897,-0.223418,0.312471,-0.065566,139.115335,188.495674,1537.877985,-922.369473,0
0.060417,23.447400,-192.578799,116.716478,5.054328,-4.294821,6.141874,-1.024065,4.580114,-6.004235,1.215329,-0.139399,0.307376,-0.035692,94.802756,188.345013,1537.784944,-921.899810,0
0.061469,95.007236,-199.307862,55.237311,3.979878,-6.194220,5.129885,1.640133,6.535613,-5.122929,-1.435266,-0.110175,0.306004,-0.031958,50.693757,188.495736,1537.641403,-921.716585,0
0.062508,157.345619,-152.530602,4.283712,3.018528,-6.602502,3.133687,3.804328,6.954649,-3.179861,-3.541512,-0.037115,0.314953,-0.043161,12.590368,188.495676,1537.380101,-922.082393,0
0.063554,203.815843,-89.601173,-47.236174,1.978008,-6.133865,0.550139,5.614042,6.531938,-0.582108,-5.359571,0.039598,0.321290,-0.028224,-19.371691,188.495835,1537.490592,-923.191054,0
0.064594,179.134562,-36.759299,-126.331819,0.496398,-4.724405,-1.882602,6.475989,5.160883,1.772237,-6.124509,0.014027,0.335531,-0.035692,-78.749190,188.344862,1537.605335,-923.841466,0
0.065630,134.014095,12.591194,-190.802463,-0.713772,-2.931514,-3.771648,6.330465,3.356089,3.786649,-6.202781,-0.018850,0.341541,-0.054364,-126.364289,188.495754,1538.019588,-924.723079,0
0.066674,75.804383,71.437278,-202.362122,-0.883422,-0.094842,-5.660694,5.225980,0.547816,5.612211,-5.060712,-0.026156,0.331285,-0.035692,-140.750608,188.420260,1538.412794,-925.224131,0
0.067712,22.823563,151.328296,-177.753220,-0.487572,2.401003,-6.494097,3.539400,-2.003154,6.615220,-3.555743,-0.077298,0.324491,-0.054364,-134.914649,188.495544,1538.739150,-925.868102,0
0.068750,-23.306387,193.309437,-116.569508,0.643428,4.509869,-5.958338,0.890128,-4.065250,6.027683,-1.033230,-0.113828,0.336249,-0.043161,-90.070500,188.344961,1539.307644,-927.076757,0
0.069791,-93.788685,200.026420,-55.902841,1.808358,6.363114,-5.009847,-1.729294,-5.987667,5.179951,1.556883,-0.179582,0.301562,-0.017021,-45.407311,188.495649,1539.986334,-927.187428,0
0.070833,-156.943728,153.442454,-5.133902,2.792328,6.796248,-2.969994,-3.915877,-6.454488,3.182326,3.727169,-0.223418,0.311165,-0.043161,-8.581951,188.420260,1540.516402,-928.389331,0
0.071875,-204.264640,90.887533,45.696591,3.731058,6.302759,-0.414226,-5.744248,-6.020749,0.685293,5.548787,-0.227071,0.322531,-0.050629,23.742028,188.495774,1541.220451,-929.388410,0
0.072916,-179.878264,38.299358,124.632197,5.190048,4.957204,2.026453,-6.565149,-4.653370,-1.769772,6.303050,-0.256295,0.329390,-0.020755,81.920667,188.344809,1541.375061,-930.925585,0
0.073958,-134.882564,-11.268591,190.198485,6.479388,3.118160,3.959153,-6.445745,-2.900037,-3.792578,6.331513,-0.285519,0.340626,-0.058098,131.107856,188.495731,1541.554188,-931.588447,0
0.075000,-77.239977,-69.921380,202.484470,6.694278,0.249535,5.832324,-5.292752,-0.007222,-5.622336,5.217907,-0.259948,0.330827,-0.035692,145.392385,188.420309,1542.655265,-932.597012,0
0.076041,-23.907539,-150.718466,178.010985,6.264498,-2.264062,6.697476,-3.632293,2.584182,-6.642132,3.659570,-0.234377,0.322597,-0.035692,138.029575,188.495711,1542.726967,-933.500395,0
0.077083,22.959673,-192.892902,116.839584,5.088258,-4.372927,6.145843,-1.016602,4.613196,-6.079775,1.161962,-0.161317,0.313386,-0.043161,95.108126,188.420244,1543.207333,-934.762206,0
0.078125,93.271833,-199.875665,56.271402,3.957258,-6.190670,5.133854,1.614014,6.579722,-5.110339,-1.406804,-0.088257,0.302542,-0.058098,50.603277,188.420211,1542.918528,-935.735528,0
0.079166,156.302109,-153.497074,5.243939,3.007218,-6.570550,3.153530,3.796865,6.947297,-3.179861,-3.541512,-0.059033,0.310119,-0.035692,12.658228,188.420430,1542.379247,-936.370193,0
0.080208,203.861213,-90.470998,-45.167993,2.068488,-6.140966,0.601731,5.572997,6.539289,-0.674435,-5.306204,-0.037115,0.317828,-0.028224,-18.738331,188.495689,1542.231164,-935.750661,0
0.081250,179.781085,-37.798256,-124.078978,0.552948,-4.745707,-1.807199,6.375242,5.135152,1.713483,-6.060467,-0.011544,0.327104,-0.039427,-76.543740,188.420330,1540.796862,-935.369589,0
0.082291,134.615248,11.238133,-190.174622,-0.702462,-2.963467,-3.759743,6.255838,3.392847,3.727896,-6.103161,-0.040768,0.335727,-0.039427,-127.020269,188.423235,1539.491369,-934.600993,0
0.083333,77.312935,69.915084,-202.522160,-0.951282,-0.094842,-5.652757,5.188666,0.551492,5.540867,-4.989555,-0.018850,0.320049,-0.043161,-140.999428,188.420831,1537.816045,-934.821166,0
0.084375,24.003183,151.026273,-178.011743,-0.487572,2.393903,-6.450442,3.483430,-1.944342,6.598434,-3.495260,-0.073645,0.308552,-0.058098,-135.774209,188.495921,1536.876066,-934.884804,0
0.085416,-22.750604,192.475855,-117.418940,0.643428,4.470816,-5.871029,0.875202,-3.947626,5.947946,-0.990536,-0.124787,0.300059,-0.013287,-92.219400,188.420604,1534.896135,-934.126623,0
0.086458,-93.300957,200.171391,-56.296780,1.830978,6.331161,-4.898726,-1.770339,-5.950910,5.108608,1.567556,-0.135746,0.298034,-0.043161,-45.463861,188.420631,1533.613802,-934.293574,0
0.087500,-155.900218,154.118985,-5.121591,2.781018,6.668438,-2.954120,-3.871100,-6.344215,3.119375,3.673801,-0.154011,0.306984,-0.065566,-8.073001,188.420850,1531.626269,-933.638223,0
0.088541,-204.139872,90.464701,45.154924,3.753678,6.260156,-0.410258,-5.650964,-5.910477,0.651720,5.452725,-0.238030,0.314888,-0.013287,23.968228,188.496174,1529.485342,-932.635460,0
0.089583,-180.286594,37.936931,123.204167,5.212668,4.889749,1.998673,-6.460671,-4.609261,-1.711018,6.231893,-0.245336,0.323642,-0.039427,81.321237,188.345321,1528.197314,-931.572407,0
0.090625,-134.678399,-10.616222,189.767614,6.456768,3.100408,3.947247,-6.408432,-2.841225,-3.775791,6.256798,-0.285519,0.343370,-0.039427,131.548946,188.420690,1526.461923,-931.520657,0
0.091668,-77.965897,-69.438144,202.422917,6.649038,0.174979,5.748984,-5.233050,-0.014573,-5.504828,5.143192,-0.267254,0.341410,-0.065566,147.088885,188.420839,1524.775766,-930.654052,0
0.092708,-24.837624,-150.827194,177.924811,6.241878,-2.242760,6.657790,-3.568859,2.547424,-6.524625,3.620434,-0.205153,0.321094,-0.046895,139.149265,188.496328,1523.233549,-929.925856,0
0.093750,22.562685,-191.914349,117.812122,5.122188,-4.326774,6.046628,-1.009139,4.580114,-5.928694,1.137057,-0.154011,0.316979,-0.061832,95.311706,188.345308,1520.832843,-929.717706,0
0.094792,93.010956,-200.020635,56.714584,4.002498,-6.201321,5.114011,1.628939,6.546641,-5.122929,-1.417477,-0.080951,0.298296,-0.046895,50.897337,188.420707,1520.617232,-929.764833,0
0.095833,155.417394,-154.149443,5.219318,2.995908,-6.538597,3.105907,3.767014,6.903188,-3.116910,-3.495260,-0.033462,0.305743,-0.024490,12.533818,188.420678,1519.334140,-929.563779,0
0.096875,203.713761,-89.987762,-44.626326,2.079798,-6.101913,0.585857,5.546877,6.473126,-0.653452,-5.284857,-0.015197,0.313974,-0.028224,-17.776981,188.496214,1518.093857,-929.309095,0
0.097917,179.849140,-37.363344,-123.340341,0.530328,-4.738606,-1.823074,6.352853,5.113098,1.658926,-6.053352,0.006721,0.313255,-0.031958,-76.713390,188.345471,1517.735225,-928.601309,0
0.098958,134.660618,11.250214,-189.891478,-0.679842,-2.920864,-3.751805,6.285689,3.370792,3.740486,-6.110277,-0.015197,0.329129,0.001650,-126.183329,188.345399,1517.531945,-928.912941,0
0.100000,77.812005,69.661385,-202.571402,-0.917352,-0.133895,-5.597197,5.136427,0.595601,5.519884,-5.014460,-0.004238,0.330109,-0.043161,-139.992838,188.420878,1517.903407,-928.550555,0
0.101042,24.729103,150.724251,-178.184091,-0.498882,2.354850,-6.494097,3.472236,-1.988451,6.585844,-3.523723,-0.040768,0.322858,-0.039427,-135.197399,188.496101,1517.836616,-929.186890,0
0.102083,-22.444357,192.355046,-117.862122,0.654738,4.474366,-5.902778,0.893859,-4.028493,6.006700,-1.001209,-0.106522,0.319592,-0.035692,-90.783030,188.345393,1518.690880,-930.416219,0
0.103125,-92.983367,200.219714,-56.776894,1.774428,6.366664,-4.910632,-1.774070,-5.976640,5.112804,1.624482,-0.161317,0.299863,-0.013287,-45.475171,188.345386,1518.501276,-931.514439,0
0.104167,-155.979615,154.263955,-5.712500,2.735778,6.735893,-2.969994,-3.938265,-6.351567,3.110982,3.680917,-0.219765,0.305024,-0.035692,-8.333131,188.420799,1518.414616,-931.929312,0
0.105208,-204.083160,90.404297,44.662500,3.708438,6.320511,-0.346761,-5.684546,-5.939883,0.601360,5.474072,-0.274560,0.315607,-0.046895,23.334868,188.496130,1518.293751,-932.748499,0
0.106250,-180.059744,37.610746,122.982576,5.212668,4.886198,2.022484,-6.475596,-4.623964,-1.740395,6.228335,-0.270907,0.320441,-0.061832,81.015867,188.345420,1518.217108,-932.834354,0
0.107292,-134.848537,-10.833679,189.324432,6.445458,3.103959,3.963122,-6.430820,-2.852253,-3.754807,6.320839,-0.223418,0.340300,-0.084238,130.972136,188.269971,1518.890597,-932.774784,0
0.108333,-78.283487,-68.979070,202.459849,6.660348,0.253085,5.780733,-5.262901,0.014833,-5.530009,5.210791,-0.205153,0.327104,-0.043161,144.906055,188.420670,1519.515850,-933.548140,0
0.109375,-25.155214,-150.331877,178.232576,6.241878,-2.249861,6.665727,-3.639755,2.554776,-6.595969,3.623992,-0.194194,0.310838,-0.058098,138.176605,188.496183,1520.020295,-934.365688,0
0.110417,22.199725,-191.998915,118.082955,5.110878,-4.312573,6.074408,-0.990483,4.558060,-6.025218,1.186867,-0.172276,0.301170,-0.035692,95.945066,188.345332,1521.406200,-934.227912,0
