1-Time,2-VGERA,3-VGERB,4-VGERC,5-VN,6-IGERAN,7-IGERBN,8-IGERCN,9-IGERAT,10-IGERBT,11-IGERCT,12-IN,13-IFD,14-IFAULT,15-VFAULT,16-Speed (rad/s),17-FAULT 
0.000000,162.109469,-154.415684,-26.376072,2.441718,-4.096006,3.783098,0.639203,4.377948,-3.724936,-0.642601,-0.091910,0.400137,-0.046895,-144.301948,188.517739,0
0.001042,180.144045,-91.371490,-79.593345,1.423818,-4.486536,2.339169,2.523731,4.716117,-2.310818,-2.355704,-0.051727,0.400987,-0.054364,-176.094358,188.515397,0
0.002095,185.259512,-17.470672,-136.568799,0.236268,-4.223816,1.001915,3.440529,4.558060,-0.989364,-3.482545,-0.055380,0.419473,-0.009553,-195.434457,188.513607,0
0.003134,139.946223,46.958718,-168.643344,-0.419712,-3.311394,-0.666795,4.145758,3.558256,0.646339,-4.080228,-0.062686,0.405429,-0.046895,-164.105758,188.519996,0
0.004170,65.584790,96.387733,-189.549707,-0.838182,-1.976490,-2.434562,4.514044,2.282770,2.487513,-4.510407,-0.011544,0.394062,-0.050629,-103.257959,188.503031,0
0.005211,4.675562,154.281838,-164.223344,-0.295302,-0.371764,-3.169861,3.601165,0.698522,3.216730,-3.573911,-0.062686,0.408630,-0.020755,-49.354500,188.505521,0
0.006253,-56.891531,183.169694,-112.861526,0.677358,1.474381,-3.950878,2.367014,-1.165083,3.986236,-2.500366,-0.095563,0.382826,-0.020755,14.546998,188.651569,0
0.007295,-110.802436,182.021283,-38.596072,2.147658,3.103959,-3.985167,0.737151,-2.793441,4.022495,-0.871014,-0.095563,0.391449,-0.028224,85.573797,188.498244,0
0.008337,-161.889058,154.577820,26.663927,3.414378,4.236497,-3.585133,-0.771255,-4.021141,3.696160,0.727882,-0.121134,0.398243,-0.046895,147.914515,188.571156,0
0.009384,-181.420844,90.112912,80.436654,4.466208,4.676732,-2.106915,-2.698881,-4.381365,2.249812,2.479054,-0.161317,0.405494,-0.050629,182.602284,188.495740,0
0.010426,-185.549514,18.248451,136.726653,5.619828,4.385609,-0.777281,-3.572581,-4.226983,0.980732,3.533564,-0.197847,0.414182,-0.039427,200.924484,188.646585,0
0.011471,-140.304279,-45.967832,169.392107,6.230568,3.395081,0.872380,-4.266056,-3.197773,-0.659000,4.112212,-0.205153,0.409609,-0.039427,169.652335,188.495698,0
0.012511,-65.897476,-96.592615,189.293925,6.649038,2.085029,2.632527,-4.571655,-1.892882,-2.520317,4.523357,-0.201500,0.416273,-0.013287,108.917636,188.571192,0
0.013546,-5.169728,-154.486720,164.239380,6.196638,0.466102,3.409734,-3.686201,-0.297606,-3.201189,3.632543,-0.175929,0.396936,-0.020755,54.143307,188.495752,0
0.014587,56.601529,-183.007558,113.303017,5.212668,-1.333889,4.095505,-2.487312,1.543945,-4.019040,2.501895,-0.164970,0.401509,-0.031958,-11.997571,188.646552,0
0.015628,110.875394,-182.060415,38.694836,3.719748,-3.016721,4.171702,-0.837860,3.172302,-4.091559,0.876351,-0.146705,0.395434,-0.017021,-79.031940,188.495711,0
0.016667,161.996044,-154.344648,-26.269709,2.430408,-4.127958,3.695472,0.666629,4.366921,-3.712849,-0.608339,-0.102869,0.402228,-0.043161,-144.007888,188.571051,0
0.017708,180.575060,-90.590097,-79.711527,1.367268,-4.472335,2.293451,2.551157,4.694062,-2.258444,-2.382352,-0.069992,0.395107,-0.028224,-177.214048,188.495781,0
0.018750,185.282197,-19.305761,-135.906981,0.224958,-4.234467,0.963816,3.467955,4.524978,-0.949075,-3.444476,-0.029809,0.404906,0.001650,-196.226157,188.646527,0
0.019791,141.239268,45.573521,-167.827889,-0.419712,-3.247489,-0.674415,4.137922,3.528850,0.602022,-4.038352,-0.022503,0.405429,-0.013287,-164.626018,188.495665,0
0.020833,66.798437,96.044394,-189.218798,-0.792942,-1.955188,-2.419322,4.486619,2.242337,2.423051,-4.518021,-0.015197,0.397916,-0.024490,-104.875289,188.571082,0
0.021875,5.673702,153.997695,-164.199708,-0.340542,-0.385965,-3.120333,3.530642,0.742631,3.132125,-3.547262,-0.029809,0.403795,-0.024490,-49.501530,188.495638,0
0.022916,-56.210981,183.359122,-113.298799,0.654738,1.449529,-3.882301,2.382686,-1.150380,3.941918,-2.485138,-0.040768,0.396544,-0.054364,13.698748,188.726571,0
0.023958,-110.654983,181.891051,-39.340618,2.125038,3.093308,-3.939449,0.686218,-2.716250,3.994293,-0.867208,-0.110175,0.393474,-0.035692,83.504067,188.571679,0
0.025000,-162.422155,154.554142,25.694836,3.414378,4.222296,-3.516556,-0.830024,-3.969681,3.680045,0.701234,-0.143052,0.400464,-0.005818,147.631765,188.571708,0
0.026041,-180.638211,91.178448,79.857563,4.477518,4.566673,-2.061197,-2.620522,-4.304174,2.205495,2.444792,-0.190541,0.395434,-0.017021,181.833204,188.496205,0
0.027083,-185.560856,19.515255,136.265744,5.574588,4.300402,-0.773471,-3.533402,-4.142441,0.920300,3.480267,-0.175929,0.404449,-0.028224,201.342954,188.722349,0
0.028125,-141.710749,-45.304832,167.607562,6.253188,3.348928,0.864760,-4.191615,-3.109555,-0.598568,3.963743,-0.205153,0.409217,-0.035692,169.324345,188.571641,0
0.029166,-67.122466,-95.941454,189.447562,6.716898,2.060177,2.636336,-4.485461,-1.845097,-2.488087,4.492902,-0.216112,0.405363,-0.035692,110.286146,188.571616,0
0.030208,-5.975046,-153.800041,164.133017,6.196638,0.451901,3.310678,-3.556909,-0.286579,-3.116583,3.544985,-0.186888,0.400529,-0.017021,54.595707,188.496179,0
0.031250,56.091117,-183.362736,112.924835,5.144808,-1.355191,4.076456,-2.361938,1.588054,-3.978752,2.456213,-0.139399,0.394911,-0.013287,-10.753471,188.722384,0
0.032294,111.000162,-181.586843,38.659381,3.697128,-2.970567,4.095505,-0.810434,3.157599,-3.990838,0.830668,-0.143052,0.389685,-0.024490,-79.721850,188.571514,0
0.033333,162.347661,-154.202577,-26.163345,2.419098,-4.103106,3.657374,0.721480,4.315460,-3.680619,-0.642601,-0.084604,0.398112,-0.054364,-144.392428,188.571569,0
0.034375,180.461635,-90.897919,-79.912436,1.367268,-4.422631,2.182965,2.570747,4.616872,-2.278588,-2.389966,-0.066339,0.395695,0.001650,-176.546758,188.496098,0
0.035417,185.270855,-19.104493,-136.119708,0.236268,-4.198964,0.921908,3.464037,4.495572,-0.965191,-3.440669,-0.051727,0.408434,-0.076769,-195.626727,188.722271,0
0.036458,140.672143,46.035254,-167.934253,-0.431022,-3.201336,-0.685845,4.145758,3.488416,0.646339,-4.000283,-0.007891,0.409675,-0.043161,-164.264098,188.571542,0
0.037500,66.288025,96.352216,-189.266071,-0.860802,-1.926786,-2.445991,4.420014,2.220283,2.451253,-4.483759,-0.007891,0.403730,-0.043161,-102.726389,188.571462,0
0.038542,5.288057,154.447588,-163.880617,-0.351852,-0.329160,-3.207959,3.518888,0.650737,3.140182,-3.532035,-0.033462,0.404449,-0.035692,-48.755070,188.571571,0
0.039583,-56.687366,183.039462,-112.743344,0.677358,1.506333,-3.832773,2.308245,-1.190814,3.982207,-2.405194,-0.051727,0.388771,-0.065566,14.795818,188.722319,0
0.040625,-111.154053,181.808176,-38.324254,2.147658,3.086207,-3.897540,0.701890,-2.764035,3.974149,-0.791070,-0.102869,0.388509,-0.017021,85.788687,188.571500,0
0.041666,-162.070538,154.471267,26.746654,3.414378,4.211645,-3.440359,-0.869203,-3.951302,3.623641,0.754530,-0.146705,0.395695,-0.046895,147.835345,188.571639,0
0.042708,-181.205336,90.515448,79.810290,4.466208,4.595075,-2.034528,-2.702799,-4.318877,2.169235,2.501895,-0.154011,0.394127,-0.058098,182.014164,188.571583,0
0.043750,-185.368034,18.710183,135.993926,5.608518,4.350106,-0.788710,-3.603925,-4.149792,0.871954,3.487881,-0.197847,0.406408,-0.035692,200.698284,188.722362,0
0.044792,-140.701267,-45.719207,168.470289,6.253188,3.302774,0.914288,-4.215123,-3.138961,-0.671086,4.077950,-0.190541,0.412614,-0.002084,169.426135,188.571543,0
0.045833,-66.067614,-96.142722,189.400289,6.694278,2.014023,2.670625,-4.512886,-1.848773,-2.496144,4.492902,-0.197847,0.407584,-0.043161,108.261656,188.571589,0
0.046875,-4.647973,-154.474880,164.097562,6.162708,0.423498,3.367826,-3.588253,-0.260849,-3.193131,3.518336,-0.212459,0.401901,-0.043161,53.023617,188.646949,0
0.047916,56.873749,-182.960200,112.653017,5.201358,-1.436847,4.114555,-2.389364,1.606432,-4.027098,2.391495,-0.168623,0.392560,-0.024490,-12.687481,188.722299,0
0.048958,110.966134,-182.024897,37.820291,3.697128,-3.038023,4.087886,-0.763419,3.231114,-4.010982,0.781178,-0.124787,0.386484,-0.020755,-79.178970,188.646933,0
0.050000,161.701139,-153.930273,-27.356982,2.396478,-4.103106,3.661184,0.823346,4.403678,-3.676590,-0.711125,-0.113828,0.394323,-0.017021,-144.132298,188.571580,0
0.051042,181.028760,-89.998133,-80.018799,1.355958,-4.454584,2.297261,2.570747,4.697738,-2.278588,-2.409000,-0.048074,0.397459,-0.002084,-177.836098,188.571632,0
0.052083,185.100717,-17.695619,-136.048799,0.224958,-4.206064,0.956197,3.467955,4.524978,-0.965191,-3.486352,-0.066339,0.402750,-0.054364,-195.977337,188.722406,0
0.053125,140.184415,46.627218,-168.253344,-0.340542,-3.194235,-0.723943,4.141840,3.503119,0.670512,-4.103069,-0.029809,0.413986,-0.009553,-163.438468,188.646933,0
0.054166,65.233172,96.529805,-189.301525,-0.838182,-1.944537,-2.465040,4.463111,2.183525,2.479455,-4.521828,-0.033462,0.403534,-0.017021,-102.952589,188.571641,0
0.055208,3.768162,154.542302,-164.046071,-0.329232,-0.297208,-3.181290,3.546313,0.658089,3.188528,-3.509193,-0.015197,0.399027,-0.020755,-47.646691,188.646911,0
0.056250,-57.413286,183.276247,-112.187890,0.677358,1.499233,-3.905160,2.327835,-1.231247,3.998322,-2.424228,-0.069992,0.391841,-0.024490,14.886298,188.722357,0
0.057291,-111.074656,182.080480,-37.319709,2.136348,3.132361,-3.943258,0.697972,-2.797116,3.962063,-0.772035,-0.066339,0.386354,-0.020755,84.420177,188.646929,0
0.058333,-162.002483,154.187124,27.562109,3.436998,4.257799,-3.497507,-0.861368,-4.039520,3.671987,0.735496,-0.117481,0.393409,-0.050629,147.812725,188.571621,0
0.059375,-181.137281,89.935323,80.235745,4.500138,4.630578,-2.045958,-2.698881,-4.348283,2.205495,2.501895,-0.150358,0.396152,-0.017021,182.704074,188.722415,0
0.060416,-185.356691,17.538094,136.383926,5.597208,4.350106,-0.781091,-3.600007,-4.190226,0.924328,3.510723,-0.183235,0.402946,-0.054364,201.161994,188.722391,0
0.061458,-140.281594,-46.725546,168.245744,6.241878,3.380880,0.914288,-4.289564,-3.091176,-0.699288,4.093178,-0.183235,0.374530,-0.017021,168.136795,188.571464,0
0.062500,-64.740541,-96.497901,189.613016,6.649038,2.028224,2.712533,-4.559902,-1.834070,-2.524346,4.530971,-0.175929,0.402816,-0.013287,108.487856,188.571616,0
0.063541,-3.627148,-154.415684,163.896653,6.128778,0.430599,3.413544,-3.635268,-0.231443,-3.225362,3.571633,-0.139399,0.369173,-0.005818,52.989687,188.722324,0
0.064583,57.395504,-183.303540,112.121199,5.133498,-1.380043,4.152653,-2.428543,1.613784,-4.075444,2.471440,-0.168623,0.389555,-0.050629,-11.839231,188.722462,0
0.065625,111.056874,-181.989379,37.123018,3.674508,-3.045123,4.137414,-0.763419,3.227438,-4.055300,0.830668,-0.124787,0.386484,-0.039427,-80.151630,188.571641,0
0.066666,161.712481,-153.894755,-27.947891,2.396478,-4.202514,3.718331,0.737151,4.425733,-3.716878,-0.703511,-0.099216,0.397198,-0.046895,-144.426358,188.571592,0
0.067708,181.108157,-89.074669,-80.337890,1.367268,-4.497187,2.282021,2.625598,4.697738,-2.254415,-2.439456,-0.091910,0.398374,-0.039427,-177.496798,188.722299,0
0.068750,185.044005,-16.783994,-136.285162,0.236268,-4.213165,0.960006,3.503216,4.554384,-0.941018,-3.505386,-0.029809,0.388967,-0.035692,-195.366597,188.797766,0
0.069791,139.254330,47.148146,-168.867889,-0.408402,-3.222637,-0.720133,4.208445,3.503119,0.666484,-4.072614,-0.044421,0.401444,-0.031958,-163.619428,188.571476,0
0.070833,64.189662,96.825787,-189.514253,-0.849492,-1.958738,-2.495519,4.533634,2.260716,2.531830,-4.563703,-0.015197,0.382304,-0.009553,-101.731109,188.571525,0
0.071875,2.985529,155.252659,-163.750617,-0.306612,-0.346912,-3.215579,3.581575,0.643386,3.208672,-3.570104,-0.026156,0.402358,-0.039427,-47.816341,188.722337,0
0.072916,-57.889671,183.039462,-112.116981,0.688668,1.545386,-3.935639,2.367014,-1.238598,4.034581,-2.431842,-0.066339,0.376882,-0.043161,15.677998,188.797677,0
0.073958,-111.482986,182.210712,-36.787891,2.170278,3.221118,-3.973737,0.705808,-2.885334,4.050697,-0.783456,-0.117481,0.386288,-0.035692,86.795277,188.572056,0
0.075000,-161.401330,154.175284,28.034836,3.482238,4.261349,-3.505127,-0.880957,-4.046871,3.659901,0.739302,-0.143052,0.396022,-0.065566,147.891895,188.571102,0
0.076041,-181.897229,88.846109,80.070290,4.511448,4.680282,-2.049768,-2.734142,-4.399743,2.229668,2.566612,-0.157664,0.398308,-0.009553,182.952894,188.721809,0
0.077083,-185.197896,17.230273,136.277562,5.619828,4.378508,-0.746802,-3.654858,-4.219632,0.859867,3.560212,-0.197847,0.400268,-0.043161,200.472084,188.721884,0
0.078125,-139.045262,-46.476921,169.415744,6.253188,3.398632,0.994295,-4.348333,-3.157340,-0.743605,4.161702,-0.201500,0.397198,-0.031958,168.951115,188.570998,0
0.079166,-64.388924,-96.616294,189.423925,6.694278,2.035325,2.708723,-4.552066,-1.830394,-2.544490,4.576654,-0.194194,0.397786,-0.035692,107.933666,188.571187,0
0.080208,-3.162106,-155.315470,163.837562,6.196638,0.398647,3.466882,-3.705791,-0.191009,-3.261621,3.647771,-0.216112,0.387726,-0.046895,52.853967,188.721934,0
0.081250,57.724437,-182.687897,112.215744,5.167428,-1.436847,4.152653,-2.389364,1.643190,-4.023069,2.425757,-0.154011,0.399157,-0.035692,-13.117261,188.797358,0
0.082291,111.567287,-182.368236,37.099381,3.697128,-3.069975,4.186942,-0.779091,3.264196,-4.063357,0.762144,-0.143052,0.388967,-0.035692,-80.162940,188.571069,0
0.083333,161.372206,-153.776362,-27.983345,2.430408,-4.145710,3.710711,0.799838,4.440436,-3.664504,-0.722546,-0.106522,0.397328,-0.039427,-144.222778,188.571009,0
0.084375,182.015557,-88.814205,-80.136981,1.389888,-4.600145,2.270592,2.645188,4.774929,-2.298732,-2.488945,-0.073645,0.401378,-0.035692,-178.831378,188.722070,0
0.085417,184.726415,-17.233886,-136.663344,0.213648,-4.259318,0.956197,3.534560,4.550708,-0.945047,-3.474931,-0.048074,0.414770,-0.065566,-195.694587,188.797248,0
0.086458,139.027480,46.662736,-169.482435,-0.408402,-3.268791,-0.762041,4.220199,3.543553,0.698714,-4.118297,-0.026156,0.400333,-0.043161,-163.415848,188.571015,0
0.087500,64.450540,96.991537,-189.053344,-0.815562,-1.937437,-2.465040,4.521880,2.212931,2.507657,-4.567510,-0.062686,0.401378,-0.031958,-103.212719,188.495729,0
0.088541,3.246407,155.595999,-163.703344,-0.374472,-0.336261,-3.268917,3.585493,0.661765,3.257018,-3.570104,-0.029809,0.402097,-0.031958,-47.997300,188.721862,0
0.089583,-57.821616,182.873712,-112.105163,0.677358,1.506333,-3.924209,2.351342,-1.238598,4.050697,-2.420421,-0.055380,0.397655,-0.061832,15.169048,188.797133,0
0.090625,-111.891316,182.092319,-37.260618,2.147658,3.167864,-4.000406,0.701890,-2.826522,4.046668,-0.787263,-0.091910,0.394454,-0.024490,85.619037,188.571127,0
0.091666,-161.866373,154.127927,27.644836,3.448308,4.289751,-3.524176,-0.857450,-4.039520,3.692131,0.758337,-0.139399,0.398243,-0.031958,147.869275,188.571123,0
0.092708,-182.010654,89.438073,80.223926,4.500138,4.683832,-2.034528,-2.726306,-4.403419,2.273985,2.558999,-0.161317,0.402946,-0.017021,183.654114,188.721909,0
0.093750,-185.084471,18.141898,136.998471,5.608518,4.399810,-0.762041,-3.635268,-4.238010,0.936415,3.594474,-0.175929,0.411700,-0.043161,200.879244,188.797233,0
0.094791,-139.521647,-46.074385,169.557562,6.287118,3.391531,0.971436,-4.367923,-3.164691,-0.691231,4.169316,-0.212459,0.410981,-0.031958,168.227275,188.571073,0
0.095833,-65.205584,-96.746526,189.329380,6.649038,2.063727,2.716343,-4.587327,-1.878179,-2.548519,4.588074,-0.201500,0.420453,-0.043161,109.381346,188.571065,0
0.096875,-3.944738,-155.493059,163.719380,6.174018,0.402197,3.478311,-3.690119,-0.271876,-3.273707,3.613509,-0.223418,0.407519,-0.058098,53.656977,188.721938,0
0.097916,57.486244,-182.877325,112.428472,5.201358,-1.440398,4.160273,-2.463804,1.657893,-4.063357,2.494281,-0.161317,0.397067,-0.043161,-11.918401,188.721846,0
0.098958,112.009644,-182.013058,37.631200,3.742368,-3.098378,4.213610,-0.783009,3.282574,-4.147963,0.830668,-0.143052,0.396544,-0.031958,-81.361800,188.571198,0
0.100000,161.927989,-153.989470,-27.640618,2.407788,-4.198964,3.733570,0.811592,4.451463,-3.724936,-0.749194,-0.102869,0.404514,-0.031958,-144.460288,188.571094,0
0.101041,182.106297,-88.020973,-80.515163,1.367268,-4.596595,2.228683,2.711793,4.778605,-2.246357,-2.565083,-0.084604,0.394846,-0.024490,-178.616488,188.721732,0
0.102083,184.692387,-18.086315,-137.195162,0.213648,-4.269969,0.918098,3.558067,4.565411,-0.908787,-3.566297,-0.048074,0.406996,0.001650,-195.095157,188.721913,0
0.103125,138.789288,46.011575,-170.286071,-0.476262,-3.275891,-0.758232,4.263296,3.506795,0.739002,-4.179207,-0.037115,0.408956,-0.024490,-163.653358,188.571015,0
0.104166,65.301227,97.062573,-189.124253,-0.781632,-1.912585,-2.529808,4.529716,2.246013,2.576147,-4.533248,-0.040768,0.406735,-0.039427,-102.296609,188.571141,0
0.105208,3.926957,156.294517,-163.325162,-0.351852,-0.258155,-3.287966,3.609000,0.613980,3.273133,-3.600559,-0.055380,0.403077,-0.028224,-48.325290,188.721947,0
0.106250,-57.798931,182.483015,-112.317890,0.699978,1.580889,-3.969927,2.319999,-1.293735,4.054726,-2.439456,-0.095563,0.397394,-0.020755,16.062538,188.646411,0
0.107291,-112.662606,182.127837,-37.355163,2.125038,3.224668,-4.015645,0.650957,-2.896362,4.066812,-0.741580,-0.106522,0.390730,-0.031958,87.824487,188.571029,0
0.108333,-161.764290,154.175284,27.881200,3.403068,4.350106,-3.524176,-0.924055,-4.105683,3.704218,0.830668,-0.150358,0.400856,-0.024490,148.004995,188.571084,0
0.109375,-182.895369,87.697698,80.271199,4.488828,4.740637,-1.977381,-2.894778,-4.392392,2.173264,2.654171,-0.154011,0.393735,-0.028224,184.219614,188.721817,0
0.110416,-184.653456,18.189255,137.152108,5.642448,4.353657,-0.643936,-3.713627,-4.197577,0.831665,3.628736,-0.219765,0.405821,-0.050629,199.940514,188.646418,0
0.111458,-138.693644,-45.387707,170.774835,6.264498,3.345377,1.028584,-4.371841,-3.146313,-0.743605,4.203578,-0.197847,0.408368,-0.050629,168.385615,188.571096,0
0.112500,-65.489146,-96.722847,188.927562,6.649038,1.953668,2.750632,-4.571655,-1.771582,-2.625067,4.557619,-0.197847,0.406866,-0.031958,107.662226,188.571036,0
0.113541,-3.990108,-156.262612,163.447562,6.185328,0.313440,3.493551,-3.619596,-0.183658,-3.390543,3.602088,-0.190541,0.403600,-0.028224,52.605147,188.721904,0
0.114583,57.735779,-182.107772,111.979381,5.167428,-1.507853,4.160273,-2.334512,1.735084,-4.051271,2.399109,-0.168623,0.391906,-0.046895,-13.773241,188.646442,0
0.115625,112.327234,-182.498468,37.040291,3.663198,-3.165833,4.205991,-0.688978,3.352414,-4.075444,0.754530,-0.117481,0.388640,-0.039427,-81.033810,188.571084,0
0.116666,161.224754,-153.575095,-28.278800,2.373858,-4.209615,3.645944,0.882115,4.510275,-3.652417,-0.802490,-0.088257,0.397328,-0.043161,-144.188848,188.571100,0
0.117708,182.956985,-87.346133,-80.278799,1.333338,-4.614346,2.163916,2.766644,4.789632,-2.185925,-2.645028,-0.084604,0.395107,-0.039427,-180.154648,188.721847,0
0.118750,184.238687,-17.446994,-137.218799,0.202338,-4.216715,0.864760,3.624672,4.561735,-0.868499,-3.589138,-0.029809,0.405363,-0.035692,-195.072537,188.646513,0
0.119791,138.176793,46.129968,-171.042435,-0.464952,-3.226188,-0.887766,4.275050,3.488416,0.791377,-4.171593,-0.048074,0.412026,-0.039427,-162.578908,188.571036,0
0.120833,64.495910,97.228323,-188.852435,-0.804252,-1.859330,-2.571716,4.521880,2.146768,2.616435,-4.529441,-0.022503,0.408630,-0.031958,-102.013859,188.495810,0
0.121875,2.974187,156.543141,-163.396071,-0.306612,-0.169398,-3.314635,3.577657,0.533113,3.309393,-3.570104,-0.011544,0.402554,-0.035692,-46.821061,188.721924,0
0.122916,-58.116521,182.483015,-111.431526,0.722598,1.673196,-3.969927,2.257312,-1.323141,4.074870,-2.378545,-0.044421,0.390404,-0.039427,16.005988,188.646505,0
0.123958,-112.696633,182.459337,-36.173345,2.181588,3.292123,-4.004216,0.580434,-2.955174,4.095014,-0.684477,-0.080951,0.386223,-0.035692,86.727417,188.571093,0
0.125000,-161.537440,153.689874,28.673018,3.448308,4.346556,-3.505127,-0.990660,-4.142441,3.611555,0.872544,-0.124787,0.395238,-0.031958,147.948445,188.571114,0
0.126041,-183.122219,87.449073,80.283017,4.488828,4.758388,-1.973571,-2.926121,-4.458555,2.161178,2.699854,-0.157664,0.397263,-0.039427,185.180964,188.721953,0
