1-Time,2-VGERA,3-VGERB,4-VGERC,5-VN,6-IGERAN,7-IGERBN,8-IGERCN,9-IGERAT,10-IGERBT,11-IGERCT,12-IN,13-IFD,14-IFAULT,15-VFAULT,16-Speed (rad/s),17-Active Power,18-Reactive Power,19-FAULT 
0.000000,88.507983,44.110273,-205.624432,-0.996522,1.332370,-5.660694,3.800596,-0.749724,5.750702,-3.733635,-0.015197,0.193776,-0.031958,1.235128,188.495635,988.254836,-1298.121180,0
0.001042,42.309979,125.004006,-179.538258,-0.532812,3.625849,-6.017867,1.901329,-2.995607,6.061257,-1.869324,-0.048074,0.166796,-0.035692,2.377438,188.721909,988.822762,-1297.495556,0
0.002083,-0.303796,186.991124,-127.021213,0.451158,5.074363,-4.950318,-0.497942,-4.568828,5.226115,0.311636,-0.132093,0.160917,-0.031958,4.435858,188.571176,989.162186,-1296.433888,0
0.003125,-61.485243,196.329663,-70.737121,1.548228,6.359564,-3.474005,-3.128558,-5.752419,3.585208,2.901749,-0.157664,0.181495,-0.065566,6.618688,188.571154,989.004294,-1295.543644,0
0.004167,-143.548234,165.571682,-24.584659,2.441718,6.313410,-1.414310,-4.781554,-5.862692,1.705090,4.620189,-0.201500,0.185218,-0.065566,7.749688,188.495636,989.659331,-1294.784421,0
0.005208,-190.097857,100.660984,21.653977,3.289968,5.049511,1.073992,-5.803950,-4.572504,-0.800336,5.563018,-0.259948,0.199851,-0.054364,7.975888,188.721971,990.002425,-1294.234122,0
0.006250,-187.829356,53.654187,97.044129,4.737648,3.519341,3.209091,-6.236789,-3.138961,-2.970026,6.075348,-0.234377,0.201027,-0.028224,5.702578,188.646413,989.586360,-1292.841898,0
0.007292,-144.875307,8.471606,169.122728,6.060918,1.424677,4.756838,-5.524097,-1.029081,-4.547982,5.385126,-0.252642,0.223172,-0.084238,4.051318,188.571033,989.734602,-1291.375407,0
0.008333,-89.932235,-43.681657,205.869887,6.773448,-1.135074,5.824387,-3.882294,1.547620,-5.710466,3.905062,-0.172276,0.199459,-0.039427,3.587608,188.495712,990.095827,-1291.037527,0
0.009375,-43.450668,-124.756604,179.746781,6.321048,-3.467606,6.177591,-1.994221,3.889073,-6.012628,2.019403,-0.175929,0.187570,-0.028224,2.513158,188.721949,989.267774,-1290.132013,0
0.010417,-0.156343,-186.937016,127.525190,5.359698,-4.894818,5.110042,0.397587,5.436564,-5.211060,-0.200694,-0.102869,0.189791,-0.035692,0.466048,188.646547,989.834497,-1289.830465,0
0.011458,61.807737,-196.058099,71.388826,4.296558,-6.204871,3.617855,2.987158,6.623831,-3.565956,-2.765901,-0.069992,0.179600,-0.039427,-1.762022,188.571147,989.874737,-1289.204320,0
0.012500,143.530453,-165.493412,24.891667,3.391758,-6.101913,1.617688,4.640155,6.730428,-1.685838,-4.402511,-0.011544,0.186721,-0.031958,-2.915641,188.495640,990.024631,-1288.079552,0
0.013542,189.921280,-100.304854,-21.740909,2.475648,-4.877067,-0.870614,5.703595,5.344670,0.827981,-5.363129,-0.026156,0.197564,-0.058098,-2.904331,188.714264,989.889917,-1286.976340,0
0.014583,187.573382,-52.633607,-96.946402,1.061898,-3.414352,-3.049366,6.106583,3.951561,3.064818,-5.911038,0.014027,0.201484,-0.043161,-1.151282,188.646187,990.166933,-1287.374450,0
0.015625,143.972811,-7.390621,-169.492804,-0.317922,-1.262884,-4.569334,5.442399,1.764490,4.588218,-5.245720,0.035945,0.210238,-0.046895,0.420808,188.570843,989.666982,-1286.718163,0
0.016667,88.303818,44.376053,-205.784470,-0.928662,1.332370,-5.676569,3.796865,-0.694587,5.725522,-3.776330,-0.022503,0.193384,-0.039427,1.246438,188.495526,990.568935,-1285.990588,0
0.017708,42.162526,125.559727,-179.378220,-0.487572,3.593897,-6.025804,1.927449,-3.017661,6.073847,-1.894229,-0.091910,0.176595,-0.035692,2.411368,188.721779,991.093057,-1286.170027,0
0.018750,-0.598701,186.894477,-126.947349,0.485088,5.053061,-5.021752,-0.468091,-4.612937,5.238705,0.315194,-0.154011,0.202137,-0.009553,4.424548,188.570890,991.307898,-1286.620101,0
0.019792,-62.335931,196.257178,-70.638637,1.514298,6.359564,-3.466067,-3.083781,-5.811231,3.614585,2.883959,-0.223418,0.180123,-0.046895,6.584758,188.570915,992.372139,-1286.886946,0
0.020833,-143.332727,165.535439,-24.350758,2.419098,6.285008,-1.450027,-4.800211,-5.877395,1.709287,4.584610,-0.238030,0.189268,-0.069301,7.862788,188.570861,992.573517,-1286.483336,0
0.021875,-190.687667,100.600580,21.814015,3.301278,5.088564,1.070024,-5.871115,-4.576179,-0.804532,5.612828,-0.238030,0.197891,-0.043161,7.953268,188.721661,992.977869,-1287.160180,0
0.022917,-187.670561,53.485054,97.290341,4.715028,3.600998,3.268619,-6.210669,-3.179394,-3.066550,6.135831,-0.238030,0.206253,-0.065566,5.872228,188.570830,993.525603,-1288.566388,0
0.023958,-144.444292,8.556172,169.947538,6.083538,1.431778,4.776681,-5.609919,-0.970269,-4.560573,5.434936,-0.248989,0.200373,-0.039427,4.322758,188.570814,993.664068,-1289.291713,0
0.025000,-89.625987,-43.947437,205.623675,6.762138,-1.152825,5.820419,-3.927071,1.529242,-5.714663,3.961987,-0.205153,0.213569,-0.050629,3.644158,188.570941,994.510004,-1289.049479,0
0.026042,-43.099050,-125.698914,179.660607,6.321048,-3.496009,6.197434,-1.997953,3.878046,-6.054595,2.030076,-0.161317,0.197760,-0.020755,2.592328,188.721762,995.413753,-1289.128537,0
0.027083,0.070507,-186.441699,127.402084,5.314458,-4.930321,5.157665,0.401318,5.443915,-5.206863,-0.168673,-0.110175,0.195409,0.012853,0.409498,188.570821,995.582489,-1288.782207,0
0.028125,62.227410,-196.517173,71.253409,4.285248,-6.204871,3.629760,3.005815,6.642210,-3.586940,-2.748112,-0.084604,0.180057,-0.054364,-1.773332,188.570901,996.304203,-1288.837771,0
0.029167,143.156151,-165.118904,24.903977,3.380448,-6.133865,1.593877,4.688662,6.715725,-1.660658,-4.445205,-0.033462,0.186590,-0.084238,-2.994811,188.570959,995.670732,-1289.170914,0
0.030208,190.477063,-100.051155,-21.839394,2.498268,-4.869966,-0.858708,5.759566,5.392455,0.823784,-5.427171,-0.011544,0.197956,-0.035692,-2.972191,188.721567,996.625818,-1290.002392,0
0.031250,187.267135,-52.524878,-97.032576,1.039278,-3.353998,-3.057303,6.054344,3.988318,3.039638,-5.928827,0.028639,0.201484,-0.043161,-1.117352,188.570794,997.240820,-1289.725719,0
0.032292,143.984153,-7.414783,-169.702084,-0.295302,-1.273534,-4.612988,5.446130,1.823302,4.588218,-5.281299,0.003068,0.206449,-0.039427,0.488668,188.570881,998.224565,-1289.662697,0
0.033333,88.281133,44.569347,-205.501326,-0.973902,1.339470,-5.668631,3.778208,-0.757075,5.729718,-3.765656,-0.048074,0.197107,-0.024490,1.257748,188.495579,997.691790,-1290.118353,0
0.034375,41.867621,125.716779,-179.464394,-0.487572,3.583246,-5.998024,1.957300,-2.999283,6.052864,-1.894229,-0.080951,0.184303,-0.005818,2.400058,188.721681,997.711423,-1289.700852,0
0.035417,-0.802866,186.991124,-126.787311,0.462468,5.070813,-4.950318,-0.509136,-4.557801,5.205132,0.332983,-0.143052,0.158565,-0.039427,4.503718,188.570991,997.236964,-1288.993811,0
0.036458,-62.222506,196.438391,-70.478599,1.536918,6.327611,-3.462099,-3.068856,-5.726689,3.589405,2.898191,-0.205153,0.167123,-0.058098,6.652618,188.570903,996.452258,-1288.329556,0
0.037500,-143.707029,165.402549,-24.338447,2.419098,6.302759,-1.481775,-4.744241,-5.855340,1.700893,4.573937,-0.197847,0.185218,-0.050629,7.693138,188.570941,996.326177,-1288.069120,0
0.038542,-190.449474,100.540175,21.998674,3.301278,5.031760,1.030338,-5.833801,-4.498989,-0.838106,5.563018,-0.216112,0.198283,-0.076769,7.953268,188.721648,995.090672,-1287.456750,0
0.039583,-187.693246,53.569621,97.487311,4.771578,3.554844,3.201153,-6.173355,-3.153664,-3.003599,6.110927,-0.238030,0.202790,-0.050629,5.691268,188.570930,994.960066,-1286.644617,0
0.040625,-144.682485,8.266230,169.504357,6.128778,1.460180,4.748901,-5.583799,-1.003350,-4.543786,5.363779,-0.241683,0.205599,-0.039427,4.073938,188.570930,994.532499,-1285.828103,0
0.041667,-89.523905,-44.189055,205.635985,6.796068,-1.156375,5.820419,-3.871100,1.551296,-5.685286,3.944198,-0.219765,0.207559,-0.028224,3.621538,188.570812,994.145681,-1285.628319,0
0.042708,-42.996968,-125.433134,179.611364,6.309738,-3.432104,6.181560,-2.035266,3.878046,-6.000038,2.062097,-0.161317,0.183977,-0.028224,2.524468,188.721668,993.975612,-1285.043852,0
0.043750,0.297357,-186.997421,127.648296,5.348388,-4.905469,5.125917,0.390124,5.451267,-5.156503,-0.165115,-0.121134,0.183454,-0.039427,0.443428,188.570854,993.737384,-1285.034476,0
0.044792,62.318150,-196.215151,72.250568,4.262628,-6.208421,3.609918,2.987158,6.642210,-3.591136,-2.769459,-0.044421,0.180188,-0.069301,-1.784642,188.495539,993.464273,-1285.480924,0
0.045833,143.575823,-165.251794,25.716477,3.436998,-6.130315,1.546254,4.647617,6.726752,-1.673248,-4.448763,-0.015197,0.188158,-0.046895,-2.904331,188.646464,993.629663,-1285.818001,0
0.046875,190.318268,-99.906184,-20.891477,2.520888,-4.894818,-0.898394,5.718520,5.366725,0.823784,-5.405823,-0.007891,0.197891,-0.043161,-2.893021,188.721630,992.915705,-1285.529243,0
0.047917,187.403245,-52.186613,-97.672728,1.061898,-3.385950,-3.057303,6.076732,3.966264,3.060622,-5.911038,-0.007891,0.198610,-0.024490,-1.128662,188.570770,992.793850,-1285.563050,0
0.048958,143.530453,-7.293974,-168.495644,-0.283992,-1.305487,-4.616957,5.438668,1.801247,4.613398,-5.288415,-0.026156,0.204881,-0.028224,0.454738,188.495645,992.251227,-1285.604030,0
0.050000,87.952201,44.823046,-205.698296,-1.007832,1.314618,-5.664663,3.770745,-0.646803,5.729718,-3.787003,-0.040768,0.169279,-0.031958,1.257748,188.646245,993.417037,-1284.594525,0
0.051042,41.788224,126.332905,-179.944508,-0.544122,3.597447,-6.049615,1.919986,-2.977228,6.090634,-1.894229,-0.102869,0.157716,-0.046895,2.433988,188.721712,994.092081,-1284.828769,0
0.052083,-0.961661,186.966963,-127.759849,0.428538,5.092114,-4.993972,-0.490479,-4.598234,5.213525,0.311636,-0.121134,0.191097,-0.020755,4.458478,188.570893,994.439969,-1285.480255,0
0.053125,-62.903056,196.414229,-71.241856,1.525608,6.402167,-3.466067,-3.102438,-5.767122,3.610388,2.926654,-0.146705,0.181495,-0.046895,6.641308,188.495548,994.854341,-1286.340150,0
0.054167,-143.604947,165.160931,-25.064773,2.407788,6.295659,-1.450027,-4.803943,-5.895774,1.692500,4.620189,-0.234377,0.185349,-0.039427,7.806238,188.646277,994.778295,-1287.263389,0
0.055208,-191.164052,100.262314,21.333902,3.289968,5.077913,1.077961,-5.874846,-4.554125,-0.842303,5.577249,-0.263601,0.199263,-0.024490,7.953268,188.646333,995.382315,-1287.752452,0
0.056250,-187.352971,53.376326,96.280872,4.726338,3.540643,3.260682,-6.236789,-3.179394,-3.041370,6.107369,-0.248989,0.204162,-0.013287,5.872228,188.570874,994.995206,-1287.882489,0
0.057292,-143.956564,8.374959,169.098107,6.094848,1.438878,4.780650,-5.576336,-0.984972,-4.606736,5.456283,-0.230724,0.189791,-0.058098,4.277518,188.495571,995.511101,-1288.898150,0
0.058333,-89.308397,-44.321945,205.340531,6.750828,-1.156375,5.836293,-3.897220,1.529242,-5.702073,3.929966,-0.223418,0.202594,-0.069301,3.666778,188.646223,995.567906,-1288.681426,0
0.059375,-42.713405,-126.327121,180.005304,6.354978,-3.506660,6.205371,-2.027803,3.903776,-6.096562,2.047866,-0.190541,0.194821,-0.046895,2.569708,188.646351,996.549463,-1289.837690,0
0.060417,0.410782,-186.417538,127.980682,5.325768,-4.937422,5.117979,0.408781,5.440240,-5.173290,-0.193578,-0.113828,0.194364,-0.054364,0.398188,188.570948,996.293180,-1289.973460,0
0.061458,62.828562,-196.601740,71.967424,4.296558,-6.254575,3.641666,3.035666,6.645886,-3.595333,-2.787248,-0.051727,0.180123,0.016587,-1.773332,188.495508,996.587906,-1290.161085,0
0.062500,143.360316,-164.756477,25.544129,3.436998,-6.148067,1.566097,4.681200,6.715725,-1.639674,-4.445205,-0.018850,0.185937,-0.024490,-2.983501,188.646225,996.069402,-1289.958275,0
0.063542,190.930763,-99.507514,-21.199242,2.543508,-4.894818,-0.934111,5.763297,5.388779,0.878341,-5.430728,-0.007891,0.196323,-0.058098,-2.972191,188.646400,996.277154,-1290.685309,0
0.064583,186.938202,-52.162451,-96.133902,1.095828,-3.357548,-3.045398,6.099120,3.980967,3.052228,-5.903922,-0.011544,0.197042,0.001650,-1.117352,188.571029,995.751945,-1290.320117,0
0.065625,143.303603,-7.221488,-168.963447,-0.295302,-1.291286,-4.605051,5.434936,1.808599,4.613398,-5.249278,-0.026156,0.186786,-0.020755,0.601768,188.495488,995.597388,-1290.031007,0
0.066667,88.008913,44.955936,-205.513637,-0.962592,1.364322,-5.644820,3.740894,-0.746048,5.696145,-3.751425,-0.037115,0.200439,-0.046895,1.269058,188.646319,994.360623,-1290.439620,0
0.067708,41.538689,126.381229,-179.969129,-0.566742,3.586796,-6.017867,1.927449,-3.047067,6.082240,-1.855092,-0.110175,0.189007,-0.054364,2.400058,188.646306,993.720627,-1291.155105,0
0.068750,-1.007031,186.966963,-127.476705,0.417228,5.092114,-4.914600,-0.501673,-4.565152,5.167361,0.350773,-0.135746,0.188419,-0.061832,4.481098,188.570857,992.866045,-1290.756637,0
0.069792,-62.880371,196.414229,-71.241856,1.525608,6.356013,-3.466067,-3.094975,-5.741392,3.618782,2.876844,-0.172276,0.182866,-0.058098,6.641308,188.495508,993.100960,-1290.018806,0
0.070833,-143.843139,165.076364,-25.064773,2.419098,6.295659,-1.410341,-4.744241,-5.873719,1.684106,4.602399,-0.227071,0.187112,-0.039427,7.693138,188.721677,992.935420,-1289.689986,0
0.071875,-190.869147,100.419366,21.309280,3.289968,5.031760,1.050181,-5.856189,-4.550449,-0.800336,5.555902,-0.248989,0.197760,-0.046895,7.964578,188.646275,993.049853,-1289.103674,0
0.072917,-187.364314,53.364245,96.527084,4.726338,3.522891,3.228934,-6.218132,-3.131610,-2.982616,6.089579,-0.238030,0.202790,-0.046895,5.679958,188.570821,992.742930,-1288.392167,0
0.073958,-144.149387,8.193745,170.686175,6.128778,1.403375,4.772713,-5.553948,-0.988647,-4.564769,5.410031,-0.223418,0.211805,-0.061832,4.028698,188.495465,992.913810,-1287.931079,0
0.075000,-88.934095,-44.563563,205.389773,6.773448,-1.181227,5.796607,-3.893488,1.588054,-5.689483,3.880157,-0.197847,0.208474,-0.080503,3.610228,188.721572,992.015560,-1288.076867,0
0.076042,-42.475213,-126.254636,179.192804,6.309738,-3.471157,6.181560,-2.020341,3.874370,-6.033612,2.040750,-0.179582,0.200831,-0.069301,2.490538,188.570912,991.447499,-1286.927593,0
0.077083,0.524207,-186.864531,126.577273,5.348388,-4.944522,5.094168,0.393856,5.418185,-5.148109,-0.197136,-0.146705,0.195670,-0.046895,0.398188,188.570884,991.343140,-1286.144209,0
0.078125,63.010042,-196.287636,70.527084,4.262628,-6.247474,3.625792,3.017009,6.675292,-3.561760,-2.819269,-0.084604,0.180841,-0.069301,-1.807262,188.495472,991.175346,-1286.163120,0
0.079166,143.541796,-164.780639,24.116099,3.380448,-6.123215,1.601814,4.692394,6.737780,-1.660658,-4.441647,-0.018850,0.186982,-0.013287,-2.870401,188.721753,992.059048,-1285.854698,0
0.080208,190.805995,-99.386705,-22.664205,2.464338,-4.898369,-0.886488,5.725983,5.374076,0.865751,-5.412939,-0.007891,0.196977,-0.039427,-2.904331,188.570933,992.430785,-1285.268623,0
0.081250,187.040285,-52.053723,-96.823296,1.073208,-3.389500,-3.073178,6.076732,3.980967,3.039638,-5.918153,0.021333,0.197956,-0.043161,-1.106042,188.570933,992.879372,-1285.281099,0
0.082292,143.020041,-7.306055,-170.169887,-0.329232,-1.262884,-4.624894,5.431205,1.808599,4.621791,-5.299088,-0.022503,0.181625,-0.035692,0.511288,188.495664,993.725661,-1285.769969,0
0.083333,87.838776,45.100907,-205.525948,-0.917352,1.346571,-5.680537,3.740894,-0.716642,5.729718,-3.754983,-0.037115,0.172872,-0.095440,1.235128,188.721748,994.185650,-1285.792433,0
0.084375,41.447949,127.202730,-178.910417,-0.487572,3.625849,-6.041678,1.923717,-3.050743,6.103224,-1.894229,-0.077298,0.174962,-0.039427,2.433988,188.570926,994.972069,-1285.514834,0
0.085417,-1.154483,186.906558,-126.024053,0.507708,5.109866,-4.993972,-0.501673,-4.561476,5.221918,0.340099,-0.157664,0.161178,-0.028224,4.481098,188.570810,995.698978,-1285.042467,0
0.086458,-63.787771,196.510877,-69.801515,1.514298,6.377315,-3.474005,-3.109901,-5.847989,3.635569,2.930211,-0.212459,0.179469,-0.050629,6.675238,188.495499,996.758445,-1286.068630,0
0.087500,-143.729714,164.713937,-23.735227,2.453028,6.288558,-1.394467,-4.789017,-5.925180,1.696696,4.627304,-0.223418,0.187374,-0.043161,7.840168,188.721692,997.588673,-1286.183540,0
0.088542,-191.821917,99.960292,22.921970,3.335208,5.081464,1.073992,-5.871115,-4.583531,-0.804532,5.623501,-0.238030,0.198544,-0.076769,7.941958,188.570930,999.011288,-1286.902496,0
0.089583,-186.876586,53.195112,98.718372,4.782888,3.561944,3.284494,-6.240520,-3.186746,-3.058156,6.082464,-0.248989,0.205077,-0.046895,5.826988,188.570886,999.992875,-1287.405973,0
0.090625,-143.287357,8.193745,171.794129,6.162708,1.438878,4.844147,-5.598724,-1.014378,-4.631916,5.474072,-0.212459,0.214810,-0.039427,4.243588,188.495408,1001.186869,-1288.238559,0
0.091666,-89.070205,-44.684372,205.094319,6.773448,-1.202529,5.875979,-3.912145,1.606432,-5.702073,3.912177,-0.186888,0.207298,-0.043161,3.678088,188.721708,1001.440122,-1288.529100,0
0.092708,-42.282390,-127.450645,178.983523,6.309738,-3.510210,6.256963,-2.016609,3.925831,-6.088169,2.069213,-0.212459,0.197368,-0.046895,2.592328,188.646277,1002.496769,-1289.332519,0
0.093750,0.603604,-186.393376,126.269508,5.337078,-4.962274,5.133854,0.419975,5.414509,-5.198470,-0.236272,-0.132093,0.195735,-0.061832,0.386878,188.570926,1002.547376,-1289.552474,0
0.094792,63.645222,-196.831277,70.083902,4.240008,-6.268776,3.641666,3.058054,6.712049,-3.582743,-2.783690,-0.084604,0.179861,-0.020755,-1.829882,188.495513,1003.621096,-1289.512092,0
0.095833,143.485083,-164.140351,23.746780,3.380448,-6.158717,1.558160,4.703588,6.741455,-1.639674,-4.441647,-0.044421,0.186002,-0.073035,-2.949571,188.721621,1003.455423,-1289.305158,0
0.096875,191.656683,-98.975954,-22.738068,2.464338,-4.937422,-0.946017,5.785685,5.443915,0.878341,-5.476980,0.003068,0.196715,-0.061832,-3.006121,188.570968,1004.615096,-1290.342823,0
0.097916,186.439132,-51.884591,-98.448296,1.039278,-3.364648,-3.081115,6.125240,3.962588,3.060622,-5.953732,0.003068,0.203378,-0.065566,-1.072112,188.570975,1005.080551,-1290.696879,0
0.098958,142.691108,-7.149003,-171.228599,-0.351852,-1.277085,-4.664580,5.505832,1.797571,4.621791,-5.277741,-0.004238,0.202268,-0.061832,0.624388,188.495486,1005.137098,-1290.649857,0
0.100000,87.782063,45.390848,-205.205872,-0.985212,1.353671,-5.644820,3.748357,-0.764427,5.679358,-3.737193,-0.059033,0.223890,-0.065566,1.291678,188.721751,1004.411970,-1290.377099,0
0.101041,41.130359,127.396025,-179.402841,-0.510192,3.622299,-6.061521,1.916255,-3.028689,6.107421,-1.915576,-0.110175,0.192142,-0.031958,2.388748,188.570778,1004.945889,-1290.190987,0
0.102083,-1.120456,186.858234,-126.393372,0.439848,5.088564,-4.954286,-0.509136,-4.601910,5.209328,0.329426,-0.124787,0.198152,-0.050629,4.503718,188.570964,1004.923704,-1290.643416,0
0.103125,-63.901196,196.692090,-70.195455,1.536918,6.370215,-3.474005,-3.113632,-5.763447,3.601995,2.940885,-0.179582,0.182082,-0.020755,6.675238,188.570877,1004.055686,-1290.117933,0
0.104167,-144.149387,164.629371,-23.562879,2.430408,6.260156,-1.414310,-4.792749,-5.855340,1.650533,4.605957,-0.201500,0.189138,-0.031958,7.670518,188.721797,1003.210957,-1289.561695,0
0.105208,-191.708492,99.960292,23.168182,3.289968,5.095665,1.058118,-5.882309,-4.583531,-0.821319,5.602154,-0.234377,0.200439,-0.043161,7.987198,188.570901,1003.065512,-1289.409540,0
0.106250,-186.853901,53.001818,99.087690,4.794198,3.551294,3.284494,-6.180818,-3.124258,-3.007796,6.061117,-0.238030,0.204097,-0.058098,5.679958,188.570917,1002.607218,-1288.707503,0
0.107291,-143.412124,7.903803,171.720266,6.151398,1.410476,4.788587,-5.565142,-1.010702,-4.585753,5.438493,-0.230724,0.215659,-0.028224,3.972148,188.570915,1002.280297,-1287.977661,0
0.108333,-89.013492,-45.034718,205.229735,6.750828,-1.241582,5.848199,-3.859906,1.584378,-5.714663,3.919293,-0.212459,0.201223,-0.065566,3.587608,188.721744,1002.732631,-1287.909202,0
0.109375,-42.112253,-127.196946,179.217425,6.343668,-3.506660,6.229183,-1.997953,3.947885,-6.075579,2.033634,-0.219765,0.179469,-0.046895,2.547088,188.570890,1002.142470,-1288.167543,0
0.110416,0.909852,-186.912855,126.675758,5.314458,-4.940972,5.106074,0.434901,5.462294,-5.160700,-0.190020,-0.121134,0.195997,-0.084238,0.409498,188.570982,1002.479433,-1288.391762,0
0.111458,63.860730,-196.625901,69.973106,4.262628,-6.240374,3.613886,3.031934,6.682643,-3.591136,-2.797922,-0.051727,0.180841,-0.073035,-1.852502,188.646426,1002.390821,-1288.132514,0
