1-Time,2-VGERA,3-VGERB,4-VGERC,5-VN,6-IGERAN,7-IGERBN,8-IGERCN,9-IGERAT,10-IGERBT,11-IGERCT,12-IN,13-IFD,14-IFAULT,15-VFAULT,16-Speed (rad/s),17-Active Power,18-Reactive Power,19-FAULT 
0.000000,119.745230,82.974541,-182.135796,-0.544122,-4.980025,1.609751,3.464773,4.966068,-1.715215,-3.228421,-0.069992,0.560053,-0.028224,-179.577838,188.571129,1019.231809,985.755874,0
0.001034,40.914851,133.472720,-187.010796,-0.589362,-4.294821,-0.370572,4.517019,4.348542,0.261428,-4.302891,-0.026156,0.567108,0.001650,-150.545068,188.495633,1018.526692,985.925201,0
0.002076,-31.382247,176.118311,-152.578031,0.010068,-3.123229,-2.227869,5.024486,3.183329,2.128956,-4.815221,-0.084604,0.562078,0.001650,-103.653809,188.571078,1019.120937,985.938954,0
0.003118,-101.081913,179.899634,-101.292046,1.027968,-1.241582,-3.755774,4.528213,1.341778,3.723699,-4.430973,-0.037115,0.565214,-0.020755,-37.207561,188.570970,1019.656351,985.621033,0
0.004159,-146.032242,179.283508,-12.335606,2.701848,0.774976,-4.811417,3.543132,-0.687236,4.730905,-3.406314,-0.048074,0.552802,0.005384,42.923788,188.542862,1019.774423,984.983532,0
0.005201,-168.547106,147.015413,67.646402,4.194768,2.479110,-4.942381,1.968494,-2.440569,5.054051,-1.976059,-0.066339,0.552018,-0.031958,113.713076,188.489126,1020.982497,984.391731,0
0.006243,-183.927536,68.417052,122.046970,5.212668,4.197444,-4.434402,-0.188238,-4.050547,4.491694,0.062587,-0.128440,0.551887,-0.043161,160.762675,188.496105,1021.578486,984.320964,0
0.007284,-167.480911,-10.845760,161.600947,6.004368,4.982056,-3.438287,-1.785264,-4.965809,3.551635,1.688523,-0.175929,0.554631,-0.009553,190.541904,188.571473,1021.524997,983.668972,0
0.008326,-119.468106,-83.017080,182.073485,6.422838,5.021109,-1.453995,-3.617367,-4.958457,1.675713,3.410521,-0.197847,0.541827,-0.005818,184.592844,188.522487,1022.902925,982.869967,0
0.009368,-42.066883,-133.273641,186.689963,6.524628,4.339455,0.518391,-4.673345,-4.381365,-0.351290,4.545474,-0.208806,0.568284,-0.009553,156.408325,188.478152,1024.006484,982.403124,0
0.010409,31.092246,-176.221255,152.946591,5.879958,3.192716,2.363782,-5.214393,-3.205125,-2.147474,5.057804,-0.208806,0.558812,-0.013287,108.363446,188.712235,1024.933041,982.085835,0
0.011451,101.880791,-179.398532,100.380303,4.850748,1.254264,3.899624,-4.677076,-1.370925,-3.784184,4.549032,-0.212459,0.556460,-0.024490,40.265938,188.573832,1024.937383,980.959225,0
0.012493,145.980433,-179.446856,13.319697,3.210798,-0.758744,4.899707,-3.580053,0.636034,-4.803981,3.567066,-0.219765,0.558746,-0.020755,-37.139701,188.518802,1026.561512,980.682519,0
0.013534,168.291132,-146.502231,-66.871591,1.706568,-2.409624,5.133854,-2.098700,2.407746,-5.068372,2.147485,-0.154011,0.556525,-0.024490,-109.218329,188.502732,1027.058930,979.191756,0
0.014576,183.784987,-65.886358,-121.826137,0.722598,-4.113757,4.542535,0.091615,4.098591,-4.497622,0.066145,-0.154011,0.511582,-0.028224,-154.842868,188.493085,1028.514097,978.475152,0
0.015618,167.100169,10.597845,-161.589394,-0.091722,-4.894818,3.498797,1.636402,4.944013,-3.578546,-1.506423,-0.077298,0.563450,-0.028224,-186.295977,188.569007,1029.375670,978.133204,0
0.016659,119.495695,82.805408,-182.234281,-0.476262,-4.969374,1.593877,3.490893,4.969744,-1.698428,-3.231979,-0.084604,0.557571,-0.039427,-180.437398,188.571105,1029.483893,977.960661,0
0.017701,39.882684,133.835147,-186.678410,-0.578052,-4.259318,-0.394384,4.550602,4.326487,0.349558,-4.342027,-0.048074,0.551169,-0.009553,-150.330178,188.495783,1030.255621,977.353875,0
0.018743,-30.735725,176.408252,-152.725758,0.032688,-3.098378,-2.291367,5.084188,3.157599,2.170923,-4.882820,-0.037115,0.571419,-0.028224,-103.959179,188.495785,1031.600682,977.310966,0
0.019784,-101.898573,179.597611,-100.614962,1.061898,-1.223831,-3.779586,4.591647,1.275615,3.753076,-4.423858,-0.022503,0.563123,-0.017021,-39.469561,188.571089,1031.971959,976.840028,0
0.020826,-146.077612,179.573449,-10.981439,2.713158,0.835331,-4.803480,3.531938,-0.712966,4.735102,-3.374293,-0.059033,0.548556,0.020321,43.274397,188.571046,1032.009529,976.626959,0
0.021868,-168.864696,147.015413,67.227841,4.183458,2.503962,-5.033658,1.968494,-2.492029,5.075034,-2.015195,-0.055380,0.557701,-0.035692,113.011856,188.495658,1032.728721,977.079479,0
0.022909,-184.018276,67.353932,122.145455,5.246598,4.225846,-4.474088,-0.158387,-4.105683,4.537857,0.073261,-0.113828,0.555807,-0.043161,160.762675,188.571038,1033.362222,977.777990,0
0.023951,-167.186006,-12.283387,161.465531,5.993058,4.999807,-3.434319,-1.788996,-4.980512,3.547438,1.699197,-0.183235,0.557179,-0.039427,189.727584,188.571053,1033.211615,978.031106,0
0.024993,-119.989861,-82.316388,182.344319,6.434148,5.113416,-1.477807,-3.662144,-5.043000,1.684106,3.446099,-0.197847,0.561490,-0.024490,184.095204,188.571169,1034.479589,978.697754,0
0.026034,-41.204853,-133.370288,186.689963,6.535938,4.378508,0.514422,-4.714390,-4.414446,-0.380666,4.566821,-0.219765,0.565148,-0.002084,156.498805,188.497705,1034.835164,979.069368,0
0.027076,32.725566,-176.040041,152.848107,5.891268,3.185615,2.419342,-5.225588,-3.212476,-2.193638,5.025783,-0.241683,0.551887,-0.028224,109.019426,188.571187,1034.667030,979.069128,0
0.028118,101.756024,-179.458937,100.688068,4.816818,1.296867,3.923436,-4.684539,-1.348871,-3.784184,4.627304,-0.216112,0.564495,-0.031958,40.548688,188.495749,1035.351577,979.616568,0
0.029168,146.899176,-179.483099,11.399242,3.199488,-0.787146,4.967173,-3.665875,0.724252,-4.829161,3.599087,-0.205153,0.558812,-0.050629,-38.621311,188.568971,1036.109932,980.201124,0
0.030204,168.064282,-145.366626,-68.484281,1.717878,-2.469978,5.062419,-2.046460,2.477585,-5.064176,2.136812,-0.161317,0.553390,-0.031958,-109.184399,188.475303,1036.302450,980.248257,0
0.031243,184.193317,-66.345433,-121.936932,0.620808,-4.174112,4.542535,0.072958,4.098591,-4.526999,0.037682,-0.110175,0.553194,-0.035692,-154.650598,188.708621,1036.880967,980.361980,0
0.032284,166.725867,11.056919,-161.860228,-0.114342,-4.930321,3.546420,1.684910,4.969744,-3.612120,-1.527770,-0.088257,0.563058,-0.024490,-184.305418,188.495495,1037.171705,980.950737,0
0.033326,118.157279,84.013499,-182.418940,-0.510192,-5.015528,1.574034,3.565520,5.010177,-1.648068,-3.285347,-0.044421,0.534380,-0.009553,-179.351638,188.505642,1037.816937,981.176772,0
0.034368,40.688001,134.004279,-186.542993,-0.645912,-4.269969,-0.426132,4.569259,4.322812,0.374738,-4.370490,-0.033462,0.562666,-0.035692,-149.809918,188.497967,1038.537203,980.935666,0
0.035409,-31.495672,176.698194,-152.811932,0.077928,-3.062875,-2.338990,5.099113,3.106138,2.217086,-4.893494,-0.011544,0.571027,0.005384,-104.287169,188.646842,1039.154829,980.501905,0
0.036451,-102.658520,179.766744,-99.371591,1.073208,-1.131523,-3.819271,4.524482,1.249885,3.786649,-4.398953,-0.029809,0.557179,-0.031958,-35.330101,188.495848,1039.193001,980.396581,0
0.037493,-146.701450,179.790906,-11.190720,2.701848,0.902786,-4.815386,3.464773,-0.826914,4.823233,-3.374293,-0.040768,0.553651,-0.050629,44.642907,188.503307,1041.358780,980.206138,0
0.038534,-168.966778,146.254316,67.437121,4.206078,2.567867,-5.017784,1.942374,-2.517759,5.087624,-1.972501,-0.102869,0.557440,-0.031958,113.204126,188.518744,1041.651089,979.853163,0
0.039576,-185.084471,64.877347,122.083902,5.246598,4.254249,-4.418528,-0.247940,-4.160820,4.474907,0.158649,-0.143052,0.525561,-0.013287,161.463895,188.573995,1042.225746,978.988736,0
0.040618,-166.471428,-11.691423,162.130304,6.004368,4.982056,-3.382727,-1.904668,-5.006242,3.513864,1.770353,-0.161317,0.558224,-0.046895,190.541904,188.495595,1043.223207,978.334031,0
0.041659,-119.150516,-82.147255,183.156819,6.411528,5.038860,-1.418278,-3.714383,-5.079757,1.642139,3.495909,-0.186888,0.562731,-0.013287,185.079174,188.570984,1044.197731,978.328526,0
0.042701,-39.197230,-133.877686,186.382198,6.535938,4.311053,0.605700,-4.725584,-4.337256,-0.405847,4.588168,-0.223418,0.550711,-0.005818,155.605315,188.495716,1043.811206,977.773656,0
0.043743,32.566771,-176.535358,153.082008,5.879958,3.089757,2.486808,-5.210662,-3.172043,-2.315342,5.054246,-0.256295,0.563254,-0.005818,107.583056,188.571145,1045.668832,977.104835,0
0.044784,102.187039,-178.939458,100.380303,4.850748,1.243613,3.971059,-4.677076,-1.271680,-3.792578,4.602399,-0.256295,0.564234,-0.035692,40.175458,188.495781,1045.845930,976.131491,0
0.045826,146.252653,-179.966335,11.017614,3.222108,-0.840401,4.963205,-3.613636,0.772037,-4.795587,3.513698,-0.230724,0.553063,-0.039427,-38.485591,188.495689,1045.863285,974.547175,0
0.046868,168.052939,-145.354545,-67.979546,1.683948,-2.473529,5.074325,-2.009147,2.466558,-5.072569,2.097675,-0.201500,0.551757,-0.020755,-110.157059,188.500017,1046.001718,974.058529,0
0.047909,184.873867,-65.898439,-121.764584,0.677358,-4.216715,4.522692,0.084152,4.139024,-4.493425,0.023451,-0.139399,0.552149,-0.031958,-154.989898,188.571284,1046.477814,973.763511,0
0.048951,165.965919,12.712003,-161.860228,-0.103032,-4.916120,3.474986,1.666253,4.925635,-3.515596,-1.556233,-0.106522,0.552475,-0.020755,-186.386457,188.495662,1045.783194,972.523374,0
0.049993,118.213992,83.626910,-182.874432,-0.521502,-4.972924,1.522442,3.561789,4.995474,-1.639674,-3.306694,-0.059033,0.552083,-0.002084,-179.996308,188.571056,1046.131096,972.251140,0
0.051034,41.039619,134.125088,-185.927463,-0.578052,-4.262869,-0.414226,4.554333,4.330163,0.341165,-4.377606,-0.033462,0.565475,-0.024490,-150.330178,188.491634,1045.869738,972.541878,0
0.052076,-33.094965,176.601547,-152.701137,0.032688,-3.038023,-2.331052,5.102844,3.106138,2.217086,-4.836568,-0.029809,0.558616,-0.046895,-103.665119,188.570828,1044.991043,972.487426,0
0.053118,-102.805973,179.428478,-99.334659,1.061898,-1.167026,-3.791491,4.520751,1.227830,3.748879,-4.395395,-0.022503,0.559269,-0.043161,-37.863541,188.495332,1044.550355,972.197425,0
0.054159,-147.007697,179.537207,-11.744697,2.701848,0.824680,-4.843166,3.520744,-0.775454,4.802249,-3.384967,-0.055380,0.555611,-0.009553,43.251777,188.570676,1043.910640,972.531879,0
0.055201,-168.467708,145.855646,68.532765,4.240008,2.518163,-5.001909,1.975956,-2.477326,5.062444,-1.961828,-0.084604,0.554108,-0.043161,113.475566,188.495360,1042.944520,972.482535,0
0.056243,-184.914334,64.973994,122.440909,5.269218,4.225846,-4.410590,-0.214358,-4.138765,4.500087,0.115955,-0.088257,0.536928,-0.020755,161.576995,188.570635,1042.454983,973.181013,0
0.057284,-166.664250,-10.724951,162.314963,5.993058,4.960754,-3.458130,-1.792727,-4.991539,3.560028,1.706312,-0.190541,0.563711,-0.009553,190.123434,188.495305,1041.900362,973.839109,0
0.058326,-118.379226,-83.258698,182.664394,6.434148,5.049511,-1.465901,-3.662144,-4.973160,1.663123,3.499467,-0.183235,0.545747,-0.009553,183.970794,188.495347,1040.642931,973.326696,0
0.059368,-39.174545,-134.058900,186.505304,6.490698,4.325254,0.482674,-4.662151,-4.366662,-0.368076,4.541916,-0.212459,0.548817,-0.035692,155.209465,188.495390,1039.900873,973.882054,0
0.060409,31.738768,-176.523277,152.700379,5.891268,3.174964,2.375688,-5.225588,-3.241882,-2.160064,5.047130,-0.241683,0.571354,-0.009553,109.121216,188.570747,1038.026693,975.080642,0
0.061464,103.967811,-178.697840,98.373675,4.828128,1.282666,3.955184,-4.688270,-1.308438,-3.779988,4.598842,-0.208806,0.563384,-0.020755,37.913458,188.495381,1036.867813,976.125766,0
0.062499,146.921861,-179.591827,9.257197,3.165558,-0.765845,4.939393,-3.617367,0.698522,-4.778801,3.556393,-0.212459,0.553455,-0.058098,-40.498771,188.495358,1035.573596,977.603875,0
0.063534,168.563352,-145.825700,-67.474811,1.672638,-2.420274,5.062419,-2.109894,2.418773,-5.080962,2.186622,-0.164970,0.561098,-0.050629,-108.743309,188.492520,1035.079336,978.817383,0
0.064576,184.261372,-65.209828,-122.330872,0.654738,-4.163461,4.562378,0.054301,4.080212,-4.547982,0.062587,-0.143052,0.555611,-0.050629,-154.865488,188.571049,1033.980709,979.830779,0
0.065618,166.136057,13.328129,-161.761743,-0.080412,-4.894818,3.514672,1.655059,4.921959,-3.561760,-1.531328,-0.084604,0.546204,-0.024490,-184.045288,188.495651,1033.576857,980.629248,0
0.066659,118.599637,83.336968,-182.603599,-0.476262,-4.983575,1.589908,3.528206,5.002825,-1.711018,-3.249768,-0.059033,0.563123,-0.039427,-179.476048,188.495810,1032.698920,981.374426,0
0.067701,39.905369,134.475435,-186.062879,-0.532812,-4.294821,-0.334855,4.531945,4.366921,0.282411,-4.356259,-0.051727,0.558028,-0.061832,-149.561098,188.498572,1031.781185,982.505883,0
0.068743,-33.911625,176.613628,-152.541099,0.055308,-3.080626,-2.239775,5.035680,3.161275,2.170923,-4.793874,-0.029809,0.553520,-0.043161,-103.031759,188.646489,1030.573026,983.219747,0
0.069784,-102.851343,179.331831,-99.765531,1.061898,-1.216730,-3.771648,4.494631,1.279291,3.748879,-4.409626,-0.048074,0.564691,-0.009553,-34.968181,188.495649,1030.437557,983.829109,0
0.070826,-147.075752,179.331831,-10.919886,2.735778,0.824680,-4.847135,3.524475,-0.735021,4.772872,-3.413429,-0.048074,0.555415,-0.005818,44.631597,188.495721,1029.528722,984.477008,0
0.071868,-168.320256,145.239520,69.283712,4.240008,2.514612,-4.962224,1.957300,-2.458947,5.054051,-1.926249,-0.110175,0.547837,-0.024490,114.708356,188.495685,1029.067142,984.226623,0
0.072909,-185.039101,65.867981,122.724053,5.223978,4.193894,-4.434402,-0.154656,-4.113035,4.479104,0.080376,-0.139399,0.549340,-0.031958,161.950225,188.571131,1028.694540,984.263554,0
0.073951,-166.108468,-11.727666,162.450379,6.015678,4.953654,-3.370821,-1.792727,-4.910673,3.551635,1.688523,-0.168623,0.559073,-0.013287,190.869894,188.495712,1027.334011,984.003260,0
0.074993,-117.710018,-84.116442,182.799811,6.456768,4.996257,-1.434152,-3.647218,-4.969485,1.633746,3.449657,-0.197847,0.569198,0.020321,184.332714,188.495651,1026.583378,984.016276,0
0.076034,-40.206712,-134.336760,185.889773,6.445458,4.314603,0.514422,-4.636031,-4.362986,-0.342896,4.506338,-0.205153,0.561425,-0.013287,155.028505,188.495718,1026.066606,983.903018,0
0.077076,32.668853,-176.764895,152.503410,5.857338,3.167864,2.328065,-5.221856,-3.249234,-2.193638,5.061362,-0.230724,0.570832,0.020321,107.413406,188.571169,1026.351291,984.255069,0
0.078118,103.661564,-178.806568,98.755303,4.850748,1.293317,3.840095,-4.658419,-1.356222,-3.696054,4.556147,-0.241683,0.558877,-0.024490,38.535508,188.495660,1024.984047,984.139045,0
0.079159,147.091998,-179.253562,11.202273,3.142938,-0.726792,4.879864,-3.639755,0.621331,-4.778801,3.609760,-0.186888,0.554566,-0.028224,-39.232051,188.495718,1024.652083,984.918399,0
0.080201,168.279789,-145.161250,-67.991856,1.717878,-2.352819,5.094168,-2.113625,2.352610,-5.059979,2.172390,-0.168623,0.558093,-0.017021,-109.919549,188.492225,1023.463829,984.832823,0
0.081243,184.408825,-63.663472,-122.564773,0.677358,-4.074704,4.498880,0.009524,4.043455,-4.485032,0.098165,-0.150358,0.543330,-0.017021,-155.600638,188.700399,1022.092882,984.703686,0
0.082284,165.682357,12.470385,-162.192614,-0.125652,-4.841564,3.534514,1.595357,4.877850,-3.628907,-1.424593,-0.084604,0.558093,-0.017021,-186.363837,188.488102,1020.590439,985.714547,0
0.083326,118.111909,83.638991,-182.517425,-0.521502,-4.962274,1.629594,3.483430,4.944013,-1.727805,-3.192843,-0.033462,0.562274,-0.017021,-180.064168,188.518257,1019.221946,985.497576,0
0.084368,38.351446,134.765376,-185.718182,-0.600672,-4.255768,-0.318980,4.472243,4.330163,0.261428,-4.292217,-0.029809,0.550254,-0.013287,-149.289658,188.509987,1017.688968,985.317761,0
0.085409,-32.845430,176.782760,-152.196402,0.032688,-3.133880,-2.192152,5.050605,3.187005,2.086989,-4.829452,-0.037115,0.568610,0.031524,-102.828179,188.495448,1017.161245,986.022218,0
0.086451,-103.271015,179.041890,-99.396212,1.095828,-1.280635,-3.712120,4.554333,1.345454,3.660749,-4.434531,-0.037115,0.563319,0.005384,-37.852231,188.495322,1015.642445,987.019898,0
0.087493,-146.928300,179.138537,-9.775000,2.781018,0.743024,-4.779669,3.550595,-0.650478,4.743495,-3.377851,-0.044421,0.551038,0.012853,44.484567,188.567778,1014.175438,987.203591,0
0.088534,-168.581133,145.444895,69.123674,4.206078,2.418755,-4.914600,1.994613,-2.378081,5.003690,-2.061448,-0.073645,0.553716,-0.035692,114.391676,188.510346,1012.491940,988.559813,0
0.089576,-184.245126,65.867981,123.339584,5.246598,4.126439,-4.434402,-0.124805,-4.050547,4.533661,-0.008570,-0.143052,0.555415,-0.002084,161.757955,188.570794,1011.119880,989.904914,0
0.090618,-166.017728,-13.406911,162.204167,5.993058,4.879098,-3.462099,-1.695712,-4.888618,3.572618,1.578230,-0.157664,0.567827,-0.005818,189.965094,188.489285,1009.312148,990.947488,0
0.091659,-118.299828,-83.802339,182.356629,6.400218,4.985606,-1.497650,-3.550202,-4.973160,1.692500,3.367827,-0.186888,0.557179,-0.005818,183.360054,188.495202,1008.203336,991.494850,0
0.092701,-40.342822,-134.312599,185.778978,6.490698,4.374958,0.407270,-4.572598,-4.396068,-0.246372,4.470759,-0.201500,0.564756,-0.005818,155.390425,188.495179,1007.058579,992.488455,0
0.093743,34.098008,-176.474954,151.986364,5.879958,3.217567,2.276473,-5.169617,-3.230855,-2.105507,4.979531,-0.234377,0.552736,-0.020755,107.990216,188.425081,1004.884738,992.287731,0
0.094784,103.434714,-179.011943,99.186175,4.828128,1.378523,3.768661,-4.669613,-1.418710,-3.649890,4.627304,-0.234377,0.561359,0.001650,38.569438,188.495347,1004.541113,993.577513,0
0.095826,147.273478,-178.492465,11.374621,3.222108,-0.606082,4.856053,-3.721845,0.544141,-4.715850,3.634665,-0.201500,0.561751,-0.002084,-38.881441,188.495166,1002.978952,994.035368,0
0.096868,168.189049,-144.847147,-69.087500,1.729188,-2.296015,5.042576,-2.184521,2.312176,-5.022209,2.218642,-0.183235,0.549993,-0.024490,-109.512389,188.495227,1001.795250,994.626203,0
0.097909,183.841700,-64.364164,-123.254167,0.654738,-4.021450,4.514755,-0.061372,4.021400,-4.526999,0.179996,-0.121134,0.547249,0.001650,-155.589328,188.495332,1001.142810,995.810368,0
0.098951,165.727727,12.023392,-162.512690,-0.103032,-4.795411,3.590075,1.509535,4.837417,-3.662480,-1.374783,-0.095563,0.566585,-0.028224,-184.441138,188.495191,1000.343958,996.233838,0
0.099993,117.079742,85.028295,-182.123485,-0.487572,-4.972924,1.657374,3.382683,4.969744,-1.761378,-3.153706,-0.048074,0.526280,-0.013287,-178.797448,188.495220,999.333541,997.240478,0
0.101034,38.725748,135.127803,-185.730493,-0.544122,-4.255768,-0.318980,4.431198,4.366921,0.232051,-4.256639,-0.026156,0.546073,-0.005818,-148.497958,188.495354,998.883948,997.826931,0
0.102076,-32.697977,176.988136,-151.962500,0.055308,-3.148081,-2.180246,4.998366,3.175978,2.082792,-4.808105,-0.015197,0.569198,-0.050629,-103.088309,188.570550,998.646243,997.573292,0
0.103118,-103.962908,179.090213,-98.448296,1.129758,-1.269984,-3.692277,4.524482,1.334427,3.702716,-4.381164,-0.018850,0.557636,-0.020755,-34.018141,188.495202,998.599338,997.228799,0
0.104159,-147.461397,178.921080,-9.787311,2.735778,0.735923,-4.732046,3.520744,-0.646803,4.701529,-3.370735,-0.055380,0.550842,-0.002084,46.079277,188.495246,998.058345,997.104757,0
0.105201,-168.785298,145.191196,68.754356,4.206078,2.415205,-4.902695,2.061778,-2.344999,5.033067,-2.050774,-0.095563,0.558812,-0.039427,114.289886,188.467867,997.961716,997.286873,0
0.106243,-184.528689,64.382030,123.511932,5.269218,4.133539,-4.430433,-0.098685,-4.017465,4.487497,0.034124,-0.132093,0.551430,-0.002084,162.334765,188.491133,997.355242,996.623415,0
0.107284,-165.734165,-13.418992,162.561175,5.959128,4.857796,-3.394633,-1.684517,-4.903321,3.547438,1.592461,-0.168623,0.560249,-0.013287,190.745484,188.495273,997.609349,996.412891,0
0.108326,-118.277143,-83.512397,182.701326,6.400218,5.031760,-1.517493,-3.539008,-4.947430,1.717680,3.385616,-0.197847,0.559726,0.001650,184.389264,188.523522,997.616717,996.418091,0
0.109368,-38.709502,-134.868320,185.495834,6.434148,4.282651,0.419176,-4.568866,-4.355634,-0.254766,4.428065,-0.234377,0.566455,-0.050629,154.610035,188.500978,996.570295,996.126577,0
0.110409,34.234118,-176.764895,152.072538,5.846028,3.150112,2.304253,-5.109915,-3.186746,-2.092917,4.951068,-0.241683,0.563711,-0.013287,106.237166,188.699348,996.285568,995.572323,0
