1-Time,2-VGERA,3-VGERB,4-VGERC,5-VN,6-IGERAN,7-IGERBN,8-IGERCN,9-IGERAT,10-IGERBT,11-IGERCT,12-IN,13-IFD,14-IFAULT,15-VFAULT,16-Speed (rad/s),17-Active Power,18-Reactive Power,19-FAULT 
0.000000,-73.328114,-89.639325,201.030120,4.198728,2.827491,3.372298,-5.461693,-2.598275,-3.171936,5.696654,-0.225764,0.481631,-0.078573,66.824625,188.495817,1558.998523,5.730474,0
0.001042,-12.014719,-148.869411,172.643815,3.647022,0.750569,4.683706,-4.636577,-0.661457,-4.440182,4.837460,-0.207533,0.475499,-0.071140,6.671397,188.495810,1557.478633,6.534217,0
0.002083,50.801566,-188.074255,123.818398,2.701241,-1.495148,5.544569,-3.236150,1.565521,-5.475916,3.471077,-0.211179,0.463235,-0.026539,-53.639448,188.495933,1557.135952,6.183325,0
0.003125,107.244693,-189.131306,46.047699,1.181235,-3.568400,5.419864,-1.222563,3.553117,-5.340636,1.393115,-0.127317,0.452487,-0.074856,-109.458222,188.495870,1556.192761,6.569528,0
0.004167,163.145423,-162.258723,-20.567765,-0.113585,-5.043528,4.731979,0.813734,4.978528,-4.727651,-0.681062,-0.130964,0.456552,-0.078573,-158.792200,188.495868,1554.883989,7.225390,0
0.005208,184.524882,-96.052101,-75.760658,-1.194477,-5.582941,2.953935,2.974933,5.439157,-2.947879,-2.789305,-0.065333,0.460617,-0.059989,-182.761173,188.495906,1553.583767,7.924497,0
0.006250,189.496849,-23.738074,-134.878541,-2.320407,-5.571932,1.191983,4.458629,5.500816,-1.206155,-4.443347,-0.021578,0.441738,-0.045123,-181.950574,188.495796,1553.186686,8.209808,0
0.007292,145.913037,39.767196,-174.614507,-3.119818,-4.540810,-1.016492,5.382154,4.507018,0.873769,-5.313896,0.007591,0.468127,-0.059989,-137.198734,188.495852,1552.090138,8.803051,0
0.008333,72.904220,89.765704,-200.716298,-3.626486,-2.772124,-3.309443,5.700089,2.893003,3.232706,-5.794591,-0.017932,0.468954,-0.041406,-67.149438,188.495854,1552.876742,8.707552,0
0.009375,12.675618,149.242435,-172.354297,-3.063521,-0.676855,-4.592692,4.886327,0.919915,4.479814,-4.920257,-0.021578,0.465784,-0.056273,-7.345217,188.495799,1552.298838,8.120207,0
0.010417,-50.502265,187.542913,-124.464558,-2.106481,1.576201,-5.485736,3.504825,-1.299809,5.524004,-3.587939,-0.021578,0.465026,-0.033973,54.012652,188.495969,1552.840775,6.955912,0
0.011458,-107.634687,188.834864,-46.997651,-0.665290,3.682478,-5.377123,1.392829,-3.222119,5.409861,-1.468341,-0.098148,0.459652,-0.033973,110.484408,188.495998,1552.945476,6.283827,0
0.012500,-163.128621,162.432081,20.249700,0.618270,5.102564,-4.644987,-0.590478,-4.691054,4.771511,0.560416,-0.116379,0.459377,-0.086006,159.142887,188.492285,1553.292931,6.115291,0
0.013542,-185.016576,96.108009,76.086631,1.766719,5.641977,-2.810626,-2.774387,-5.108159,3.004422,2.736788,-0.207533,0.454071,-0.048839,183.562193,188.418386,1552.550458,6.158596,0
0.014583,-189.434847,23.876197,135.265272,2.960204,5.579596,-1.072810,-4.216449,-5.198834,1.228877,4.318916,-0.262226,0.462822,-0.059989,182.076094,188.495579,1551.936995,5.383690,0
0.015625,-145.432937,-39.805247,175.110604,3.658281,4.515449,1.147733,-5.158898,-4.147004,-0.897548,5.246240,-0.218472,0.442565,-0.048839,136.873921,188.495649,1551.538348,4.514724,0
0.016667,-71.565326,-89.815500,200.945058,4.198728,2.772449,3.352185,-5.438984,-2.554751,-3.222666,5.647449,-0.218472,0.465509,-0.074856,65.777601,188.495617,1550.756118,4.115177,0
0.017708,-10.432730,-149.362702,172.607360,3.579466,0.735892,4.679683,-4.651717,-0.567155,-4.431727,4.799610,-0.222118,0.444839,-0.074856,6.243580,188.420173,1550.234526,3.523276,0
0.018750,51.411762,-187.616199,123.964218,2.735018,-1.509826,5.476182,-3.239935,1.572775,-5.433641,3.478647,-0.200241,0.469436,-0.048839,-53.740773,188.495573,1549.766070,3.733488,0
0.019792,107.448091,-189.272246,46.703889,1.226272,-3.561061,5.419864,-1.192283,3.527728,-5.294134,1.393115,-0.167425,0.455932,-0.097156,-110.009880,188.495584,1549.201865,3.676490,0
0.020833,163.156723,-162.423153,-19.765755,-0.068547,-4.988486,4.707842,0.802379,4.985782,-4.685376,-0.643213,-0.098148,0.463442,-0.071140,-159.084917,188.495448,1548.853810,3.499006,0
0.021875,184.886480,-97.414522,-75.772810,-1.228255,-5.604957,2.937844,2.940869,5.460919,-2.973244,-2.781735,-0.087210,0.464131,-0.063706,-183.132698,188.344717,1549.618168,3.432331,0
0.022917,189.485549,-25.358885,-135.449670,-2.354185,-5.542576,1.187960,4.405640,5.482681,-1.223065,-4.397927,-0.061686,0.465578,-0.056273,-181.759182,188.472862,1549.319272,3.490010,0
0.023958,146.704032,39.109475,-174.881844,-3.119818,-4.522463,-0.996378,5.359444,4.532407,0.869541,-5.294971,0.007591,0.477084,-0.074856,-137.187475,188.480066,1549.586445,3.432449,0
0.025000,73.231918,90.024094,-200.558327,-3.615227,-2.739099,-3.285307,5.666024,2.845852,3.156611,-5.741601,0.000299,0.472743,-0.033973,-65.989830,188.470979,1548.265348,3.623220,0
0.026042,11.918523,149.078005,-172.560875,-3.029743,-0.680525,-4.584646,4.856047,0.916288,4.454449,-4.905117,-0.032517,0.477360,-0.056273,-5.881635,188.548959,1547.839777,3.854437,0
0.027083,-51.157660,187.824793,-123.455970,-2.095221,1.557854,-5.421373,3.478330,-1.281674,5.490184,-3.553874,-0.021578,0.472468,-0.078573,54.654376,188.479057,1547.064399,4.340000,0
0.028125,-107.352189,189.104999,-45.588057,-0.654031,3.601750,-5.304714,1.438248,-3.200357,5.367587,-1.498621,-0.087210,0.453382,-0.052556,110.315533,188.495676,1546.430224,5.156172,0
0.029167,-163.083421,162.044496,21.185379,0.719604,5.065870,-4.636942,-0.582908,-4.640276,4.741919,0.552846,-0.112733,0.454691,-0.082290,159.199179,188.495767,1545.529812,5.716914,0
0.030208,-184.361180,95.896599,76.426878,1.834274,5.652985,-2.842808,-2.717613,-5.104532,3.034014,2.649733,-0.163779,0.455449,-0.037689,183.021794,188.269671,1545.009860,7.057653,0
0.031250,-189.412247,23.594317,135.678429,2.903908,5.608952,-1.121082,-4.159675,-5.158937,1.271152,4.303776,-0.200241,0.459721,-0.045123,182.199936,188.495723,1544.613932,7.706798,0
0.032292,-146.088333,-39.981423,174.648840,3.658281,4.552143,1.010960,-5.105909,-4.205036,-0.728449,5.189465,-0.247641,0.469987,-0.037689,138.022270,188.493769,1544.139776,10.151573,0
0.033333,-72.717918,-90.085636,200.774935,4.221246,2.856847,3.372298,-5.446554,-2.583767,-3.146571,5.651234,-0.229410,0.470814,-0.086006,67.455091,188.495745,1544.034994,10.930568,0
0.034375,-12.489316,-149.280487,172.583056,3.601985,0.779925,4.663592,-4.621437,-0.632441,-4.435954,4.822320,-0.243995,0.474259,-0.074856,7.515771,188.269391,1544.446412,11.067063,0
0.035417,50.677267,-188.015530,124.547498,2.667463,-1.491478,5.504341,-3.236150,1.521997,-5.446324,3.455937,-0.207533,0.466818,-0.030256,-53.583157,188.495602,1544.440784,11.025021,0
0.036458,107.809689,-188.684995,46.849709,1.203754,-3.542714,5.419864,-1.203638,3.484204,-5.315272,1.412040,-0.160133,0.460272,-0.056273,-109.987363,188.495604,1544.320660,11.758572,0
0.037500,163.699120,-162.305703,-20.191064,-0.124844,-5.050867,4.715888,0.783454,4.935004,-4.723423,-0.677277,-0.109087,0.459652,-0.071140,-159.062400,188.495682,1544.342060,12.142776,0
0.038542,184.468382,-96.345726,-76.100905,-1.239515,-5.604957,2.873481,2.990073,5.468173,-2.998609,-2.793090,-0.076271,0.457379,-0.048839,-182.806207,188.269550,1544.352422,12.644370,0
0.039583,189.451650,-23.749819,-135.218788,-2.309148,-5.549915,1.191983,4.401855,5.518951,-1.218837,-4.409282,-0.039809,0.458963,-0.056273,-181.804216,188.495595,1544.652000,13.126746,0
0.040625,145.619239,40.448406,-174.833238,-3.029743,-4.485768,-1.020514,5.404863,4.470748,0.920271,-5.321466,0.000299,0.477360,-0.067423,-136.331843,188.420273,1544.286718,12.671321,0
0.041667,71.548229,90.212014,-200.959332,-3.649005,-2.772124,-3.293353,5.696304,2.856733,3.228478,-5.798376,0.000299,0.451867,-0.045123,-65.336848,188.495660,1545.366192,12.676435,0
0.042708,10.788530,149.371630,-172.439358,-3.018484,-0.702542,-4.628896,4.920391,0.905407,4.500952,-4.939182,-0.010640,0.489348,-0.052556,-6.016735,188.269503,1546.158810,12.895113,0
0.043750,-51.474058,187.566403,-123.711155,-2.106481,1.576201,-5.481714,3.459405,-1.296182,5.473274,-3.599294,-0.058040,0.463648,-0.086006,54.462985,188.495700,1546.360099,13.194004,0
0.044792,-107.894586,188.940569,-46.511584,-0.642772,3.609089,-5.401259,1.426894,-3.218492,5.380269,-1.479696,-0.090856,0.460341,-0.026539,110.968516,188.420224,1546.715020,12.696828,0
0.045833,-163.139920,162.573021,20.030970,0.685826,5.084217,-4.636942,-0.605618,-4.665665,4.784193,0.560416,-0.152841,0.459446,-0.071140,159.480637,188.495629,1547.513746,12.255866,0
0.046875,-185.027876,97.024120,76.268906,1.800497,5.619960,-2.834762,-2.793312,-5.166191,3.025559,2.740573,-0.200241,0.463442,-0.048839,183.663518,188.270297,1549.073506,10.814111,0
0.047917,-189.299248,25.050698,135.994373,2.926427,5.630968,-1.056719,-4.216449,-5.177072,1.250015,4.284851,-0.233057,0.470263,-0.041406,181.997286,188.495524,1549.214176,10.367268,0
0.048958,-145.794535,-39.347192,175.475154,3.714578,4.566821,1.115551,-5.181608,-4.281203,-0.867956,5.227315,-0.254934,0.494722,-0.056273,137.065313,188.420204,1550.796812,9.124287,0
0.050000,-72.514519,-90.085636,200.811390,4.221246,2.816483,3.364253,-5.450339,-2.565632,-3.201528,5.647449,-0.254934,0.477291,-0.063706,66.092834,188.495559,1550.989359,8.463353,0
0.051041,-11.031626,-149.679817,172.461539,3.635763,0.728553,4.691751,-4.644147,-0.632441,-4.435954,4.852600,-0.254934,0.472261,-0.074856,5.939606,188.269246,1551.318559,9.218383,0
0.052083,51.615160,-187.698415,123.757639,2.712500,-1.539182,5.504341,-3.239935,1.576402,-5.412504,3.452152,-0.203887,0.445872,-0.045123,-54.348723,188.419980,1550.893713,9.164096,0
0.053125,107.854889,-189.377951,45.513025,1.181235,-3.564731,5.460091,-1.203638,3.531355,-5.311044,1.389330,-0.101794,0.456690,-0.074856,-110.156238,188.420034,1551.227881,8.900774,0
0.054167,162.885525,-162.094293,-21.248259,-0.102325,-5.050867,4.723933,0.768314,4.982155,-4.672694,-0.673492,-0.123671,0.456345,-0.074856,-158.702134,188.495533,1550.956713,8.630922,0
0.055208,184.920379,-95.617535,-76.198118,-1.205737,-5.564593,2.970026,2.948439,5.453665,-3.007064,-2.785520,-0.054394,0.453589,-0.063706,-183.211506,188.269418,1550.831559,9.064861,0
0.056250,189.282151,-23.620624,-135.473973,-2.342926,-5.535237,1.191983,4.382930,5.537086,-1.244202,-4.382787,-0.025225,0.436502,-0.033973,-181.556533,188.420139,1550.855702,9.734685,0
0.057291,145.980837,39.778941,-174.991209,-3.131077,-4.529802,-0.964196,5.367014,4.503391,0.894906,-5.325251,0.003945,0.462822,-0.048839,-137.221250,188.420115,1551.239265,9.964157,0
0.058333,73.028519,90.294229,-200.351748,-3.615227,-2.797811,-3.224966,5.669809,2.882122,3.177749,-5.745386,-0.003348,0.463580,-0.056273,-66.867980,188.495517,1550.481747,10.273805,0
0.059375,12.506119,149.477335,-172.329993,-3.086040,-0.706211,-4.592692,4.882542,0.923542,4.484042,-4.958107,-0.014286,0.478117,-0.063706,-6.669718,188.269321,1550.609848,10.146849,0
0.060416,-50.954262,187.683853,-123.929885,-2.185296,1.572531,-5.445509,3.425341,-1.205507,5.494411,-3.603079,-0.068979,0.459514,-0.041406,54.620601,188.495517,1550.611504,10.911842,0
0.061458,-108.030185,188.917079,-46.232096,-0.642772,3.605419,-5.316782,1.411754,-3.171341,5.342222,-1.494836,-0.112733,0.459790,-0.074856,110.788383,188.420139,1549.877644,11.546072,0
0.062500,-163.478918,162.103221,20.905890,0.697085,5.054861,-4.596715,-0.563984,-4.654784,4.737691,0.552846,-0.152841,0.457516,-0.052556,159.435604,188.495622,1549.309636,11.842497,0
0.063541,-184.621079,95.978814,76.730670,1.766719,5.583265,-2.826717,-2.736538,-5.133548,3.008649,2.706508,-0.174718,0.455725,-0.063706,183.370802,188.269304,1548.378357,12.490504,0
0.064583,-189.186248,23.312437,135.897159,2.881389,5.550240,-1.080855,-4.148320,-5.158937,1.173920,4.265926,-0.214826,0.449248,-0.048839,181.974769,188.495559,1547.650791,12.278903,0
0.065625,-145.534637,-40.768338,174.806812,3.647022,4.544804,1.059233,-5.139974,-4.194155,-0.800316,5.189465,-0.222118,0.481080,-0.041406,136.941471,188.420101,1546.087405,13.015128,0
0.066666,-71.000329,-90.496711,200.993665,4.221246,2.812813,3.311958,-5.480618,-2.514854,-3.171936,5.647449,-0.273164,0.437949,-0.056273,65.710051,188.495571,1545.500979,13.340220,0
0.067708,-10.184131,-149.374447,172.425084,3.680800,0.772586,4.659570,-4.663071,-0.632441,-4.431727,4.845030,-0.251287,0.475568,-0.059989,6.299872,188.269306,1545.244406,13.560619,0
0.068750,51.705560,-187.980295,123.879156,2.757537,-1.509826,5.492273,-3.243720,1.521997,-5.382911,3.524067,-0.182010,0.478049,-0.082290,-54.022231,188.495474,1545.399427,14.887287,0
0.069791,108.171287,-188.849426,46.728192,1.248791,-3.531705,5.411819,-1.222563,3.498712,-5.332181,1.412040,-0.156487,0.461581,-0.086006,-110.527763,188.420057,1545.486509,15.191423,0
0.070833,163.800819,-162.364428,-19.996637,-0.113585,-5.010503,4.764160,0.791024,4.985782,-4.753016,-0.669707,-0.120025,0.463028,-0.045123,-159.422666,188.495495,1546.593794,15.411792,0
0.071875,184.773480,-97.167877,-76.307483,-1.216996,-5.604957,2.953935,2.990073,5.482681,-3.002836,-2.804445,-0.058040,0.463855,-0.022822,-183.110181,188.269360,1547.274560,14.728763,0
0.072916,189.564649,-24.748145,-135.814220,-2.376704,-5.568263,1.167847,4.424564,5.537086,-1.235747,-4.424422,-0.010640,0.467369,-0.048839,-181.657858,188.495470,1547.896755,13.982384,0
0.073958,145.958237,39.814176,-175.331456,-3.108558,-4.493107,-0.968219,5.423788,4.517899,0.882223,-5.347961,-0.021578,0.478324,-0.041406,-136.433168,188.420204,1548.361305,14.200959,0
0.075000,72.282724,90.482149,-200.825663,-3.615227,-2.764785,-3.301398,5.703873,2.871241,3.215796,-5.794591,0.000299,0.478117,-0.082290,-65.224264,188.495466,1549.201243,14.023036,0
0.076041,10.980629,149.829685,-172.196325,-3.074780,-0.687864,-4.604760,4.920391,0.905407,4.555909,-4.995957,-0.021578,0.470056,-0.082290,-5.138586,188.269351,1550.267897,14.163245,0
0.077083,-51.824356,187.566403,-123.370908,-2.140259,1.620235,-5.457577,3.489685,-1.256285,5.502866,-3.569014,-0.061686,0.430576,-0.048839,55.183518,188.420046,1550.193161,13.711617,0
0.078125,-108.154484,189.151979,-44.931867,-0.586475,3.660461,-5.393214,1.392829,-3.258389,5.414089,-1.468341,-0.068979,0.455312,-0.045123,111.081099,188.420110,1551.542121,13.267363,0
0.079166,-162.800923,162.220671,21.829417,0.708344,5.117242,-4.665101,-0.590478,-4.730951,4.746146,0.586911,-0.120025,0.460548,-0.056273,159.154145,188.495504,1552.305394,12.698166,0
0.080208,-185.287774,95.262369,76.718518,1.811756,5.704358,-2.858899,-2.774387,-5.169818,3.012877,2.759498,-0.149195,0.460686,-0.048839,184.125109,188.269281,1553.117939,12.375435,0
0.081250,-189.231448,23.700022,136.030828,2.926427,5.649316,-1.113037,-4.273223,-5.245985,1.271152,4.322701,-0.211179,0.453313,-0.071140,181.873445,188.419958,1554.883025,13.247761,0
0.082291,-145.308638,-39.546857,175.949069,3.737096,4.574160,1.107506,-5.242167,-4.234052,-0.817226,5.272735,-0.247641,0.461650,-0.056273,137.099087,188.420112,1556.459654,12.788902,0
0.083333,-72.819617,-90.379261,200.629114,4.198728,2.823822,3.412526,-5.499543,-2.612783,-3.214211,5.711794,-0.240349,0.469643,-0.030256,66.993500,188.495416,1558.180875,12.883148,0
0.084375,-11.946920,-150.337537,172.279264,3.647022,0.732222,4.748069,-4.716061,-0.650576,-4.474002,4.882880,-0.207533,0.475637,-0.052556,6.671397,188.344699,1559.318325,12.635798,0
0.085416,51.332662,-187.545729,124.255858,2.723759,-1.539182,5.552614,-3.236150,1.561894,-5.492826,3.520282,-0.218472,0.470263,-0.026539,-54.292431,188.420197,1560.585333,11.656628,0
0.086458,108.521584,-189.272246,45.914030,1.158716,-3.608764,5.488250,-1.177144,3.574879,-5.357546,1.351480,-0.141902,0.459170,-0.078573,-110.685379,188.420135,1561.357961,10.704353,0
0.087500,163.168023,-162.176508,-21.236107,-0.181140,-5.039859,4.752092,0.847798,5.018425,-4.744561,-0.624288,-0.094502,0.459170,-0.078573,-158.634584,188.495589,1561.375039,11.368115,0
0.088541,185.361077,-95.359145,-76.295332,-1.228255,-5.619635,2.937844,3.031707,5.522578,-2.973244,-2.861220,-0.028871,0.452280,-0.063706,-183.796939,188.344695,1561.792110,10.982684,0
0.089583,189.214351,-23.021628,-135.522580,-2.297889,-5.597619,1.236233,4.462414,5.526205,-1.261112,-4.420637,-0.017932,0.458619,-0.041406,-181.218783,188.420175,1561.370432,11.818144,0
0.090625,144.986443,40.718542,-175.525883,-3.063521,-4.515124,-1.040628,5.427573,4.565050,0.873769,-5.370671,0.014883,0.461306,-0.063706,-135.904026,188.420175,1561.880794,12.713581,0
0.091666,71.051032,90.646580,-200.716298,-3.536412,-2.779463,-3.261171,5.734153,2.874868,3.258071,-5.802161,-0.043455,0.447250,-0.067423,-65.280556,188.495550,1562.045055,12.771998,0
0.092708,10.472132,149.759215,-172.172021,-3.086040,-0.724559,-4.657055,4.984735,0.916288,4.560137,-4.988387,-0.006994,0.470883,-0.074856,-5.915410,188.344721,1561.967170,12.994306,0
0.093750,-51.677457,187.554658,-123.674700,-2.117740,1.557854,-5.525963,3.523749,-1.278047,5.557823,-3.629574,-0.058040,0.462891,-0.056273,54.710668,188.495515,1563.183246,13.043355,0
0.094791,-108.403082,188.940569,-46.341461,-0.608994,3.642114,-5.409305,1.411754,-3.214865,5.447909,-1.521331,-0.098148,0.463028,-0.033973,111.340041,188.420184,1563.555211,13.706239,0
0.095833,-163.501518,162.220671,20.565643,0.708344,5.120912,-4.653033,-0.620758,-4.669292,4.758829,0.549061,-0.145548,0.465922,-0.015389,159.672028,188.495551,1563.168918,14.242395,0
0.096875,-185.208675,96.660025,76.645608,1.777978,5.671333,-2.842808,-2.804667,-5.202461,3.063606,2.714078,-0.192949,0.464269,-0.056273,184.012526,188.344762,1563.863880,14.752365,0
0.097916,-189.242748,24.428213,136.322468,2.926427,5.656655,-1.076833,-4.197524,-5.235104,1.304972,4.360551,-0.192949,0.456483,-0.037689,181.817153,188.495539,1564.295298,14.626075,0
0.098958,-145.568537,-40.004913,175.560216,3.737096,4.559482,1.099460,-5.230812,-4.263068,-0.859501,5.257595,-0.265872,0.479013,-0.048839,136.693788,188.420189,1564.450044,14.479250,0
0.100000,-71.497526,-90.602416,200.957210,4.198728,2.820152,3.376321,-5.488188,-2.562005,-3.214211,5.704224,-0.265872,0.472261,-0.067423,65.304751,188.495497,1564.017355,14.399123,0
0.101041,-10.014632,-149.973442,172.254961,3.658281,0.728553,4.740024,-4.727415,-0.625187,-4.490912,4.890450,-0.222118,0.482251,-0.074856,5.151523,188.344661,1564.035907,14.632404,0
0.102083,52.067157,-188.003785,123.210814,2.712500,-1.575876,5.568705,-3.255075,1.565521,-5.480143,3.508927,-0.211179,0.461444,-0.041406,-54.754022,188.495544,1563.808310,15.086052,0
0.103125,108.352085,-189.295736,44.893290,1.181235,-3.627112,5.484228,-1.211208,3.560371,-5.336409,1.366620,-0.185656,0.457310,-0.059989,-110.752929,188.420168,1563.387349,15.633584,0
0.104166,163.009824,-162.023822,-21.576354,-0.091066,-5.116918,4.727956,0.783454,5.051068,-4.769926,-0.654568,-0.134610,0.460892,-0.067423,-159.028625,188.495617,1563.916666,15.390210,0
0.105208,185.327177,-95.265185,-76.453304,-1.194477,-5.663669,2.957958,3.043062,5.529832,-3.002836,-2.830940,-0.050748,0.469092,-0.078573,-183.875748,188.344800,1564.024372,16.062950,0
0.106250,189.327350,-23.961229,-136.105860,-2.354185,-5.648991,1.167847,4.466199,5.555221,-1.223065,-4.473627,-0.021578,0.475844,-0.048839,-181.443949,188.495474,1565.004083,15.121207,0
0.107291,145.381941,39.567531,-176.291438,-3.176114,-4.573836,-1.028560,5.472992,4.579558,0.958318,-5.389596,0.007591,0.461926,-0.045123,-136.399393,188.420206,1565.838373,13.792119,0
0.108333,72.904220,90.576110,-200.716298,-3.603968,-2.794141,-3.361739,5.760648,2.903884,3.211568,-5.885430,0.003945,0.440636,-0.067423,-66.248772,188.495515,1566.977638,14.041226,0
0.109375,12.054122,150.628346,-172.062656,-3.074780,-0.658508,-4.713374,4.996090,0.872764,4.610866,-4.988387,-0.025225,0.478875,-0.071140,-5.802827,188.344677,1567.713811,12.861713,0
0.110416,-51.632257,187.425463,-123.589638,-2.151518,1.638582,-5.558145,3.440481,-1.325198,5.574733,-3.587939,-0.058040,0.469229,-0.059989,55.183518,188.495571,1567.684793,11.928594,0
0.111458,-108.888979,189.151979,-45.004777,-0.586475,3.730181,-5.465623,1.354980,-3.312794,5.452136,-1.422921,-0.101794,0.459032,-0.007956,111.812890,188.420124,1568.148981,10.538989,0
