1-Time,2-VGERA,3-VGERB,4-VGERC,5-VN,6-IGERAN,7-IGERBN,8-IGERCN,9-IGERAT,10-IGERBT,11-IGERCT,12-IN,13-IFD,14-IFAULT,15-VFAULT,16-Speed (rad/s),17-Active Power,18-Reactive Power,19-FAULT 
0.000000,187.153710,-102.962653,-19.537311,2.543508,-5.036829,-0.703933,5.684938,5.513755,0.592966,-5.345340,-0.011544,0.197891,-0.069301,169.222555,188.420303,1006.731568,-1299.588858,0
0.001042,189.252073,-55.436376,-94.767425,1.141068,-3.584766,-3.001743,6.166285,4.113294,2.964098,-6.014215,0.003068,0.198022,-0.039427,174.764455,188.495702,1006.746612,-1300.179413,0
0.002083,146.921861,-10.712870,-167.830872,-0.193512,-1.387143,-4.612988,5.520758,1.896817,4.584021,-5.323993,0.050557,0.223172,-0.073035,148.898485,188.420379,1006.962160,-1300.473535,0
0.003125,91.082731,39.930280,-206.301516,-0.951282,1.211660,-5.688474,3.878955,-0.654154,5.729718,-3.918644,0.014027,0.211740,-0.028224,107.899736,188.495743,1007.306865,-1300.637056,0
0.004178,45.656016,121.186440,-178.984281,-0.476262,3.583246,-6.132956,1.938643,-3.036040,6.149388,-1.933365,-0.044421,0.192600,-0.054364,70.067787,188.420327,1007.546486,-1301.267567,0
0.005218,3.359832,186.193785,-126.898106,0.462468,5.099215,-5.124935,-0.445703,-4.664397,5.377196,0.229806,-0.088257,0.191685,-0.061832,35.515738,188.495636,1007.055513,-1300.521131,0
0.006250,-56.165611,195.822265,-72.091288,1.491678,6.348913,-3.561313,-3.050199,-5.792853,3.673339,2.855497,-0.161317,0.179927,-0.061832,-31.258501,188.420269,1006.537468,-1301.078941,0
0.007292,-141.291077,167.734163,-26.603599,2.407788,6.423469,-1.596864,-4.826331,-6.035452,1.872958,4.602399,-0.223418,0.183128,-0.076769,-116.241839,188.495635,1006.646780,-1301.179738,0
0.008333,-187.137464,103.222136,19.475000,3.267348,5.148919,0.903343,-5.807681,-4.690128,-0.611485,5.527440,-0.256295,0.195278,-0.050629,-162.952138,188.420396,1006.343411,-1300.768336,0
0.009375,-189.723554,55.756264,94.939015,4.703718,3.650701,3.165436,-6.333804,-3.333776,-2.915469,6.206988,-0.256295,0.195735,-0.084238,-170.835208,188.495694,1006.670860,-1300.808514,0
0.010417,-147.268575,10.911948,167.534660,6.049608,1.538286,4.756838,-5.673352,-1.120974,-4.556376,5.502535,-0.219765,0.206775,-0.028224,-144.268018,188.420359,1006.314620,-1300.609018,0
0.011458,-91.191252,-39.465421,206.559281,6.807378,-1.081819,5.852167,-4.061400,1.418969,-5.702073,4.040260,-0.175929,0.216247,-0.061832,-103.665119,188.495861,1006.495316,-1300.299999,0
0.012500,-46.411060,-118.414129,179.500569,6.343668,-3.410802,6.284743,-2.143476,3.826585,-6.096562,2.172390,-0.161317,0.185414,-0.054364,-66.330810,188.420260,1006.149809,-1300.056854,0
0.013542,-4.477836,-186.175920,128.177652,5.359698,-4.980025,5.356094,0.169973,5.484349,-5.446075,-0.029917,-0.110175,0.181690,-0.069301,-30.500731,188.495785,1006.353752,-1300.216318,0
0.014583,56.000377,-195.550701,72.595265,4.307868,-6.233273,3.709132,2.919993,6.664265,-3.725431,-2.673397,-0.029809,0.170520,-0.054364,36.171718,188.495640,1005.770180,-1300.489920,0
0.015625,141.069130,-167.655894,26.836743,3.436998,-6.339782,1.784369,4.684931,6.895837,-1.878886,-4.384721,-0.022503,0.185087,-0.065566,121.516976,188.495705,1005.799760,-1300.418945,0
0.016667,186.813435,-103.180109,-19.414205,2.532198,-5.072332,-0.695996,5.647624,5.565215,0.613950,-5.359571,-0.011544,0.197956,-0.050629,168.917185,188.420213,1006.044594,-1300.940227,0
0.017708,189.569663,-55.484700,-94.755114,1.129758,-3.574115,-2.962057,6.177479,4.113294,2.938918,-6.049794,0.014027,0.198806,-0.073035,175.522225,188.495627,1006.457242,-1301.122564,0
0.018750,146.989916,-10.954488,-167.806251,-0.250062,-1.401345,-4.601082,5.565534,1.915195,4.613398,-5.370245,-0.004238,0.203378,-0.024490,149.260405,188.420356,1007.013096,-1301.707920,0
0.019792,90.742456,39.688662,-206.596970,-0.973902,1.179708,-5.724192,3.942388,-0.599018,5.746505,-3.936433,-0.004238,0.186002,-0.035692,106.961006,188.495622,1007.685953,-1301.424973,0
0.020833,46.098374,119.217253,-179.316667,-0.532812,3.526442,-6.121050,2.028196,-2.958849,6.157781,-1.993848,-0.055380,0.166078,-0.046895,71.187477,188.420247,1007.886469,-1300.709276,0
0.021875,4.199177,186.072976,-128.153788,0.405918,5.113416,-5.267804,-0.341224,-4.638667,5.511490,0.165765,-0.128440,0.180384,-0.061832,36.590188,188.495834,1009.495979,-1301.225076,0
0.022917,-56.267693,195.930993,-72.669887,1.457748,6.416368,-3.616874,-3.065124,-5.814907,3.748879,2.812803,-0.161317,0.180057,-0.017021,-31.484701,188.495611,1010.672712,-1301.252398,0
0.023958,-141.166309,167.818730,-26.702083,2.396478,6.473173,-1.636550,-4.796480,-6.064858,1.914924,4.605957,-0.205153,0.184238,-0.073035,-116.716859,188.495620,1011.281960,-1301.374965,0
0.025000,-187.761301,103.246298,19.339583,3.267348,5.212824,0.891438,-5.867383,-4.730561,-0.590501,5.577249,-0.252642,0.196323,-0.061832,-163.642048,188.420443,1012.174351,-1302.053821,0
0.026042,-189.621471,55.997882,94.655871,4.669788,3.700405,3.133687,-6.386044,-3.355830,-2.957436,6.239009,-0.227071,0.196715,-0.080503,-170.552458,188.495808,1012.276798,-1302.801611,0
0.027083,-147.109780,11.395185,168.408713,6.049608,1.563138,4.788587,-5.744248,-1.146705,-4.577359,5.584365,-0.252642,0.182670,-0.061832,-145.319848,188.495750,1013.468606,-1303.578224,0
0.028125,-91.179910,-39.368774,206.497728,6.762138,-1.085370,5.887885,-4.098714,1.485133,-5.718860,4.086512,-0.183235,0.167711,-0.095440,-102.760319,188.495779,1013.536790,-1304.370645,0
0.029167,-45.843935,-119.042336,179.611364,6.354978,-3.414352,6.368083,-2.165864,3.833937,-6.201479,2.204411,-0.168623,0.187112,-0.046895,-66.319500,188.420330,1015.057078,-1305.067233,0
0.030208,-4.511863,-185.620198,128.153031,5.393628,-5.029729,5.391812,0.181168,5.510079,-5.475452,-0.005012,-0.095563,0.184173,-0.046895,-29.584621,188.495758,1015.410844,-1305.208501,0
0.031250,55.920979,-196.009775,72.755303,4.353108,-6.286527,3.768661,2.901336,6.678968,-3.733824,-2.648492,-0.062686,0.179861,-0.028224,36.035998,188.420159,1015.778554,-1305.306734,0
0.032292,140.751540,-167.329709,26.984470,3.436998,-6.339782,1.820086,4.692394,6.947297,-1.916656,-4.434531,-0.004238,0.184891,-0.043161,121.324706,188.495702,1016.317962,-1305.975577,0
0.033333,187.391902,-102.998895,-19.180303,2.554818,-5.090084,-0.684090,5.711058,5.550512,0.634933,-5.363129,0.043251,0.197564,-0.061832,169.482685,188.495854,1016.125373,-1306.212127,0
0.034375,189.342813,-56.028341,-94.545834,1.084518,-3.581215,-2.997775,6.192404,4.142700,2.938918,-6.060467,0.039598,0.202072,-0.028224,174.798385,188.495758,1016.292079,-1306.390385,0
0.035417,146.921861,-11.268591,-167.953978,-0.238752,-1.394244,-4.593145,5.580460,1.933574,4.596611,-5.348898,0.006721,0.209388,-0.046895,148.694905,188.571116,1016.217754,-1306.060140,0
0.036458,90.833196,39.652419,-206.350758,-0.962592,1.204560,-5.732129,3.953583,-0.562260,5.742308,-3.943548,-0.004238,0.185937,-0.046895,107.255066,188.495754,1016.460766,-1305.691787,0
0.037500,45.860181,118.891068,-179.489016,-0.476262,3.515791,-6.113113,2.013270,-2.984580,6.174568,-2.050774,-0.037115,0.167515,-0.069301,70.701147,188.495825,1017.080740,-1305.904838,0
0.038542,4.448712,186.157542,-127.919887,0.496398,5.134718,-5.236056,-0.341224,-4.668073,5.477917,0.176438,-0.117481,0.187112,-0.035692,37.065208,188.495497,1016.615255,-1306.136879,0
0.039583,-55.813993,196.003479,-72.620644,1.480368,6.370215,-3.569251,-3.065124,-5.811231,3.765666,2.855497,-0.172276,0.184695,-0.046895,-31.032301,188.495541,1016.386063,-1306.566092,0
0.040625,-141.347789,167.818730,-27.120644,2.396478,6.466072,-1.672268,-4.800211,-6.072210,1.927515,4.637978,-0.205153,0.185806,-0.028224,-116.253149,188.495484,1016.481036,-1307.045198,0
0.041667,-187.398341,103.693291,19.031818,3.233418,5.191522,0.879532,-5.874846,-4.745264,-0.582108,5.552345,-0.234377,0.198218,-0.035692,-163.121788,188.495805,1016.384409,-1306.888285,0
0.042708,-189.655499,56.456957,94.692803,4.692408,3.682654,3.149562,-6.382312,-3.370533,-2.957436,6.217662,-0.234377,0.199132,-0.050629,-170.789968,188.495649,1016.340610,-1306.847468,0
0.043750,-147.347972,11.407266,167.879357,6.106158,1.527635,4.736995,-5.692009,-1.154056,-4.577359,5.534555,-0.205153,0.212197,-0.046895,-144.143608,188.495830,1015.763013,-1306.532126,0
0.044792,-91.236622,-39.260046,206.682387,6.784758,-1.056968,5.840262,-4.050206,1.470430,-5.739843,4.047375,-0.230724,0.192665,-0.017021,-103.133549,188.474619,1015.518683,-1306.649181,0
0.045833,-46.150183,-118.232915,179.549811,6.321048,-3.407252,6.296649,-2.147207,3.900100,-6.125939,2.186622,-0.157664,0.153013,-0.035692,-65.923650,188.707878,1014.128229,-1306.839315,0
0.046875,-4.523206,-186.139677,127.832955,5.382318,-4.980025,5.375937,0.211018,5.513755,-5.454468,-0.005012,-0.106522,0.182736,-0.050629,-30.760861,188.496907,1014.092233,-1306.761365,0
0.047917,55.444594,-195.731915,72.656818,4.330488,-6.268776,3.796441,2.878948,6.682643,-3.733824,-2.659166,-0.022503,0.164510,-0.024490,35.911588,188.516228,1013.811606,-1306.829944,0
0.048958,140.978390,-167.631732,27.501515,3.425688,-6.378835,1.784369,4.628960,6.936270,-1.908263,-4.398953,0.006721,0.185741,-0.080503,121.415186,188.507122,1013.669851,-1306.641940,0
0.050000,187.040285,-103.530455,-18.995644,2.554818,-5.090084,-0.688059,5.707326,5.601973,0.580376,-5.430728,0.024986,0.199328,-0.050629,169.052905,188.571067,1014.630775,-1307.286657,0
0.051042,189.512950,-55.762561,-94.521212,1.129758,-3.591866,-3.005712,6.162554,4.150051,2.951508,-6.032004,0.028639,0.196781,-0.046895,175.273405,188.495665,1014.539831,-1307.115707,0
0.052083,146.842463,-11.606857,-168.101705,-0.204822,-1.408445,-4.668548,5.554340,1.922547,4.625988,-5.416497,0.003068,0.209062,-0.039427,149.203855,188.495607,1015.031939,-1307.967937,0
0.053125,91.026018,39.314154,-206.486175,-0.939972,1.197459,-5.740066,3.957314,-0.635775,5.805259,-3.911528,0.003068,0.200569,-0.020755,106.723496,188.495763,1014.306736,-1309.336545,0
0.054167,46.189114,118.999797,-179.255114,-0.521502,3.569045,-6.168673,2.002076,-2.995607,6.229125,-2.022311,-0.044421,0.169671,-0.035692,70.859487,188.570968,1014.323563,-1310.001296,0
0.055208,4.437369,186.024652,-127.612122,0.473778,5.120517,-5.275742,-0.341224,-4.664397,5.503097,0.133744,-0.139399,0.172088,-0.054364,36.906868,188.495740,1014.932293,-1309.639770,0
0.056250,-55.938761,196.136369,-72.312879,1.514298,6.412818,-3.644654,-3.076318,-5.851665,3.744683,2.873286,-0.168623,0.180449,-0.020755,-31.337671,188.571035,1014.925847,-1310.129154,0
0.057292,-140.757979,167.770406,-27.317614,2.385168,6.501575,-1.656393,-4.830062,-6.075885,1.856171,4.620189,-0.183235,0.184303,-0.035692,-116.592449,188.495843,1013.950880,-1310.245374,0
0.058333,-187.920096,103.427511,18.884091,3.267348,5.234126,0.887469,-5.889771,-4.770994,-0.653452,5.584365,-0.227071,0.196454,-0.046895,-163.732528,188.571136,1013.871643,-1311.271205,0
0.059375,-189.508046,56.662332,94.594318,4.703718,3.721707,3.185279,-6.397238,-3.337452,-2.949042,6.274587,-0.241683,0.198675,-0.039427,-170.326258,188.495741,1013.824587,-1311.751440,0
0.060417,-147.019040,12.228767,168.654925,6.106158,1.552487,4.804461,-5.747979,-1.157732,-4.594146,5.609270,-0.230724,0.220494,-0.035692,-145.240678,188.570883,1014.581918,-1312.551022,0
0.061458,-91.644952,-38.933861,206.460796,6.807378,-1.042766,5.907728,-4.091251,1.426321,-5.735646,4.090070,-0.172276,0.222519,-0.058098,-102.873419,188.495653,1015.157588,-1312.344132,0
0.062500,-46.331663,-118.921527,179.475948,6.366288,-3.471157,6.387926,-2.128550,3.889073,-6.214069,2.136812,-0.139399,0.188027,-0.061832,-66.002820,188.495613,1015.548453,-1313.135685,0
0.063542,-4.795426,-185.596036,127.562122,5.382318,-5.033279,5.419592,0.211018,5.557864,-5.458665,-0.022801,-0.110175,0.196389,-0.043161,-29.663791,188.495750,1015.199688,-1313.622280,0
0.064583,55.331169,-196.275555,72.275190,4.341798,-6.300728,3.800410,2.905068,6.712049,-3.742217,-2.694744,-0.037115,0.170389,-0.039427,35.685388,188.571058,1015.382876,-1314.299053,0
0.065625,140.445293,-167.269305,27.600000,3.448308,-6.385935,1.776432,4.696125,6.954649,-1.870492,-4.512804,0.035945,0.186459,-0.054364,121.200296,188.495580,1014.679322,-1315.725121,0
0.066667,187.766205,-103.325080,-18.724811,2.577438,-5.125586,-0.711870,5.740909,5.587270,0.626540,-5.420055,0.014027,0.198936,-0.065566,169.550545,188.495752,1014.283082,-1316.028018,0
0.067708,189.297443,-56.898166,-94.471970,1.129758,-3.606067,-3.001743,6.203599,4.161079,2.938918,-6.053352,0.024986,0.203444,-0.039427,174.515635,188.495761,1014.331736,-1316.395894,0
0.068750,147.080656,-12.041769,-168.310985,-0.204822,-1.447498,-4.624894,5.602848,1.904168,4.588218,-5.409381,0.010374,0.202464,-0.043161,148.762765,188.571225,1014.053308,-1316.255570,0
0.069792,91.513746,39.132940,-206.227652,-0.985212,1.208110,-5.736097,3.931194,-0.635775,5.775882,-3.936433,-0.051727,0.205861,-0.039427,107.560436,188.495819,1014.047766,-1316.130830,0
0.070833,46.245826,118.830664,-179.501326,-0.510192,3.569045,-6.172642,1.994613,-2.999283,6.199748,-2.025869,-0.048074,0.194037,-0.061832,70.610667,188.571089,1013.800740,-1316.024320,0
0.071875,4.709590,186.121299,-127.525947,0.451158,5.170220,-5.287647,-0.341224,-4.671749,5.486310,0.176438,-0.102869,0.184173,-0.046895,37.223548,188.495749,1013.191117,-1316.368796,0
0.072917,-55.360293,196.329663,-71.980493,1.525608,6.462522,-3.632748,-3.046467,-5.829610,3.744683,2.844823,-0.175929,0.176203,-0.024490,-30.693001,188.571067,1013.121781,-1315.869733,0
0.073958,-140.826034,167.722082,-27.280682,2.419098,6.473173,-1.640519,-4.841256,-6.145725,1.940105,4.641536,-0.179582,0.186394,-0.054364,-116.072189,188.508114,1014.575571,-1316.240281,0
0.075000,-187.557136,103.657049,18.588636,3.267348,5.187972,0.907312,-5.897234,-4.785697,-0.582108,5.580807,-0.227071,0.198479,-0.031958,-163.234888,188.571181,1015.055313,-1315.743319,0
0.076042,-189.746239,57.169730,94.569697,4.658478,3.725257,3.189248,-6.382312,-3.352155,-2.940649,6.217662,-0.252642,0.199132,-0.039427,-170.597698,188.495642,1014.822732,-1315.374877,0
0.077083,-147.620192,12.361657,167.953220,6.083538,1.513434,4.820336,-5.740517,-1.117299,-4.552179,5.591481,-0.248989,0.209911,-0.054364,-144.324568,188.571089,1014.034423,-1315.156532,0
0.078125,-91.973885,-38.716405,206.571592,6.773448,-1.092470,5.872010,-4.031549,1.437348,-5.781810,4.118532,-0.175929,0.205599,-0.020755,-103.495469,188.495712,1014.393264,-1315.961423,0
0.079167,-46.649253,-118.136268,179.599054,6.309738,-3.453405,6.332366,-2.165864,3.855991,-6.151119,2.186622,-0.157664,0.192926,-0.028224,-66.093300,188.571096,1014.214594,-1315.094421,0
0.080208,-5.056303,-186.139677,127.845266,5.382318,-5.072332,5.407686,0.181168,5.543161,-5.513222,-0.026359,-0.084604,0.188484,-0.039427,-31.066231,188.495716,1014.824258,-1315.464761,0
0.081250,54.922839,-195.973533,72.324432,4.330488,-6.300728,3.804378,2.882679,6.693671,-3.738021,-2.708976,-0.026156,0.179012,-0.043161,35.368708,188.571147,1014.362387,-1315.387812,0
0.082292,140.536033,-167.631732,27.353788,3.459618,-6.343332,1.839929,4.636423,6.932594,-1.878886,-4.438089,-0.007891,0.182605,-0.031958,121.222916,188.495741,1014.533553,-1314.430220,0
0.083333,186.972230,-103.252594,-18.614015,2.600058,-5.090084,-0.680122,5.692401,5.565215,0.626540,-5.373803,0.014027,0.197695,-0.061832,169.007665,188.571208,1013.867196,-1313.664171,0
0.084375,189.660403,-56.837761,-94.299622,1.129758,-3.613168,-2.969994,6.203599,4.150051,2.943114,-6.064025,0.010374,0.200896,-0.035692,175.375195,188.495694,1013.830180,-1313.908397,0
0.085417,147.466301,-12.452520,-168.064773,-0.238752,-1.440398,-4.628862,5.606579,1.940926,4.588218,-5.409381,0.006721,0.208343,-0.020755,149.701495,188.571158,1014.021041,-1313.936950,0
0.086458,91.797308,38.891322,-206.572349,-0.973902,1.179708,-5.751972,3.946120,-0.624748,5.784275,-3.897296,-0.018850,0.206579,-0.073035,107.209826,188.495792,1013.676326,-1314.103848,0
0.087500,46.858321,118.649450,-179.316667,-0.476262,3.579696,-6.200422,2.024464,-3.025013,6.187158,-2.043658,-0.066339,0.196193,-0.031958,71.198787,188.571174,1013.463557,-1314.358017,0
0.088542,4.947782,185.867600,-128.018372,0.462468,5.148919,-5.255899,-0.326299,-4.712182,5.515687,0.194227,-0.095563,0.191751,-0.020755,37.223548,188.495781,1013.464969,-1315.249984,0
0.089583,-55.360293,196.245097,-72.214394,1.491678,6.458971,-3.644654,-3.098707,-5.825934,3.795043,2.841265,-0.154011,0.170520,-0.084238,-30.715621,188.571125,1013.973003,-1315.243645,0
0.090625,-140.485759,167.867053,-27.059091,2.396478,6.544178,-1.632582,-4.841256,-6.134697,1.940105,4.623747,-0.208806,0.184499,-0.043161,-116.287079,188.495779,1013.854129,-1314.938506,0
0.091675,-188.589304,102.291906,19.388826,3.289968,5.244776,0.911281,-5.927085,-4.778346,-0.657648,5.627059,-0.252642,0.199328,-0.046895,-164.716498,188.571201,1013.982605,-1315.606417,0
0.092708,-189.757582,57.181811,94.151137,4.703718,3.735908,3.153530,-6.382312,-3.392588,-2.949042,6.253240,-0.241683,0.200635,-0.065566,-170.450668,188.495892,1014.473212,-1315.984070,0
0.093750,-147.574822,12.808650,168.310228,6.094848,1.591540,4.812398,-5.766636,-1.172435,-4.594146,5.612828,-0.234377,0.201353,-0.054364,-145.749628,188.571239,1015.203150,-1316.452881,0
0.094791,-92.438927,-38.474787,206.448485,6.807378,-1.067618,5.923602,-4.113639,1.415293,-5.773417,4.104301,-0.194194,0.203966,-0.065566,-103.472849,188.495703,1015.017163,-1316.334880,0
0.095833,-47.295775,-118.426210,179.722160,6.321048,-3.467606,6.344272,-2.188252,3.878046,-6.214069,2.211526,-0.175929,0.188484,-0.054364,-66.624870,188.495712,1015.695338,-1317.276329,0
0.096875,-5.294496,-185.608117,128.153031,5.371008,-5.072332,5.419592,0.173705,5.524782,-5.509025,-0.029917,-0.099216,0.188876,-0.058098,-30.093571,188.495676,1015.342248,-1317.157108,0
0.097916,54.798072,-196.323879,72.595265,4.319178,-6.350432,3.820252,2.871485,6.745131,-3.784184,-2.680513,-0.040768,0.179404,-0.069301,35.029408,188.571131,1016.272641,-1317.601516,0
0.098958,140.161730,-167.498842,27.403030,3.448308,-6.385935,1.824055,4.647617,6.950973,-1.925049,-4.470110,-0.026156,0.184303,-0.058098,120.928856,188.495794,1016.676785,-1317.843685,0
0.100000,187.210422,-103.035138,-18.257008,2.611368,-5.118486,-0.676153,5.722252,5.587270,0.605556,-5.395150,0.017680,0.198022,-0.073035,169.143385,188.496263,1017.097140,-1318.005382,0
0.101042,189.422210,-56.475334,-94.028788,1.186308,-3.609618,-2.962057,6.184942,4.186809,2.926327,-6.103161,0.021333,0.201288,-0.069301,174.753145,188.495645,1017.747415,-1317.954855,0
0.102083,147.715836,-12.307549,-167.732387,-0.261372,-1.429747,-4.612988,5.576728,1.985035,4.537857,-5.405823,-0.015197,0.195866,-0.058098,149.271715,188.571113,1018.106807,-1317.161037,0
0.103125,92.307721,38.746351,-206.375379,-0.985212,1.193909,-5.744035,3.934926,-0.628424,5.780079,-3.961338,-0.055380,0.201745,-0.035692,108.193796,188.495607,1018.646789,-1317.416898,0
0.104166,47.107856,118.069567,-179.624432,-0.521502,3.558394,-6.192484,2.035658,-3.013986,6.182961,-2.015195,-0.066339,0.194625,-0.039427,71.176167,188.571181,1018.104957,-1317.522181,0
0.105210,5.027180,186.109218,-127.858334,0.439848,5.180871,-5.243993,-0.348687,-4.708506,5.477917,0.151533,-0.135746,0.188419,-0.039427,37.393198,188.495676,1018.162186,-1317.024974,0
0.106262,-56.494543,196.414229,-71.057197,1.536918,6.451871,-3.597031,-3.106169,-5.847989,3.727896,2.894633,-0.161317,0.176922,-0.065566,-32.344261,188.570995,1017.880568,-1317.297397,0
0.107294,-140.826034,167.867053,-27.145265,2.419098,6.490924,-1.692110,-4.833794,-6.079561,1.893941,4.637978,-0.186888,0.180776,-0.035692,-115.891229,188.495718,1017.027550,-1317.294389,0
0.108333,-186.910614,103.536239,18.367046,3.267348,5.177321,0.835877,-5.837532,-4.763643,-0.603091,5.516766,-0.219765,0.198414,-0.069301,-162.692008,188.495750,1016.023825,-1315.856617,0
0.109375,-189.973089,56.638170,93.978788,4.669788,3.728808,3.137656,-6.367387,-3.322749,-2.928059,6.189199,-0.241683,0.200896,-0.046895,-170.970928,188.495772,1014.997632,-1314.997803,0
