1-Time,2-VGERA,3-VGERB,4-VGERC,5-VN,6-IGERAN,7-IGERBN,8-IGERCN,9-IGERAT,10-IGERBT,11-IGERCT,12-IN,13-IFD,14-IFAULT,15-VFAULT,16-Speed (rad/s),17-Active Power,18-Reactive Power,19-FAULT 
0.000000,-87.068823,-60.194585,207.640629,4.356358,1.132251,5.151267,-5.491186,-0.761235,-5.169544,5.328078,0.106545,0.339628,0.000144,-2.537913,188.496275,1478.036845,-891.121086,0
0.001042,-33.552377,-131.780421,179.023442,3.782133,-1.355652,6.111978,-3.882878,1.749180,-6.161709,3.820172,0.117483,0.343073,-0.025873,-3.753812,188.571246,1479.570119,-891.118252,0
0.002083,19.478173,-187.064184,127.949966,2.813834,-3.395879,6.206005,-1.996208,3.769666,-6.066806,1.706820,0.033621,0.340180,0.007577,-4.091562,188.646808,1479.501828,-890.593854,0
0.003125,77.401590,-195.027301,64.639757,1.552792,-5.105853,4.987742,0.907253,5.649629,-4.876208,-1.122406,-0.039302,0.315789,-0.022156,-3.348512,188.571371,1480.241857,-890.311284,0
0.004167,151.540400,-166.111086,8.608398,0.483158,-6.100280,3.491485,3.192134,6.561127,-3.305999,-3.361417,-0.064826,0.314962,-0.014723,-2.143871,188.496033,1480.148088,-890.697001,0
0.005208,190.321744,-102.206486,-42.489381,-0.507660,-5.575546,1.157162,4.796576,6.048410,-0.989509,-5.074946,-0.104934,0.326400,-0.044457,-0.229956,188.496000,1481.019348,-891.542105,0
0.006250,193.101525,-44.761642,-111.292146,-1.836257,-4.731567,-1.303894,6.118792,5.155902,1.426197,-6.186836,-0.108580,0.326606,-0.029590,0.175343,188.646898,1481.710832,-892.501021,0
0.007292,148.952717,9.265405,-171.552286,-3.063521,-3.036271,-3.245757,6.223177,3.450642,3.388959,-6.331534,-0.130457,0.351066,0.007577,1.256143,188.571428,1482.894266,-892.624360,0
0.008333,88.000920,60.285729,-207.496931,-3.694042,-0.592402,-5.089505,5.438353,0.913641,5.136032,-5.356726,-0.123164,0.345554,-0.003573,3.023700,188.496029,1483.336383,-892.695325,0
0.009375,34.586173,131.507470,-178.733924,-3.187373,1.928526,-6.074745,3.860974,-1.649945,6.162708,-3.814550,-0.057533,0.336459,-0.007290,4.239599,188.571304,1483.567662,-893.323889,0
0.010417,-18.839874,187.237543,-127.854875,-2.219074,3.950406,-6.123802,1.951107,-3.712208,6.080746,-1.735469,-0.035656,0.335563,-0.014723,4.633640,188.646877,1483.311834,-893.821692,0
0.011458,-77.429987,194.495959,-64.945670,-0.980551,5.719092,-4.942332,-0.940755,-5.539001,4.903089,1.108989,0.015390,0.318407,-0.014723,3.834299,188.571277,1483.265163,-893.569852,0
0.012500,-151.986894,166.202230,-9.011526,0.077824,6.739205,-3.470604,-3.217904,-6.442902,3.388959,3.283267,0.040913,0.319027,-0.025873,2.168067,188.496025,1483.664888,-893.176082,0
0.013542,-190.022443,102.896625,42.730292,1.136198,6.144751,-1.193515,-4.814614,-5.979558,0.994821,4.977756,0.066437,0.329638,0.000144,0.760776,188.646750,1484.310977,-892.475700,0
0.014583,-193.186422,45.886346,111.897608,2.453536,5.348475,1.324775,-6.171624,-5.083252,-1.364806,6.184842,0.135714,0.334530,-0.040740,0.389252,188.646735,1484.720575,-892.847294,0
0.015625,-149.184513,-8.751441,171.610922,3.647022,3.568781,3.229845,-6.279876,-3.366599,-3.340509,6.287654,0.121129,0.350652,-0.007290,-0.837906,188.571370,1484.960568,-892.478382,0
0.016667,-88.628213,-60.100625,207.604174,4.311321,1.205640,5.077680,-5.541446,-0.844789,-5.147975,5.347117,0.106545,0.344727,-0.033307,-2.481621,188.496044,1485.668310,-892.129130,0
0.017708,-34.908368,-131.592501,178.901925,3.793393,-1.315288,6.075185,-3.925405,1.703606,-6.148768,3.774478,0.077375,0.332945,-0.022156,-3.731295,188.646772,1484.937762,-892.201568,0
0.018750,18.641978,-187.510494,128.472488,2.870130,-3.366523,6.238710,-2.050334,3.807645,-6.101316,1.760130,0.037267,0.333014,0.003860,-4.069045,188.571453,1485.859303,-892.848764,0
0.019792,77.446790,-194.627970,65.939985,1.586570,-5.069158,4.991830,0.845395,5.619246,-4.927973,-1.118598,-0.032010,0.321577,-0.014723,-3.089571,188.571355,1486.097806,-892.887183,0
0.020833,152.026297,-166.357731,9.580532,0.528196,-6.118628,3.528278,3.165071,6.595308,-3.409529,-3.304300,-0.064826,0.321852,-0.033307,-2.076322,188.495922,1487.554584,-892.308277,0
0.021875,190.107045,-102.946422,-42.525836,-0.496401,-5.557198,1.218484,4.800443,6.078793,-1.041274,-5.014021,-0.086703,0.334254,-0.029590,-0.297506,188.646750,1488.025480,-891.522405,0
0.022917,193.282324,-45.513322,-111.559483,-1.870035,-4.764592,-1.226220,6.157453,5.205275,1.391687,-6.202067,-0.130457,0.333083,0.000144,0.209118,188.571337,1488.921773,-891.490314,0
0.023958,148.738019,9.007014,-171.892533,-3.097299,-3.054618,-3.221228,6.308232,3.458238,3.393273,-6.381036,-0.145042,0.348448,-0.025873,1.323693,188.571391,1489.548802,-891.772291,0
0.025000,87.673222,60.250493,-207.557689,-3.772857,-0.596071,-5.109945,5.504078,0.932631,5.140346,-5.413844,-0.115872,0.338526,-0.044457,3.125024,188.495975,1490.349939,-891.569516,0
0.026042,34.134176,131.965525,-178.588104,-3.198633,1.932196,-6.111538,3.907367,-1.638551,6.188590,-3.936401,-0.079410,0.327502,-0.014723,4.138274,188.646647,1492.124205,-890.920650,0
0.027083,-19.133672,187.131837,-127.903482,-2.185296,3.983431,-6.217829,1.951107,-3.704612,6.149766,-1.830665,-0.032010,0.340662,0.000144,4.734965,188.571413,1493.719790,-890.266766,0
0.028125,-77.542986,194.777839,-64.568969,-0.935513,5.785142,-5.015918,-0.933023,-5.588373,4.963482,1.074719,0.026329,0.319027,-0.011006,3.890591,188.571299,1495.027741,-890.228377,0
0.029167,-151.263699,166.073034,-8.428245,0.111601,6.750214,-3.466516,-3.244967,-6.537850,3.376018,3.309922,0.051852,0.315445,0.000144,2.348200,188.496053,1495.559648,-891.031731,0
0.030208,-190.666539,101.498969,42.693837,1.113679,6.203462,-1.107664,-4.911267,-6.047920,0.968939,5.015835,0.095606,0.326193,0.011294,0.783293,188.646811,1496.414054,-891.391622,0
0.031250,-192.903924,44.289025,111.581664,2.453536,5.341136,1.312511,-6.214152,-5.128827,-1.399316,6.196266,0.164883,0.330603,-0.003573,0.389252,188.571301,1496.808202,-891.139961,0
0.032292,-147.918921,-9.514866,172.473691,3.680800,3.645840,3.319784,-6.322403,-3.385588,-3.426784,6.375234,0.121129,0.347690,0.000144,-0.815389,188.571422,1498.225812,-891.817836,0
0.033333,-86.876724,-60.194585,207.749994,4.209987,1.150598,5.163531,-5.541446,-0.765033,-5.147975,5.373772,0.117483,0.350652,-0.014723,-2.515396,188.495951,1497.988459,-891.884175,0
0.034375,-33.337678,-132.250222,178.938380,3.815911,-1.359321,6.181476,-3.913807,1.794755,-6.209160,3.831596,0.081021,0.364157,-0.022156,-3.753812,188.646721,1499.320971,-892.479755,0
0.035417,19.421673,-187.146399,127.779843,2.836352,-3.436243,6.250974,-1.992342,3.838028,-6.109944,1.741091,0.066437,0.343280,-0.040740,-4.125337,188.571379,1499.289838,-892.448008,0
0.036458,77.503289,-195.273946,64.433178,1.575311,-5.149887,5.057240,0.922718,5.695204,-4.936601,-1.118598,-0.035656,0.315031,-0.044457,-3.325996,188.571355,1500.156148,-892.707687,0
0.037500,151.450001,-166.064106,8.474730,0.494418,-6.140645,3.544631,3.192134,6.614298,-3.353450,-3.365225,-0.050241,0.314342,-0.007290,-2.110096,188.495968,1499.653229,-893.381772,0
0.038542,190.717241,-101.642726,-42.452926,-0.496401,-5.615910,1.210307,4.850702,6.086389,-0.950685,-5.025444,-0.061180,0.326675,-0.025873,-0.229956,188.646822,1499.235207,-893.890671,0
0.039583,192.999826,-44.526742,-111.316450,-1.847517,-4.738906,-1.263013,6.172917,5.171093,1.430511,-6.198259,-0.108580,0.316960,0.003860,0.197860,188.571370,1498.581562,-893.925322,0
0.040625,148.466820,9.335875,-172.208477,-3.052262,-2.999576,-3.249845,6.304366,3.443046,3.423469,-6.400075,-0.123164,0.346243,0.022444,1.267401,188.571371,1498.802400,-894.275579,0
0.041667,87.424624,60.297474,-207.509083,-3.716561,-0.592402,-5.142650,5.500211,0.909843,5.196425,-5.398613,-0.093995,0.330809,-0.011006,3.034958,188.495897,1498.747683,-894.927451,0
0.042708,34.077676,131.883310,-178.746076,-3.176114,1.935865,-6.082921,3.922832,-1.703116,6.201531,-3.848821,-0.072118,0.336597,-0.014723,4.250857,188.722291,1497.747011,-896.107528,0
0.043750,-18.975473,187.237543,-127.563235,-2.230333,3.987100,-6.209653,1.982036,-3.693218,6.128197,-1.773547,-0.035656,0.336390,0.003860,4.622382,188.571388,1496.964662,-896.272463,0
0.044792,-77.463887,194.836564,-64.496059,-1.003069,5.755786,-5.011830,-0.960086,-5.630150,4.963482,1.131836,0.051852,0.316891,0.000144,3.823041,188.571444,1496.923490,-897.272484,0
0.045833,-151.704396,166.178739,-8.756341,0.089083,6.757552,-3.511486,-3.256565,-6.480881,3.393273,3.313730,0.051852,0.316823,0.011294,2.179325,188.495892,1496.699865,-896.976115,0
0.046875,-190.497040,102.215415,42.633079,1.091161,6.170437,-1.156721,-4.872606,-6.009941,0.999135,5.019643,0.102898,0.328742,0.026161,0.749518,188.722170,1496.479554,-896.931302,0
0.047917,-192.983023,45.369566,111.909759,2.476055,5.341136,1.283894,-6.210286,-5.132625,-1.360492,6.188650,0.110191,0.332807,-0.025873,0.355477,188.496042,1496.663377,-896.833363,0
0.048958,-148.653416,-8.868891,172.157748,3.658281,3.598136,3.323872,-6.337868,-3.359003,-3.383647,6.356195,0.146652,0.347001,-0.011006,-0.871681,188.571585,1496.053807,-896.850069,0
0.050000,-88.244015,-60.124115,207.652781,4.322580,1.165276,5.147179,-5.568509,-0.844789,-5.160916,5.381388,0.088314,0.349895,-0.007290,-2.481621,188.495745,1496.752868,-896.790136,0
0.051042,-34.682369,-131.968342,178.962684,3.748356,-1.344644,6.140595,-3.971799,1.760574,-6.174650,3.801133,0.081021,0.334048,0.018727,-3.731295,188.722047,1495.969862,-896.822921,0
0.052083,18.653278,-187.475259,128.253758,2.802574,-3.355515,6.234622,-1.996208,3.800049,-6.101316,1.763938,0.019036,0.339146,-0.007290,-4.057787,188.496025,1495.986211,-896.648145,0
0.053125,77.661488,-194.945086,65.587587,1.575311,-5.098514,5.024535,0.887923,5.672417,-4.953856,-1.126214,-0.006487,0.318890,0.015011,-3.067054,188.571384,1495.890230,-896.844400,0
0.054167,152.127996,-166.275516,9.665594,0.516936,-6.111289,3.540543,3.165071,6.606702,-3.387960,-3.361417,-0.035656,0.318614,-0.003573,-2.076322,188.496071,1496.244719,-897.013156,0
0.055208,190.559042,-102.875952,-42.355713,-0.518919,-5.597563,1.230748,4.796576,6.143357,-1.028333,-5.059715,-0.090349,0.334254,0.011294,-0.263731,188.722047,1497.575827,-897.343248,0
0.056250,193.180625,-46.030103,-111.753910,-1.836257,-4.779270,-1.263013,6.180650,5.163498,1.370119,-6.190644,-0.130457,0.334116,0.000144,0.231635,188.495895,1497.752344,-897.207310,0
0.057292,148.726719,8.384529,-172.390752,-3.086040,-3.050948,-3.270286,6.296634,3.515207,3.423469,-6.407691,-0.145042,0.347759,-0.003573,1.323693,188.571397,1498.443948,-897.213673,0
0.058333,88.238218,60.168278,-207.424021,-3.727820,-0.585063,-5.163091,5.515676,0.963014,5.183484,-5.451922,-0.112226,0.347828,-0.003573,3.147541,188.495949,1499.323430,-896.960892,0
0.059375,34.642673,132.317875,-178.478739,-3.142336,1.946874,-6.136067,3.926698,-1.634754,6.231728,-3.886899,-0.083057,0.337768,0.000144,4.160790,188.722116,1500.222078,-896.389311,0
0.060417,-18.873774,187.014387,-128.085757,-2.219074,4.001778,-6.242358,1.966572,-3.723602,6.128197,-1.800202,-0.010133,0.328811,-0.003573,4.701190,188.495980,1500.452618,-896.742195,0
0.061458,-77.791584,194.777839,-64.982125,-0.991810,5.759456,-4.999566,-0.940755,-5.580777,4.976423,1.105181,0.019036,0.318683,0.007577,3.901849,188.571337,1500.505006,-896.087760,0
0.062500,-151.399298,166.096524,-8.792796,0.089083,6.735536,-3.523750,-3.237234,-6.549243,3.440724,3.332769,0.033621,0.321370,-0.007290,2.370717,188.495991,1501.462634,-896.523488,0
0.063542,-190.960337,101.780849,42.548017,1.113679,6.232818,-1.144457,-4.891937,-6.040324,1.020704,5.027258,0.088314,0.330465,-0.029590,0.783293,188.722114,1502.114814,-896.401217,0
0.064583,-192.926524,44.723590,111.654574,2.453536,5.359483,1.324775,-6.279876,-5.151614,-1.416571,6.207689,0.121129,0.331774,0.022444,0.377993,188.495868,1502.208726,-896.904589,0
0.065625,-147.659023,-9.080301,172.899000,3.680800,3.594467,3.319784,-6.341734,-3.370396,-3.418157,6.363811,0.110191,0.344314,0.003860,-0.781614,188.571429,1502.561344,-896.896036,0
0.066667,-86.944524,-60.100625,207.543416,4.378876,1.179954,5.163531,-5.560777,-0.818204,-5.212682,5.392811,0.099252,0.324608,0.003860,-2.537913,188.495984,1502.661894,-897.139090,0
0.067708,-33.247279,-132.391162,178.877622,3.770874,-1.326296,6.181476,-3.929271,1.764372,-6.191905,3.854443,0.099252,0.317098,-0.007290,-3.753812,188.722134,1503.671985,-896.487952,0
0.068750,19.455573,-187.052439,127.609719,2.847611,-3.384870,6.275503,-1.992342,3.841826,-6.122885,1.744899,0.029975,0.313309,-0.022156,-4.102820,188.496071,1503.790386,-896.635807,0
0.069792,77.401590,-195.320926,64.263055,1.575311,-5.149887,5.028623,0.942048,5.710396,-4.988366,-1.133830,-0.028364,0.314618,-0.033307,-3.314737,188.571337,1504.479009,-896.665592,0
0.070833,151.257902,-165.946656,8.462578,0.494418,-6.111289,3.524190,3.207598,6.633287,-3.392274,-3.361417,-0.068472,0.314824,-0.003573,-2.132613,188.495857,1504.597904,-896.346738,0
0.071875,190.875440,-101.372590,-42.246348,-0.473882,-5.612240,1.193955,4.850702,6.101580,-0.980881,-5.082562,-0.104934,0.325848,0.015011,-0.229956,188.646768,1503.855176,-896.383275,0
0.072917,192.841627,-44.362311,-111.255691,-1.858776,-4.760923,-1.295718,6.157453,5.190083,1.387374,-6.228722,-0.130457,0.330947,-0.003573,0.209118,188.496013,1504.221794,-896.184252,0
0.073958,148.071323,9.335875,-172.244932,-3.086040,-3.025262,-3.315255,6.315964,3.484823,3.414841,-6.407691,-0.130457,0.334461,-0.011006,1.244884,188.571284,1503.940396,-895.729746,0
0.075000,87.108226,60.273984,-207.630599,-3.660264,-0.559376,-5.134474,5.492479,0.883258,5.213680,-5.429075,-0.072118,0.327778,-0.011006,3.034958,188.495959,1503.346697,-896.326895,0
0.076042,33.806478,131.883310,-178.709621,-3.198633,1.983568,-6.091097,3.891903,-1.687924,6.214473,-3.890707,-0.079410,0.312551,-0.011006,4.284632,188.722194,1503.079713,-896.548350,0
0.077083,-19.020673,187.296268,-127.453870,-2.185296,3.998109,-6.221917,1.912446,-3.734995,6.132511,-1.773547,-0.032010,0.335563,0.026161,4.622382,188.495926,1502.997564,-896.627700,0
0.078125,-77.441287,194.848309,-64.095053,-0.969291,5.752117,-4.975037,-0.971684,-5.614959,4.963482,1.082334,0.029975,0.316891,0.000144,3.811782,188.571286,1503.124096,-896.464003,0
0.079167,-151.659196,166.049544,-8.489004,0.100342,6.779569,-3.474692,-3.233368,-6.526456,3.345821,3.363231,0.055498,0.315307,0.015011,2.156809,188.495908,1502.084637,-897.018404,0
0.080208,-190.530939,101.663399,42.620927,1.102420,6.152089,-1.144457,-4.880338,-6.006143,0.990508,5.053913,0.113837,0.326331,-0.014723,0.738260,188.722233,1501.430469,-897.378165,0
0.081250,-192.892624,44.864530,111.739636,2.453536,5.319119,1.316599,-6.233483,-5.068060,-1.420885,6.207689,0.132068,0.330603,-0.014723,0.355477,188.495902,1500.489509,-897.620421,0
0.082292,-148.224019,-9.115536,172.182051,3.680800,3.539425,3.291167,-6.322403,-3.385588,-3.370705,6.333348,0.106545,0.346932,0.011294,-0.826647,188.495959,1500.116367,-896.980532,0
0.083333,-87.611220,-60.124115,207.749994,4.277543,1.150598,5.155355,-5.502785,-0.776427,-5.165230,5.423274,0.088314,0.344589,0.003860,-2.481621,188.495935,1500.067202,-897.210409,0
0.084375,-34.365971,-131.850892,178.901925,3.782133,-1.385008,6.169212,-3.952468,1.760574,-6.127199,3.831596,0.062790,0.333496,-0.014723,-3.731295,188.723027,1498.953628,-897.256512,0
0.085417,18.800177,-187.498749,128.059331,2.813834,-3.392209,6.283680,-2.027137,3.815241,-6.058179,1.756322,0.011744,0.339491,-0.044457,-4.046528,188.495519,1498.354981,-897.062596,0
0.086458,77.627588,-194.909851,65.320250,1.586570,-5.124201,5.032711,0.911119,5.717992,-4.992680,-1.107175,-0.006487,0.317787,0.018727,-3.067054,188.495682,1498.471920,-897.135803,0
0.087500,151.924598,-166.263771,9.373954,0.516936,-6.151653,3.536455,3.203732,6.625691,-3.375019,-3.361417,-0.090349,0.319992,-0.018440,-2.076322,188.495660,1498.371746,-897.554572,0
0.088541,190.536442,-102.594071,-42.258499,-0.507660,-5.582885,1.218484,4.839104,6.147155,-0.967940,-5.040675,-0.075764,0.332463,0.003860,-0.229956,188.646600,1498.573257,-897.749257,0
0.089583,193.112825,-45.889163,-111.620241,-1.824998,-4.808626,-1.226220,6.207713,5.201477,1.396001,-6.209683,-0.101287,0.329087,0.011294,0.220377,188.495702,1498.623797,-898.261669,0
0.090625,148.625019,8.314059,-172.548723,-2.995965,-3.047279,-3.262110,6.304366,3.473430,3.457979,-6.396267,-0.123164,0.346863,-0.007290,1.301176,188.495676,1498.436174,-899.296974,0
0.091666,88.633716,60.074318,-207.533386,-3.660264,-0.599741,-5.142650,5.523408,0.906045,5.200739,-5.421460,-0.068472,0.344520,-0.014723,3.136283,188.495658,1498.417966,-899.582618,0
0.092708,35.117269,132.364855,-178.563801,-3.131077,1.950543,-6.156507,3.922832,-1.684126,6.261924,-3.841205,-0.079410,0.339560,0.007577,4.149532,188.646563,1498.306734,-900.518835,0
0.093750,-18.320077,186.908682,-128.170818,-2.219074,4.020126,-6.217829,1.931777,-3.719804,6.123884,-1.765931,-0.042949,0.322886,0.007577,4.712448,188.495750,1497.871427,-900.847835,0
0.094791,-77.904584,194.848309,-65.273766,-0.991810,5.763125,-5.020007,-0.991015,-5.618757,4.946227,1.093758,0.048206,0.319647,0.007577,3.856816,188.495658,1497.733485,-901.389988,0
0.095833,-151.568797,166.343170,-9.254559,0.111601,6.779569,-3.531926,-3.248833,-6.549243,3.423469,3.355616,0.073729,0.320130,-0.018440,2.348200,188.495627,1498.608381,-901.420935,0
0.096875,-190.982936,102.215415,42.462956,1.136198,6.221809,-1.128104,-4.899669,-6.017537,1.012076,5.088184,0.099252,0.331223,0.015011,0.794551,188.646527,1499.189445,-901.935591,0
0.097916,-192.903924,45.498761,111.885456,2.453536,5.403517,1.337039,-6.252813,-5.136423,-1.446768,6.203881,0.124775,0.335563,-0.029590,0.366735,188.495636,1499.841558,-902.282595,0
0.098958,-147.783322,-8.645736,172.996213,3.635763,3.642170,3.315695,-6.372663,-3.370396,-3.405215,6.375234,0.128422,0.339284,-0.022156,-0.815389,188.495741,1500.288131,-903.021539,0
0.100000,-87.328721,-60.088880,207.434051,4.288802,1.139590,5.188060,-5.537580,-0.829598,-5.173858,5.385195,0.102898,0.344727,-0.018440,-2.504138,188.495696,1500.105904,-902.419323,0
0.101041,-33.676676,-132.461632,178.914077,3.714578,-1.344644,6.165124,-3.956334,1.749180,-6.230729,3.846827,0.077375,0.338664,0.000144,-3.765070,188.646540,1501.499693,-902.701959,0
0.102083,19.229574,-187.005459,127.986421,2.791315,-3.406887,6.271415,-1.992342,3.830433,-6.127199,1.722052,0.055498,0.341351,-0.018440,-4.102820,188.495667,1501.887470,-903.177430,0
0.103125,77.559789,-195.215221,64.651908,1.620348,-5.164565,4.991830,0.945914,5.717992,-4.988366,-1.149061,-0.024718,0.322886,0.029877,-3.325996,188.495667,1501.738273,-903.436319,0
0.104166,151.314402,-165.970146,8.778522,0.505677,-6.151653,3.499661,3.219197,6.648479,-3.340509,-3.346186,-0.093995,0.315858,-0.037023,-2.132613,188.495606,1501.424112,-903.319111,0
0.105208,190.864140,-101.384335,-42.185589,-0.518919,-5.568207,1.189867,4.858434,6.105378,-0.950685,-5.055907,-0.119518,0.326813,-0.011006,-0.263731,188.646527,1500.915050,-903.116031,0
0.106250,192.739928,-44.350566,-111.292146,-1.836257,-4.720559,-1.328423,6.149721,5.193881,1.417570,-6.228722,-0.101287,0.313860,-0.033307,0.197860,188.495624,1500.782005,-902.886860,0
0.107291,148.082623,9.277150,-172.427207,-2.984706,-2.970220,-3.294815,6.354625,3.446844,3.449352,-6.358189,-0.104934,0.311311,0.015011,1.256143,188.495826,1500.176047,-902.253403,0
0.108333,86.995227,60.273984,-207.606296,-3.660264,-0.530021,-5.077240,5.461550,0.890854,5.161915,-5.463346,-0.079410,0.306143,0.011294,3.034958,188.495763,1500.362958,-901.342733,0
0.109375,33.603079,131.989015,-178.721773,-3.119818,1.994577,-6.119714,3.845509,-1.725903,6.223100,-3.871668,-0.072118,0.328604,0.007577,4.250857,188.721866,1500.306487,-900.881716,0
0.110416,-19.122372,187.261033,-127.380960,-2.106481,4.020126,-6.197389,1.908580,-3.712208,6.145453,-1.762124,-0.021072,0.331223,-0.014723,4.644898,188.570980,1500.745114,-900.366677,0
0.111458,-77.384787,194.977504,-63.924930,-0.958032,5.781473,-4.962773,-0.933023,-5.588373,4.924658,1.150875,0.015390,0.314480,-0.033307,3.823041,188.495589,1499.965800,-900.289641,0
