1-Time,2-VGERA,3-VGERB,4-VGERC,5-VN,6-IGERAN,7-IGERBN,8-IGERCN,9-IGERAT,10-IGERBT,11-IGERCT,12-IN,13-IFD,14-IFAULT,15-VFAULT,16-Speed (rad/s),17-Active Power,18-Reactive Power,19-FAULT 
0.000000,72.798620,71.618491,-199.309092,-0.872112,0.125275,-5.517825,4.793141,0.264784,5.490507,-4.708485,0.010374,0.317697,-0.061832,52.650387,188.664340,1478.523288,-884.747776,0
0.001042,20.407610,146.773795,-170.305304,-0.317922,2.454258,-6.629029,3.558057,-2.084021,6.682368,-3.523723,-0.044421,0.292808,-0.028224,16.628038,188.571621,1479.185730,-883.883423,0
0.002092,-25.756367,191.316088,-108.358334,0.847008,4.470816,-6.136924,1.076696,-3.988059,6.195551,-1.171986,-0.069992,0.282030,-0.028224,-7.699771,188.571489,1478.996779,-883.409735,0
0.003125,-95.138442,198.153880,-52.258902,1.898838,6.114595,-4.978098,-1.512874,-5.803880,5.125394,1.382548,-0.143052,0.307049,-0.024490,-48.483630,188.553522,1478.528925,-883.080368,0
0.004167,-158.508993,152.657195,-1.379167,2.905428,6.356013,-2.858874,-3.647218,-6.042804,2.985081,3.414079,-0.223418,0.306984,-0.035692,-93.520050,188.645913,1477.955497,-882.850303,0
0.005208,-201.984797,86.852511,48.675758,3.912018,5.912229,-0.330886,-5.453201,-5.623768,0.496442,5.225023,-0.252642,0.310773,-0.031958,-120.155099,188.570973,1477.603901,-882.788454,0
0.006250,-177.904668,34.723410,127.131250,5.438868,4.602176,1.978830,-6.247983,-4.370337,-1.786559,5.975728,-0.259948,0.335204,-0.024490,-112.837529,188.570993,1477.233084,-881.844097,0
0.007292,-133.975164,-13.684772,192.242046,6.581178,2.681475,3.816284,-5.886040,-2.436893,-3.691857,5.822741,-0.241683,0.328998,-0.017021,-91.303290,188.496002,1478.011788,-881.170786,0
0.008333,-73.825884,-71.310684,199.086743,6.694278,-0.006085,5.653738,-4.964392,0.242729,-5.462861,4.833660,-0.223418,0.314627,-0.043161,-48.234810,188.646641,1477.779239,-880.040162,0
0.009375,-21.536957,-146.743849,170.563069,6.174018,-2.306665,6.780816,-3.639755,2.591533,-6.709279,3.663128,-0.172276,0.321878,-0.024490,-12.970231,188.571411,1477.962189,-879.409230,0
0.010417,24.683733,-189.558573,111.422917,5.088258,-4.301922,6.288712,-1.277798,4.510275,-6.247643,1.389664,-0.124787,0.312275,-0.058098,11.583778,188.514592,1478.313576,-878.351235,0
0.011458,95.324826,-197.942720,53.796970,3.945948,-5.974103,5.149728,1.375206,6.370204,-5.240437,-1.218238,-0.095563,0.308617,-0.035692,53.600427,188.497001,1479.346790,-877.466378,0
0.012508,159.523379,-151.902395,1.587689,2.928048,-6.293628,3.002724,3.584177,6.605453,-3.049763,-3.328041,-0.026156,0.311883,-0.028224,98.851736,188.721732,1479.072889,-877.019947,0
0.013542,201.762851,-88.260193,-48.541099,1.978008,-5.764636,0.502516,5.319264,6.149659,-0.561124,-5.099849,0.017680,0.314496,-0.020755,125.746916,188.632946,1479.109162,-877.290202,0
0.014583,177.830175,-35.623694,-127.636743,0.485088,-4.536240,-1.819105,6.076732,4.936662,1.721877,-5.871901,0.010374,0.318808,-0.054364,117.287036,188.571306,1480.269972,-877.125349,0
0.015625,134.524508,13.799285,-192.021213,-0.736392,-2.558735,-3.692277,5.789417,2.914999,3.677535,-5.697567,-0.022503,0.350882,-0.035692,95.221226,188.496044,1479.603939,-877.950174,0
0.016667,74.488653,71.618491,-199.025948,-0.826872,0.146577,-5.521794,4.864037,0.261108,5.452737,-4.744064,-0.033462,0.315737,-0.031958,53.611737,188.671113,1479.700881,-878.224126,0
0.017708,21.609915,146.761714,-170.662311,-0.397092,2.429406,-6.621092,3.520744,-2.080345,6.686564,-3.534396,-0.037115,0.316325,0.001650,16.707208,188.507405,1479.752864,-878.722929,0
0.018750,-24.860309,190.180483,-110.475758,0.801768,4.421112,-6.148830,1.128935,-3.969681,6.199748,-1.250258,-0.088257,0.318873,-0.028224,-7.077721,188.571578,1479.841878,-878.798322,0
0.019792,-95.251867,198.033071,-52.837500,1.910148,6.160748,-4.990004,-1.520337,-5.800204,5.171558,1.371875,-0.150358,0.310969,-0.043161,-49.580700,188.496322,1480.342498,-878.740836,0
0.020833,-158.894638,152.681357,-1.834659,2.837568,6.387966,-2.882686,-3.677069,-6.046479,3.081605,3.424752,-0.183235,0.308682,-0.031958,-93.112890,188.722424,1481.388204,-878.473341,0
0.021875,-201.984797,87.480718,48.601894,3.798918,5.940631,-0.334855,-5.442007,-5.627444,0.530016,5.214349,-0.245336,0.310054,-0.013287,-120.811079,188.511097,1481.616144,-878.327027,0
0.022923,-177.530366,33.998556,128.940909,5.404938,4.630578,2.046296,-6.292759,-4.326228,-1.841116,6.000633,-0.252642,0.318677,-0.009553,-113.550059,188.571178,1481.829017,-878.734482,0
0.023958,-134.304097,-14.095523,191.885038,6.581178,2.660174,3.863907,-5.908428,-2.466299,-3.729627,5.801394,-0.223418,0.326451,-0.017021,-92.479530,188.630709,1481.947736,-878.834431,0
0.025000,-73.678431,-71.395251,199.369887,6.705588,-0.048689,5.713267,-4.945735,0.275811,-5.483845,4.833660,-0.216112,0.302150,-0.009553,-48.585420,188.721744,1481.997003,-879.343939,0
0.026041,-20.754324,-146.369341,170.575379,6.174018,-2.345719,6.792722,-3.639755,2.657697,-6.738656,3.602645,-0.161317,0.312079,-0.084238,-11.658271,188.571096,1481.482965,-880.293020,0
0.027083,24.672390,-190.259265,110.290341,5.043018,-4.380028,6.272837,-1.255410,4.554384,-6.235053,1.329180,-0.172276,0.317501,-0.005818,11.504608,188.571078,1481.168912,-880.905416,0
0.028125,94.780386,-197.930639,52.541288,3.923328,-6.013156,5.145759,1.401325,6.421665,-5.177486,-1.250258,-0.077298,0.305416,-0.017021,54.222477,188.495665,1480.562902,-881.437447,0
0.029166,158.423156,-152.615168,1.600000,2.984598,-6.240374,3.006693,3.535669,6.627507,-3.083337,-3.288905,-0.059033,0.306592,-0.017021,98.184446,188.721719,1480.793155,-881.177912,0
0.030223,201.320493,-85.203724,-49.870644,1.966698,-5.782388,0.407270,5.334189,6.160687,-0.506567,-5.128311,-0.011544,0.315149,-0.046895,126.323726,188.646391,1480.783022,-880.428615,0
0.031259,177.217680,-33.062542,-128.941667,0.439848,-4.447483,-1.894508,6.128971,4.870498,1.759647,-5.893248,0.017680,0.317958,-0.046895,119.074016,188.570790,1480.722421,-879.941389,0
0.032292,133.424285,14.451653,-191.910417,-0.736392,-2.558735,-3.688308,5.804342,2.984839,3.664945,-5.661988,0.003068,0.313059,-0.043161,95.458736,188.512414,1480.890710,-878.560106,0
0.033333,72.980100,71.461439,-199.309092,-0.826872,0.114624,-5.505919,4.860305,0.294190,5.469523,-4.704928,0.003068,0.301562,-0.031958,53.283747,188.721958,1480.745297,-877.900075,0
0.034375,20.668488,146.822119,-170.539205,-0.306612,2.397453,-6.632997,3.535669,-2.098724,6.640401,-3.523723,-0.033462,0.318416,-0.020755,17.238778,188.701855,1480.318240,-877.448711,0
0.035416,-24.951049,189.914703,-110.685038,0.779148,4.367858,-6.128987,1.125204,-3.954978,6.149388,-1.278721,-0.059033,0.311818,-0.017021,-7.168201,188.569939,1479.887307,-876.932785,0
0.036458,-95.013675,198.250527,-53.256061,1.921458,6.121695,-4.966192,-1.479292,-5.770798,5.171558,1.357643,-0.154011,0.303587,-0.035692,-48.438390,188.496237,1479.698585,-876.761923,0
0.037500,-158.327513,153.333726,-1.945455,2.905428,6.373765,-2.866811,-3.684532,-6.013398,3.043835,3.428310,-0.190541,0.308029,-0.050629,-93.486120,188.722328,1478.889123,-877.103405,0
0.038541,-201.973455,88.024359,48.651137,3.844158,5.880276,-0.307075,-5.427081,-5.605389,0.534213,5.185886,-0.256295,0.310511,-0.031958,-120.256889,188.646833,1478.576275,-876.933751,0
0.039583,-178.210916,35.810692,127.205114,5.359698,4.570223,1.962955,-6.218132,-4.318877,-1.740395,5.933034,-0.245336,0.317893,-0.054364,-112.826219,188.571552,1477.568618,-876.317122,0
0.040638,-134.009192,-14.349222,192.291288,6.569868,2.574967,3.867876,-5.837532,-2.363378,-3.729627,5.776489,-0.241683,0.315737,-0.058098,-90.760410,188.571643,1476.541850,-876.748822,0
0.041668,-74.982819,-71.274441,198.791288,6.750828,-0.023837,5.625958,-4.904690,0.283162,-5.408304,4.790965,-0.223418,0.307702,-0.035692,-48.212190,188.722395,1475.351349,-876.516023,0
0.042708,-22.364959,-146.840496,170.698485,6.219258,-2.296015,6.733193,-3.624830,2.617264,-6.675706,3.627549,-0.197847,0.309074,-0.020755,-13.004161,188.587224,1475.083097,-876.137276,0
0.043750,24.536280,-189.365278,111.496781,5.076948,-4.309022,6.241089,-1.225559,4.524978,-6.209873,1.357643,-0.150358,0.318154,-0.028224,11.549848,188.573891,1474.655537,-875.895327,0
0.044791,95.143346,-197.942720,53.698485,3.945948,-5.988304,5.121948,1.390131,6.318744,-5.152306,-1.243143,-0.139399,0.304763,-0.046895,53.374227,188.570993,1473.759433,-875.305392,0
0.045833,158.048854,-153.388346,2.104735,2.995908,-6.226173,2.982881,3.509549,6.568695,-3.100123,-3.310252,-0.037115,0.309401,-0.043161,97.404056,188.708391,1473.257101,-875.549129,0
0.046875,201.762851,-87.885685,-48.307197,1.966698,-5.771737,0.454893,5.296876,6.138632,-0.561124,-5.071386,0.028639,0.311818,-0.020755,125.758226,188.645857,1472.923674,-875.868421,0
0.047917,177.830175,-35.237105,-126.984281,0.451158,-4.468785,-1.799262,6.069269,4.881526,1.730270,-5.829207,0.006721,0.325405,-0.024490,117.162626,188.570810,1471.814020,-876.148989,0
0.048958,134.456453,13.968417,-191.947349,-0.736392,-2.509031,-3.676402,5.778222,2.955433,3.652355,-5.690451,0.010374,0.326843,-0.031958,95.028956,188.646085,1471.894492,-876.858143,0
0.050000,73.876158,71.461439,-199.087501,-0.849492,0.153677,-5.494014,4.800603,0.305217,5.435950,-4.672907,-0.018850,0.315280,-0.039427,53.328987,188.721424,1471.329793,-876.739059,0
0.051042,20.997420,146.665067,-170.711554,-0.340542,2.475559,-6.593311,3.524475,-2.061966,6.644597,-3.523723,-0.040768,0.303195,-0.028224,16.458388,188.646112,1471.352469,-876.541769,0
0.052093,-25.699654,191.122794,-108.912311,0.824388,4.477916,-6.093270,1.054308,-4.017465,6.153584,-1.154197,-0.099216,0.319526,-0.020755,-7.643221,188.570741,1471.117297,-877.536698,0
0.053125,-95.025017,198.298851,-52.480493,1.887528,6.064891,-4.986035,-1.542725,-5.745068,5.125394,1.350528,-0.164970,0.302280,-0.035692,-49.524150,188.570807,1470.530282,-877.028323,0
0.054167,-158.543020,153.067946,-1.489962,2.848878,6.327611,-2.835063,-3.654681,-5.998695,3.022851,3.378500,-0.238030,0.304763,-0.035692,-92.750970,188.663911,1470.299978,-876.253555,0
0.055208,-201.780632,86.997482,48.441856,3.855468,5.858974,-0.303106,-5.445738,-5.553929,0.479656,5.228581,-0.248989,0.303914,-0.035692,-120.720599,188.646857,1469.365531,-876.728309,0
0.056250,-177.893326,34.493873,127.094319,5.359698,4.587975,1.994704,-6.199475,-4.300498,-1.803345,5.957939,-0.234377,0.312275,-0.002084,-113.674469,188.555482,1469.206396,-877.086605,0
0.057292,-134.099932,-14.155927,191.614205,6.558558,2.628221,3.792472,-5.874846,-2.367054,-3.691857,5.783605,-0.259948,0.305547,-0.031958,-92.434290,188.571140,1468.972898,-876.709318,0
0.058333,-73.360841,-71.177794,199.271402,6.694278,-0.048689,5.621990,-4.979317,0.319920,-5.433485,4.794523,-0.230724,0.287256,-0.046895,-48.653280,188.721949,1469.053489,-876.785703,0
0.059375,-20.493447,-146.308936,170.575379,6.196638,-2.345719,6.729224,-3.650949,2.701806,-6.696689,3.620434,-0.212459,0.264523,-0.039427,-11.680891,188.646487,1469.071870,-877.197386,0
0.060417,24.853870,-189.655220,110.659659,5.076948,-4.284170,6.272837,-1.262873,4.517626,-6.184693,1.346970,-0.172276,0.296467,-0.050629,11.629018,188.571203,1468.827778,-876.768359,0
0.061458,94.530851,-198.015205,52.590530,3.923328,-5.995405,5.153697,1.382669,6.355501,-5.177486,-1.239585,-0.095563,0.296467,-0.009553,54.120687,188.495781,1469.257198,-876.727686,0
0.062509,159.160419,-151.721181,1.058333,3.029838,-6.258125,2.974944,3.587908,6.565019,-3.041370,-3.345830,-0.037115,0.310838,-0.046895,99.010076,188.722009,1468.989522,-876.545076,0
0.063542,201.536001,-87.027940,-48.430303,2.068488,-5.782388,0.506485,5.322995,6.157011,-0.565321,-5.057154,-0.007891,0.314039,-0.017021,126.380276,188.646496,1469.070724,-875.985013,0
0.064583,177.943600,-34.765950,-126.848864,0.519018,-4.482986,-1.783388,6.065538,4.888877,1.709287,-5.843439,0.010374,0.318350,-0.046895,119.175806,188.511144,1469.362111,-875.706315,0
0.065625,134.252288,13.920094,-191.873485,-0.747702,-2.569386,-3.668465,5.755834,2.984839,3.669142,-5.679778,-0.000585,0.332069,-0.031958,95.967686,188.571399,1469.467315,-875.586655,0
0.066667,73.989583,71.256064,-199.001326,-0.883422,0.111074,-5.450359,4.796872,0.305217,5.419163,-4.729833,0.014027,0.312732,-0.050629,53.826627,188.707038,1469.930096,-875.476385,0
0.067708,21.564545,146.846280,-170.539205,-0.363162,2.422305,-6.601249,3.543132,-2.021533,6.652991,-3.516607,-0.048074,0.299602,-0.028224,17.612008,188.571161,1469.948472,-875.263979,0
0.068750,-24.905679,189.286496,-111.509849,0.790458,4.350106,-6.148830,1.151324,-3.910869,6.145191,-1.300068,-0.080951,0.308290,-0.024490,-7.303921,188.571361,1469.986207,-873.846589,0
0.069792,-95.206497,198.347174,-53.736174,1.864908,6.061340,-4.974129,-1.460635,-5.759771,5.137985,1.307833,-0.139399,0.311295,-0.046895,-48.370530,188.571321,1470.396407,-873.942947,0
0.070833,-158.259458,154.082742,-1.834659,2.803638,6.256606,-2.870780,-3.598710,-5.980316,3.056425,3.342922,-0.201500,0.312732,-0.017021,-93.237300,188.722154,1470.553415,-873.695067,0
0.071875,-201.996140,88.712970,48.737311,3.855468,5.866075,-0.346761,-5.378574,-5.579659,0.559393,5.168097,-0.219765,0.312340,-0.050629,-120.313439,188.571413,1471.357271,-873.020163,0
0.072925,-178.052121,34.989190,128.399243,5.393628,4.559573,2.006610,-6.188281,-4.315201,-1.786559,5.901014,-0.278213,0.319396,-0.061832,-112.780979,188.571344,1471.560818,-872.476032,0
0.073958,-134.961962,-13.092808,192.254357,6.569868,2.653073,3.820252,-5.882309,-2.436893,-3.704447,5.765815,-0.252642,0.308356,-0.013287,-91.359840,188.571377,1472.126640,-872.767235,0
0.075000,-75.118929,-70.924095,199.000569,6.671658,-0.034487,5.629927,-4.900958,0.250081,-5.433485,4.794523,-0.267254,0.306984,-0.035692,-48.166950,188.587262,1472.369062,-872.784293,0
0.076042,-21.956629,-146.768011,170.476894,6.185328,-2.303115,6.764942,-3.688263,2.591533,-6.717673,3.680917,-0.190541,0.312471,-0.050629,-12.585691,188.571406,1473.331245,-871.908144,0
0.077083,24.558965,-188.978689,111.496781,5.099568,-4.238017,6.260932,-1.274067,4.462490,-6.218266,1.400337,-0.150358,0.321094,-0.043161,11.753428,188.550910,1473.696736,-871.274816,0
0.078125,94.791728,-198.232662,53.341477,3.923328,-6.009606,5.177508,1.337892,6.355501,-5.198470,-1.218238,-0.124787,0.301431,-0.031958,53.227197,188.645160,1474.132957,-871.298386,0
0.079167,157.651866,-153.484993,1.501515,2.916738,-6.222622,3.022567,3.520744,6.612804,-3.112713,-3.274673,-0.015197,0.309597,-0.046895,97.109996,188.722139,1474.936499,-871.104748,0
0.080208,201.740166,-87.281639,-48.356440,1.966698,-5.824991,0.510454,5.319264,6.193768,-0.615681,-5.074944,-0.029809,0.310185,-0.005818,125.701676,188.571096,1475.838192,-871.040821,0
0.081250,177.875545,-34.476008,-126.713447,0.473778,-4.500737,-1.787356,6.073001,4.885201,1.705090,-5.832765,-0.029809,0.318024,-0.039427,117.219176,188.495562,1475.682707,-870.797887,0
0.082292,133.991410,14.258359,-192.033523,-0.725082,-2.562285,-3.704182,5.808073,2.962784,3.673339,-5.733145,0.006721,0.324164,-0.024490,95.040266,188.646554,1476.166856,-871.029495,0
0.083346,72.344920,73.019876,-199.161364,-0.849492,0.167878,-5.553542,4.849111,0.268459,5.486310,-4.680023,-0.011544,0.275824,-0.039427,52.345017,188.721936,1476.418690,-871.082772,0
0.084376,20.736543,146.520096,-170.588447,-0.374472,2.440057,-6.648872,3.543132,-2.058291,6.665581,-3.498818,-0.048074,0.310250,-0.061832,16.322668,188.543454,1476.284508,-871.384264,0
0.085416,-25.007762,189.914703,-110.278788,0.779148,4.396260,-6.152799,1.169981,-3.932923,6.233321,-1.289395,-0.069992,0.293462,-0.043161,-7.156891,188.492843,1477.413450,-871.549722,0
0.086458,-94.775482,198.504226,-52.554356,1.898838,6.132346,-5.037627,-1.497949,-5.814907,5.192542,1.311391,-0.150358,0.300843,-0.043161,-49.264020,188.571091,1478.363198,-871.670660,0
0.087500,-158.395568,153.019622,-1.539205,2.882808,6.380865,-2.898560,-3.647218,-6.064858,3.064818,3.410521,-0.190541,0.306069,-0.039427,-92.750970,188.517187,1479.181718,-872.423804,0
0.088541,-201.996140,87.009563,48.454167,3.821538,5.940631,-0.350729,-5.442007,-5.627444,0.538409,5.214349,-0.256295,0.306200,-0.069301,-120.833699,188.587664,1479.612172,-872.559747,0
0.089583,-177.984066,34.638844,127.057387,5.371008,4.630578,1.958987,-6.255446,-4.362986,-1.786559,6.014865,-0.281866,0.324099,-0.058098,-113.776259,188.495528,1480.607371,-873.285314,0
0.090625,-134.190672,-14.010957,191.811175,6.547248,2.685026,3.883750,-5.923354,-2.436893,-3.725431,5.865435,-0.252642,0.320963,-0.054364,-92.739660,188.570917,1481.655209,-873.336693,0
0.091666,-73.553664,-71.153632,199.406819,6.716898,-0.006085,5.697393,-5.009168,0.275811,-5.496435,4.855007,-0.234377,0.287386,-0.017021,-49.162230,188.646332,1482.768397,-873.601606,0
0.092708,-20.924462,-146.260613,170.723107,6.196638,-2.320867,6.828439,-3.710651,2.613588,-6.738656,3.705822,-0.205153,0.327039,-0.058098,-12.348181,188.570870,1483.187026,-873.591642,0
0.093759,25.284885,-190.996200,109.699432,5.054328,-4.365827,6.328397,-1.247947,4.572763,-6.323183,1.386106,-0.164970,0.321290,0.001650,11.651638,188.477519,1485.393882,-874.547542,0
0.094792,94.644276,-198.003125,53.858523,4.002498,-6.066410,5.209257,1.349086,6.429016,-5.248830,-1.246701,-0.084604,0.309727,-0.013287,54.177237,188.492157,1486.173012,-875.588896,0
0.095833,158.581951,-153.243375,2.584848,3.052458,-6.282977,3.074159,3.561789,6.678968,-3.154680,-3.335157,-0.037115,0.313974,-0.020755,98.308856,188.511587,1487.335475,-876.668692,0
0.096875,201.706138,-88.236031,-48.257955,2.023248,-5.856944,0.522359,5.319264,6.215823,-0.586304,-5.114080,-0.000585,0.313124,-0.050629,126.448136,188.507318,1487.565776,-877.786331,0
0.097917,177.954942,-35.937797,-127.316667,0.473778,-4.582394,-1.823074,6.143897,4.944013,1.713483,-5.907480,-0.000585,0.317371,-0.031958,119.187116,188.495703,1488.893482,-878.862838,0
0.098958,134.671960,13.303967,-192.033523,-0.747702,-2.615540,-3.720057,5.822999,3.017920,3.698519,-5.743819,-0.000585,0.326581,-0.069301,95.877206,188.495721,1489.416583,-879.375177,0
0.100000,74.726845,71.509763,-199.259849,-0.860802,0.036518,-5.585291,4.923739,0.327271,5.440146,-4.793874,-0.015197,0.312994,-0.050629,53.611737,188.646513,1490.323053,-879.609052,0
0.101042,22.131670,146.882523,-170.662311,-0.329232,2.436506,-6.656809,3.587908,-2.028885,6.699154,-3.580648,-0.055380,0.310381,-0.031958,17.510218,188.571114,1491.503171,-879.660854,0
0.102083,-24.554062,189.950946,-110.968182,0.756528,4.417562,-6.204390,1.184906,-3.999087,6.313059,-1.289395,-0.106522,0.337687,-0.005818,-7.089031,188.495750,1492.507294,-880.999899,0
0.103132,-96.000472,197.682724,-52.775947,1.830978,6.178500,-5.053501,-1.546457,-5.873719,5.251295,1.346970,-0.143052,0.309597,-0.046895,-49.128300,188.495754,1493.587784,-881.497189,0
0.104167,-158.849268,153.478697,-2.179356,2.814948,6.427019,-2.942214,-3.673338,-6.090588,3.123572,3.410521,-0.179582,0.312471,-0.020755,-93.678389,188.571140,1494.553756,-881.664050,0
0.105208,-202.291045,88.229734,48.441856,3.844158,5.979684,-0.406289,-5.475589,-5.682580,0.559393,5.239254,-0.212459,0.314627,-0.039427,-120.358679,188.552796,1495.596232,-882.363100,0
0.106250,-178.188231,35.726125,126.946591,5.337078,4.641229,1.998673,-6.322610,-4.407095,-1.782362,6.018422,-0.263601,0.331938,-0.009553,-112.928009,188.495141,1496.020914,-882.713828,0
0.107291,-134.485577,-13.213617,192.229735,6.581178,2.677925,3.840095,-5.968130,-2.495705,-3.700250,5.915245,-0.238030,0.329325,-0.039427,-91.144950,188.437804,1497.053252,-882.639481,0
0.108333,-74.120789,-71.117390,199.394508,6.694278,0.025867,5.717236,-5.005437,0.202296,-5.496435,4.876354,-0.227071,0.323446,-0.039427,-47.680621,188.571520,1497.711840,-882.156431,0
0.109375,-21.412189,-146.695525,170.649243,6.185328,-2.345719,6.840345,-3.733040,2.635642,-6.789016,3.688033,-0.183235,0.316391,-0.028224,-12.314251,188.495727,1498.035191,-882.968479,0
0.110428,25.250858,-191.382789,108.702273,5.031708,-4.387129,6.344272,-1.233022,4.627899,-6.314790,1.322065,-0.161317,0.317044,-0.035692,12.104038,188.495698,1497.649101,-883.760473,0
