1-Time,2-VGERA,3-VGERB,4-VGERC,5-VN,6-IGERAN,7-IGERBN,8-IGERCN,9-IGERAT,10-IGERBT,11-IGERCT,12-IN,13-IFD,14-IFAULT,15-VFAULT,16-Speed (rad/s),17-Active Power,18-Reactive Power,19-FAULT 
0.000000,-87.244062,-118.595342,180.313069,6.298428,4.722885,-0.342792,-4.262894,-4.701155,0.571983,4.086512,-0.241683,0.560314,-0.043161,-145.376398,188.495474,1049.496224,970.585905,0
0.001042,-2.742433,-157.761633,177.617046,6.321048,3.817564,1.458945,-4.979317,-3.785893,-1.345906,4.822986,-0.234377,0.551691,0.016587,-111.039239,188.570890,1048.909281,971.116700,0
0.002083,71.335437,-175.339349,133.582008,5.427558,1.989171,3.228934,-4.803943,-2.113427,-3.045566,4.637978,-0.245336,0.549536,-0.020755,-59.103720,188.495544,1047.657485,971.424699,0
0.003125,124.248202,-193.895617,47.407765,3.844158,0.121725,4.633812,-4.206924,-0.051331,-4.581556,4.125648,-0.194194,0.553194,-0.061832,14.071978,188.646319,1047.607896,971.651759,0
0.004167,166.419619,-157.592501,-23.710606,2.475648,-1.585959,5.141791,-2.912138,1.554972,-5.076766,2.955116,-0.190541,0.554762,-0.028224,72.657777,188.495370,1047.294357,972.015726,0
0.005208,182.163010,-108.072875,-94.952084,1.129758,-3.492458,4.935425,-0.923318,3.503119,-4.938275,0.998301,-0.161317,0.550450,-0.020755,126.663026,188.495519,1046.549117,972.505578,0
0.006250,177.830175,-23.011230,-145.511743,0.168408,-4.518489,4.066305,0.878934,4.536005,-4.090543,-0.737929,-0.135746,0.554827,-0.028224,156.125575,188.495477,1045.847478,972.349506,0
0.007293,152.604453,53.956209,-175.131061,-0.408402,-5.026179,2.597929,2.614021,5.105746,-2.642684,-2.477716,-0.077298,0.543591,-0.039427,167.887975,188.722927,1045.682533,971.358070,0
0.008334,84.991808,119.664246,-182.394319,-0.532812,-4.589494,0.462831,4.173733,4.672008,-0.573714,-3.957780,-0.062686,0.531767,-0.080503,150.764635,188.496485,1045.833900,971.908557,0
0.009375,1.238784,157.876146,-177.691667,-0.442332,-3.740978,-1.311126,4.841649,3.760422,1.256044,-4.662233,-0.004238,0.556787,-0.054364,114.436916,188.505284,1044.619923,971.886911,0
0.010417,-71.319191,176.178715,-135.577084,0.349368,-1.912585,-3.112863,4.636423,2.054874,2.985081,-4.534151,-0.029809,0.546923,-0.050629,62.908557,188.508237,1044.967685,971.802645,0
0.011459,-124.799081,193.478570,-47.999432,1.955388,0.001015,-4.533616,4.058061,0.040563,4.508481,-3.968453,-0.040768,0.554304,-0.031958,-9.984391,188.723060,1044.541222,971.638573,0
0.012500,-167.446883,157.477476,23.623674,3.312588,1.719350,-5.021752,2.714768,-1.613525,5.007887,-2.758785,-0.099216,0.557636,-0.084238,-68.400540,188.497842,1044.526732,971.710712,0
0.013541,-182.044681,107.692070,95.591478,4.692408,3.583246,-4.779669,0.752067,-3.528591,4.848413,-0.816201,-0.113828,0.545812,-0.035692,-121.727189,188.495647,1044.822912,971.040285,0
0.014583,-177.984066,21.374011,145.437122,5.631138,4.580874,-3.898643,-1.035259,-4.473258,3.996484,0.863103,-0.168623,0.506486,-0.031958,-152.908858,188.495533,1044.076862,970.239224,0
0.015625,-152.803715,-54.554470,174.773296,6.196638,5.074363,-2.473921,-2.762883,-5.123866,2.603182,2.599332,-0.205153,0.558681,-0.028224,-164.478988,188.721719,1043.659236,969.657450,0
0.016666,-85.417919,-119.042336,180.842425,6.343668,4.737087,-0.291200,-4.330059,-4.664397,0.492246,4.079396,-0.201500,0.555545,-0.035692,-146.586568,188.495537,1043.528730,968.921342,0
0.017708,-3.025996,-157.749552,177.457008,6.219258,3.803363,1.435134,-4.953198,-3.804272,-1.316529,4.826544,-0.252642,0.561098,-0.073035,-110.179679,188.495617,1043.293159,969.264793,0
0.018750,70.734285,-176.136688,132.978788,5.416248,2.010473,3.220996,-4.800211,-2.084021,-3.066550,4.645094,-0.216112,0.558681,-0.039427,-57.757830,188.495571,1043.768345,969.026841,0
0.019791,124.361627,-193.400300,47.186174,3.810228,0.121725,4.633812,-4.173341,-0.110143,-4.577359,4.118532,-0.234377,0.552214,-0.054364,15.610138,188.721838,1043.034528,969.443407,0
0.020833,166.623784,-157.326721,-24.658523,2.475648,-1.575308,5.149728,-2.908407,1.543945,-5.047389,2.901749,-0.219765,0.556721,-0.039427,72.114897,188.495470,1042.472649,968.939105,0
0.021875,181.527830,-107.190969,-95.653788,1.129758,-3.474707,4.955267,-0.923318,3.503119,-4.917291,0.969838,-0.183235,0.541305,-0.039427,128.676206,188.495519,1042.051969,968.556043,0
0.022916,177.852860,-22.467589,-145.487122,0.202338,-4.497187,4.082179,0.867740,4.495572,-4.128313,-0.723697,-0.077298,0.554696,-0.046895,157.810765,188.495436,1041.403463,969.052751,0
0.023958,152.525056,53.497135,-175.069508,-0.442332,-4.983575,2.597929,2.621483,5.002825,-2.714028,-2.459926,-0.099216,0.555741,-0.076769,170.455345,188.721701,1040.125418,968.983934,0
0.025000,85.422823,119.519275,-180.609281,-0.566742,-4.624997,0.446956,4.192390,4.719793,-0.603091,-3.904412,-0.051727,0.548556,-0.061832,150.708085,188.495611,1039.219755,969.316529,0
0.026041,1.114017,158.081521,-177.285417,-0.487572,-3.716126,-1.303189,4.860305,3.789828,1.264437,-4.655118,-0.011544,0.554435,-0.061832,114.470846,188.495474,1039.118761,969.636522,0
0.027083,-72.056454,175.949178,-132.708713,0.417228,-1.940987,-3.073178,4.699856,2.080604,2.943114,-4.519920,-0.059033,0.554370,-0.031958,64.786017,188.495490,1037.426477,970.170064,0
0.028125,-124.912506,193.587298,-47.285417,2.000628,-0.041588,-4.501868,4.080449,0.128781,4.474907,-3.996916,-0.066339,0.555415,-0.058098,-8.728981,188.721621,1036.283532,971.340306,0
0.029166,-167.412856,157.260020,23.796023,3.346518,1.680297,-4.997941,2.804321,-1.569416,4.978510,-2.808595,-0.095563,0.561686,-0.054364,-69.248790,188.570828,1035.368074,971.967715,0
0.030208,-182.396299,107.800799,95.714584,4.658478,3.561944,-4.779669,0.819232,-3.484482,4.861003,-0.873127,-0.106522,0.548882,-0.046895,-121.523609,188.570740,1034.703023,972.829027,0
0.031250,-177.950038,21.941814,145.646402,5.619828,4.559573,-3.934360,-0.930781,-4.506340,4.080418,0.781272,-0.161317,0.551495,-0.039427,-152.218948,188.705188,1034.609401,974.516989,0
0.032291,-152.327330,-54.904817,175.068751,6.196638,5.021109,-2.545356,-2.688256,-5.031972,2.657739,2.545964,-0.186888,0.493029,-0.050629,-164.546848,188.703574,1032.875760,974.769078,0
0.033333,-84.578574,-119.912161,180.300758,6.343668,4.708684,-0.390415,-4.247969,-4.686452,0.571983,4.029586,-0.201500,0.537450,-0.035692,-144.743038,188.569530,1031.410811,975.983282,0
0.034383,-0.961661,-158.558973,176.558334,6.264498,3.824665,1.375605,-4.956929,-3.841029,-1.261972,4.790965,-0.259948,0.564495,-0.050629,-109.862999,188.524223,1029.823807,977.180825,0
0.035417,71.267382,-175.411834,132.904925,5.450178,2.077928,3.173373,-4.789017,-2.172239,-2.995206,4.659325,-0.197847,0.559792,-0.031958,-58.956690,188.578917,1028.501161,978.389945,0
0.036458,124.701902,-193.122439,47.617046,3.810228,0.164328,4.590158,-4.203192,-0.146900,-4.506016,4.154111,-0.259948,0.559138,-0.073035,14.490448,188.722369,1027.529222,978.901930,0
0.037500,166.737209,-156.915970,-24.621591,2.430408,-1.518504,5.094168,-2.949452,1.496160,-5.009619,2.915980,-0.212459,0.556003,-0.043161,73.698297,188.571527,1026.526702,979.048312,0
0.038542,181.686625,-106.526519,-96.084659,1.095828,-3.435654,4.923519,-0.975557,3.433280,-4.934078,1.019648,-0.179582,0.550123,0.001650,127.443416,188.496183,1025.323010,979.998206,0
0.039583,177.376475,-21.247418,-145.622538,0.202338,-4.465235,4.117896,0.811769,4.473517,-4.124116,-0.666772,-0.146705,0.538169,-0.050629,156.114265,188.571370,1024.106153,980.497492,0
0.040625,152.252836,54.137423,-175.069508,-0.408402,-4.933871,2.657457,2.554319,5.039583,-2.714028,-2.399443,-0.084604,0.565410,-0.046895,167.899285,188.646886,1023.550070,981.167354,0
0.041666,85.672358,119.881703,-180.215341,-0.544122,-4.664050,0.514422,4.117763,4.675684,-0.666042,-3.904412,-0.055380,0.562405,-0.039427,150.730705,188.571404,1022.837862,981.318996,0
0.042708,1.703827,158.359382,-177.039205,-0.476262,-3.723226,-1.196037,4.815529,3.789828,1.172110,-4.619539,-0.044421,0.564299,-0.046895,113.713076,188.496109,1021.602814,981.628497,0
0.043750,-72.442099,176.069987,-132.203978,0.349368,-1.983590,-3.049366,4.658811,2.135740,2.901147,-4.516362,-0.037115,0.555545,-0.061832,61.698387,188.646916,1020.681368,982.447148,0
0.044792,-125.400234,193.442327,-46.214394,2.023248,-0.073540,-4.454245,4.065524,0.150835,4.462317,-3.982685,-0.062686,0.553455,-0.046895,-11.251111,188.646911,1019.992957,982.740004,0
0.045833,-167.480911,157.006321,24.867046,3.403068,1.634143,-4.978098,2.808052,-1.495901,4.949133,-2.829942,-0.091910,0.556917,-0.028224,-68.841630,188.571413,1018.639950,983.422349,0
0.046875,-181.874544,107.643747,96.391667,4.715028,3.544193,-4.815386,0.890128,-3.462427,4.848413,-0.912263,-0.121134,0.550123,-0.054364,-121.862909,188.496123,1017.877350,983.801901,0
0.047917,-177.632448,22.545859,146.286553,5.642448,4.573774,-4.001826,-0.968094,-4.462231,4.097205,0.788388,-0.150358,0.555611,-0.061832,-153.123748,188.646942,1017.576110,983.802321,0
0.048958,-152.610892,-54.723603,174.687122,6.185328,5.060162,-2.513607,-2.669599,-5.072406,2.611575,2.542406,-0.175929,0.544571,-0.054364,-164.128378,188.646987,1018.083889,983.458836,0
0.050000,-84.022792,-120.238345,180.707008,6.332358,4.705134,-0.382478,-4.236774,-4.723209,0.592966,4.029586,-0.223418,0.590168,-0.039427,-145.749628,188.571531,1018.038525,984.284255,0
0.051041,-0.326481,-157.967009,176.866099,6.275808,3.831766,1.391479,-4.923347,-3.800596,-1.245185,4.751829,-0.252642,0.535752,-0.054364,-109.116539,188.496156,1017.328489,983.658799,0
0.052083,72.140755,-175.846747,132.227841,5.404938,2.085029,3.177342,-4.807674,-2.150184,-2.961633,4.659325,-0.234377,0.555872,-0.028224,-57.192330,188.722293,1016.783848,983.861882,0
0.053125,125.144260,-192.602960,47.395455,3.798918,0.196281,4.610001,-4.203192,-0.194685,-4.485032,4.150553,-0.245336,0.557309,-0.054364,15.723238,188.646715,1015.942707,984.266698,0
0.054166,167.497157,-156.831404,-24.535417,2.430408,-1.493652,5.094168,-2.997960,1.466754,-5.034799,2.990695,-0.194194,0.559269,-0.069301,72.510747,188.571596,1015.843887,985.678964,0
0.055208,181.414405,-106.671490,-96.503220,1.095828,-3.393051,4.911613,-1.050185,3.359765,-4.883718,1.062342,-0.154011,0.549144,-0.013287,129.253016,188.496082,1014.383289,985.695029,0
0.056250,177.319762,-20.196379,-145.881061,0.145788,-4.479436,4.157582,0.759530,4.488220,-4.119920,-0.616962,-0.117481,0.526737,-0.058098,158.003035,188.722322,1013.808349,986.344484,0
0.057292,151.617656,55.442161,-174.749432,-0.397092,-4.919670,2.689206,2.520736,5.006501,-2.747601,-2.331844,-0.102869,0.560118,-0.054364,170.127355,188.646849,1012.187377,986.961180,0
0.058333,84.844356,120.389101,-180.129167,-0.532812,-4.632098,0.581888,4.132688,4.708765,-0.749975,-3.865276,-0.059033,0.556591,-0.043161,150.527125,188.571650,1010.999200,988.300665,0
0.059375,2.032759,158.637243,-176.669887,-0.510192,-3.797782,-1.200006,4.789409,3.859667,1.121750,-4.640886,-0.000585,0.563254,-0.054364,114.289886,188.496179,1010.732971,989.546196,0
0.060417,-72.113166,175.635075,-132.253220,0.338058,-2.040395,-2.962057,4.670006,2.157795,2.850787,-4.516362,-0.022503,0.554892,-0.061832,63.971697,188.722367,1010.025267,989.670945,0
0.061458,-125.808564,193.152385,-46.042046,2.011938,-0.148096,-4.406622,4.095375,0.216999,4.395170,-4.000474,-0.040768,0.551169,-0.043161,-10.131421,188.646801,1008.649379,990.360571,0
0.062500,-167.106608,156.655974,25.765720,3.403068,1.559588,-4.934443,2.893873,-1.415034,4.936543,-2.901099,-0.088257,0.556983,-0.046895,-70.255380,188.571473,1007.268678,991.607769,0
0.063542,-181.976626,106.556465,96.945644,4.748958,3.444785,-4.827292,0.975949,-3.363182,4.894576,-1.004767,-0.124787,0.551822,-0.058098,-121.998629,188.496134,1005.499272,993.370890,0
0.064583,-177.314858,22.062623,146.397349,5.665068,4.509869,-4.065324,-0.826302,-4.421798,4.139172,0.653190,-0.161317,0.555088,-0.035692,-152.399908,188.722348,1003.661749,994.795569,0
0.065625,-152.270617,-53.902102,175.351894,6.174018,5.049511,-2.589010,-2.591240,-5.031972,2.758460,2.453460,-0.150358,0.562797,-0.061832,-164.716498,188.797648,1001.988569,996.414882,0
0.066667,-85.191069,-120.576611,179.734470,6.298428,4.729986,-0.465818,-4.188267,-4.682776,0.702080,3.940640,-0.274560,0.539018,-0.050629,-144.245398,188.571476,1000.045236,996.730299,0
0.067708,-0.269768,-158.486488,176.693751,6.230568,3.913422,1.284327,-4.912152,-3.866760,-1.144465,4.748271,-0.219765,0.522360,-0.043161,-109.636799,188.496111,998.982734,998.265349,0
0.068750,73.206950,-174.940679,131.957008,5.359698,2.177336,3.070190,-4.818868,-2.253105,-2.890289,4.673556,-0.227071,0.559988,-0.073035,-57.712590,188.722311,997.435475,999.740115,0
0.069792,125.700042,-192.675446,46.693750,3.821538,0.313440,4.550472,-4.307671,-0.293930,-4.480835,4.214594,-0.212459,0.558877,-0.061832,15.078568,188.722306,996.638668,1001.619146,0
0.070833,167.213594,-156.529381,-24.498485,2.453028,-1.390694,5.074325,-3.080050,1.327075,-4.984438,3.086757,-0.219765,0.568284,-0.035692,73.596507,188.571455,994.423038,1002.986852,0
0.071875,181.675282,-106.937270,-96.638637,1.050588,-3.304294,4.971142,-1.117349,3.341386,-4.976045,1.165520,-0.143052,0.554827,-0.020755,127.726166,188.571552,994.305855,1005.105601,0
0.072917,176.854720,-20.860829,-146.275000,0.134478,-4.397779,4.165519,0.655051,4.469842,-4.166083,-0.528016,-0.121134,0.530395,-0.028224,156.182125,188.722192,993.414535,1006.170151,0
0.073958,151.232011,56.106610,-174.872538,-0.385782,-4.923221,2.732861,2.446109,5.061637,-2.814748,-2.289150,-0.099216,0.524124,-0.024490,167.401645,188.722201,992.996780,1007.732919,0
0.075000,83.755475,121.464301,-179.710607,-0.521502,-4.649849,0.677134,4.091643,4.716117,-0.766762,-3.815466,-0.055380,0.547772,-0.054364,150.108655,188.571455,991.844776,1008.277889,0
0.076047,0.410782,159.168802,-175.882008,-0.442332,-3.861687,-1.124603,4.800603,3.874370,1.062996,-4.630213,-0.022503,0.564822,-0.020755,112.830896,188.571558,990.561831,1009.185267,0
0.077094,-73.145334,176.758599,-129.766478,0.439848,-2.019093,-2.997775,4.655080,2.168822,2.880164,-4.523477,-0.011544,0.557179,-0.054364,60.035817,188.722308,990.245689,1010.006035,0
0.078127,-126.273606,192.632907,-46.128220,2.011938,-0.204901,-4.378842,4.110300,0.268459,4.374186,-4.064515,-0.037115,0.555480,-0.046895,-12.065431,188.722311,989.675241,1011.166203,0
0.079166,-167.628363,156.498923,25.814962,3.346518,1.524085,-4.926506,2.919993,-1.363574,4.957527,-2.918889,-0.077298,0.553194,-0.013287,-69.825600,188.571666,989.293728,1011.942918,0
0.080208,-181.443529,106.085310,97.610417,4.771578,3.423484,-4.831260,0.953561,-3.341127,4.881986,-1.026114,-0.124787,0.549536,-0.084238,-122.643299,188.647007,988.529707,1012.145665,0
0.081250,-176.951898,20.782047,146.692803,5.653758,4.502768,-4.045481,-0.818840,-4.410771,4.197925,0.646074,-0.135746,0.548033,-0.035692,-153.225538,188.722594,988.017897,1013.122677,0
0.082291,-152.145850,-54.832331,174.982576,6.207948,5.060162,-2.612822,-2.539001,-5.046675,2.808820,2.396534,-0.172276,0.563123,-0.024490,-164.286718,188.649244,987.093904,1014.165778,0
0.083333,-85.088987,-120.866552,179.845266,6.343668,4.740637,-0.541221,-4.136027,-4.715858,0.706277,3.933524,-0.241683,0.559726,-0.050629,-145.659148,188.571219,987.125261,1014.672494,0
0.084375,-0.882263,-158.607297,176.176705,6.253188,3.895671,1.236704,-4.871107,-3.899841,-1.110891,4.680672,-0.252642,0.559465,-0.054364,-108.437939,188.646636,986.097274,1014.754846,0
0.085416,73.490513,-175.435996,131.304546,5.359698,2.180886,3.030504,-4.785286,-2.245754,-2.844125,4.616631,-0.259948,0.553455,-0.028224,-55.755960,188.722155,985.014965,1014.456669,0
0.086458,126.074345,-192.349261,45.536553,3.821538,0.334742,4.479037,-4.296476,-0.293930,-4.443065,4.189689,-0.212459,0.554566,-0.039427,16.978648,188.722040,984.100145,1014.293900,0
0.087500,167.429102,-156.130711,-25.643371,2.486958,-1.358741,5.090199,-3.065124,1.360157,-5.009619,3.051178,-0.216112,0.558485,-0.046895,72.838737,188.571437,984.431851,1014.204512,0
0.088541,181.210240,-106.586924,-97.266478,1.095828,-3.304294,4.931456,-1.147200,3.242141,-4.925685,1.190424,-0.135746,0.556068,-0.050629,129.433976,188.646916,982.559980,1014.088217,0
0.089583,176.741295,-21.440712,-146.730493,0.157098,-4.330324,4.185362,0.662514,4.326487,-4.170280,-0.463974,-0.135746,0.545551,-0.017021,158.082205,188.722219,980.517283,1014.043006,0
0.090625,151.175298,55.744183,-174.897160,-0.385782,-4.898369,2.736829,2.408795,4.984447,-2.839928,-2.214435,-0.132093,0.540586,-0.058098,169.833295,188.646869,978.964512,1013.871089,0
0.091666,83.335803,121.766324,-179.698296,-0.510192,-4.607246,0.629511,4.024479,4.708765,-0.779352,-3.769214,-0.055380,0.561294,-0.024490,149.622325,188.571346,978.147879,1013.984025,0
0.092708,-0.655413,159.023832,-175.980493,-0.431022,-3.861687,-1.092854,4.740902,3.907452,1.000045,-4.551940,-0.037115,0.537058,-0.009553,113.328536,188.646715,976.466354,1014.485423,0
0.093750,-73.508294,175.320971,-131.440720,0.417228,-2.111400,-2.866811,4.666274,2.275419,2.733280,-4.505688,-0.029809,0.557767,-0.017021,63.451437,188.722183,974.337946,1015.409440,0
0.094791,-126.568511,192.197994,-46.337500,1.989318,-0.247504,-4.323282,4.155076,0.297865,4.323826,-4.068073,-0.022503,0.563058,-0.054364,-10.301071,188.646764,973.460942,1015.541059,0
0.095833,-167.934611,155.979444,25.691856,3.346518,1.414026,-4.898726,2.927456,-1.286383,4.881986,-2.961583,-0.073645,0.559138,-0.050629,-70.786950,188.571341,971.745010,1015.918249,0
0.096875,-181.829174,105.650398,97.992046,4.692408,3.341827,-4.823323,1.024457,-3.278640,4.856806,-1.083040,-0.110175,0.534119,-0.046895,-122.812949,188.698856,970.441053,1016.512453,0
0.097916,-176.554911,19.839737,146.705114,5.676378,4.435313,-4.077229,-0.747944,-4.337256,4.113992,0.596264,-0.128440,0.514456,-0.020755,-152.456458,188.780955,968.671094,1015.706207,0
0.098958,-151.102340,-55.859208,175.142614,6.207948,5.014008,-2.664413,-2.497956,-4.998891,2.842394,2.360956,-0.157664,0.569656,-0.039427,-164.388508,188.646129,967.274089,1016.115053,0
0.100000,-84.567232,-121.543083,179.254357,6.298428,4.754838,-0.588844,-4.106177,-4.741588,0.806998,3.826789,-0.201500,0.565932,-0.028224,-144.098368,188.571279,965.084154,1017.362559,0
0.101041,-1.131798,-159.114695,175.832008,6.196638,3.927623,1.141458,-4.867376,-3.914544,-1.064727,4.712693,-0.259948,0.565083,-0.050629,-109.410599,188.721965,964.943039,1018.078371,0
0.102083,73.343060,-174.831951,131.378409,5.371008,2.251892,2.974944,-4.774092,-2.315593,-2.755995,4.627304,-0.234377,0.562405,-0.065566,-56.773860,188.722194,963.628109,1018.895709,0
0.103125,126.641470,-192.252614,45.314962,3.764988,0.398647,4.455226,-4.300208,-0.400527,-4.375918,4.207478,-0.223418,0.557571,0.005384,16.661968,188.571348,961.957311,1020.013505,0
0.104166,167.292992,-155.744122,-26.591288,2.453028,-1.291286,5.042576,-3.139752,1.275615,-4.959258,3.115220,-0.190541,0.560837,-0.024490,74.863227,188.571355,960.181359,1020.984051,0
0.105208,181.210240,-105.523804,-98.066667,1.061898,-3.226188,4.975110,-1.203171,3.245817,-4.925685,1.229561,-0.154011,0.548425,-0.039427,128.348216,188.722165,959.609567,1021.687386,0
0.106250,176.128799,-21.066204,-147.099811,0.157098,-4.369377,4.205205,0.580424,4.363245,-4.262607,-0.481764,-0.124787,0.556003,-0.039427,156.430945,188.722105,960.079707,1022.884589,0
0.107291,151.129928,55.309271,-175.032576,-0.374472,-4.905469,2.776515,2.334168,4.907256,-2.894485,-2.185972,-0.102869,0.561686,-0.065566,167.356405,188.646677,958.998888,1022.908708,0
0.108333,83.687420,122.177074,-179.316667,-0.532812,-4.635648,0.696977,3.957314,4.727144,-0.850696,-3.712288,-0.066339,0.557048,-0.043161,149.407435,188.571471,957.893957,1023.734778,0
0.109375,-0.870921,159.144641,-175.697349,-0.419712,-3.868788,-1.013483,4.714782,3.900100,1.000045,-4.544825,-0.018850,0.555088,-0.035692,112.118366,188.722121,957.691967,1023.664499,0
0.110416,-74.574489,175.441780,-130.665152,0.439848,-2.132702,-2.866811,4.670006,2.286446,2.716493,-4.534151,-0.044421,0.542415,-0.013287,60.182847,188.722290,957.297286,1024.429787,0
