1-Time,2-VGERA,3-VGERB,4-VGERC,5-VN,6-IGERAN,7-IGERBN,8-IGERCN,9-IGERAT,10-IGERBT,11-IGERCT,12-IN,13-IFD,14-IFAULT,15-VFAULT,16-Speed (rad/s),17-FAULT 
0.000000,-155.571285,162.889721,4.862311,2.950668,3.877919,-3.680371,-0.456897,-3.557997,3.803436,0.365004,-0.135746,0.393605,-0.024490,13.348138,188.495803,0
0.001042,-179.787524,110.120332,65.799811,4.115598,4.442413,-2.430267,-2.106162,-4.230659,2.632559,2.005171,-0.172276,0.392690,-0.035692,14.841058,188.571111,0
0.002083,-184.664799,32.850870,123.745834,5.235288,4.424662,-0.910299,-3.471844,-4.175523,1.130143,3.285996,-0.179582,0.398047,-0.039427,17.419738,188.495776,0
0.003125,-154.686570,-34.367280,166.082008,6.026988,3.721707,0.625543,-4.128565,-3.598430,-0.439420,4.018913,-0.230724,0.407062,-0.039427,16.831618,188.495807,0
0.004167,-83.705202,-87.172911,189.681440,6.524628,2.418755,2.578086,-4.598717,-2.201645,-2.340522,4.449412,-0.216112,0.396087,-0.013287,9.740248,188.495841,0
0.005208,-18.100179,-140.703397,181.876516,6.377598,0.909887,3.590075,-3.897220,-0.701939,-3.456842,3.876599,-0.219765,0.386158,-0.039427,3.972148,188.571219,0
0.006250,44.499081,-181.693904,133.951326,5.438868,-0.943359,4.359980,-2.859899,1.113882,-4.212247,2.851939,-0.194194,0.400529,-0.020755,0.477358,188.495814,0
0.007292,97.457216,-193.243248,57.527084,4.025118,-2.590688,4.419509,-1.307649,2.863539,-4.392705,1.368317,-0.157664,0.390796,-0.035692,-4.419871,188.495825,0
0.008333,154.770871,-162.896017,-5.589394,2.848878,-3.755179,3.836127,0.371467,3.947885,-3.754807,-0.257619,-0.124787,0.388183,-0.017021,-8.457541,188.495772,0
0.009375,178.771602,-108.713163,-65.899053,1.638708,-4.269969,2.578086,1.972225,4.576438,-2.651077,-1.855092,-0.077298,0.390926,-0.039427,-10.108801,188.571228,0
0.010417,184.284057,-31.407458,-123.192614,0.586878,-4.348075,1.141458,3.337906,4.543357,-1.081514,-3.157264,-0.051727,0.386288,-0.043161,-12.630931,188.495881,0
0.011458,153.999581,35.315375,-165.688826,-0.250062,-3.609618,-0.489630,4.031941,3.922155,0.441885,-3.872392,-0.062686,0.408564,-0.065566,-10.346311,188.495767,0
0.012500,83.097610,87.529042,-189.411364,-0.736392,-2.359920,-2.394550,4.520751,2.609912,2.305217,-4.292217,-0.033462,0.393997,-0.054364,-5.030611,188.571183,0
0.013542,18.082398,140.854152,-181.791099,-0.566742,-0.826199,-3.374790,3.819253,1.091827,3.442521,-3.772772,-0.044421,0.401574,-0.031958,0.929758,188.571103,0
0.014583,-44.119875,181.578879,-134.025947,0.349368,1.101602,-4.243910,2.767007,-0.764427,4.218909,-2.755228,-0.066339,0.397720,-0.039427,4.254898,188.495825,0
0.015625,-97.747217,193.430246,-57.958712,1.751808,2.716978,-4.275658,1.203563,-2.473650,4.420350,-1.243143,-0.106522,0.397459,-0.020755,9.084268,188.495702,0
0.016667,-155.321750,162.998449,4.874621,2.950668,3.913422,-3.704182,-0.434509,-3.594754,3.790846,0.343657,-0.128440,0.398439,-0.046895,13.517788,188.495812,0
0.017708,-179.934976,110.422355,65.836743,4.115598,4.428212,-2.434236,-2.094968,-4.204929,2.611575,1.941130,-0.172276,0.397590,-0.009553,14.999398,188.571207,0
0.018750,-184.676141,33.551563,123.659659,5.201358,4.417562,-0.973797,-3.438261,-4.186550,1.142733,3.268207,-0.194194,0.399811,-0.065566,17.204848,188.495812,0
0.019792,-154.958790,-33.388727,166.278978,6.026988,3.721707,0.621574,-4.106177,-3.572700,-0.426830,3.990450,-0.212459,0.408891,-0.013287,16.888168,188.495826,0
0.020833,-84.726027,-87.112507,189.385985,6.468078,2.450707,2.534431,-4.580061,-2.264133,-2.319539,4.410276,-0.205153,0.409152,-0.039427,9.695008,188.495729,0
0.021875,-18.984894,-141.089986,181.827273,6.343668,0.906336,3.522609,-3.908414,-0.731345,-3.389695,3.883714,-0.201500,0.407192,-0.017021,4.164418,188.571199,0
0.022917,44.181491,-181.548933,134.123675,5.461488,-0.918507,4.371886,-2.882287,1.110206,-4.233230,2.834150,-0.201500,0.393735,-0.031958,0.285088,188.495765,0
0.023958,97.616011,-193.424462,57.933334,4.059048,-2.580037,4.435383,-1.300186,2.801051,-4.405295,1.389664,-0.164970,0.395434,-0.035692,-4.295461,188.571060,0
0.025000,155.167859,-162.835613,-5.392424,2.803638,-3.733877,3.816284,0.375199,3.889073,-3.809364,-0.218483,-0.113828,0.391122,-0.020755,-8.400991,188.495707,0
0.026042,179.225302,-109.220561,-65.923674,1.650018,-4.259318,2.593960,1.949837,4.528654,-2.604914,-1.815956,-0.073645,0.391449,-0.020755,-10.368931,188.571038,0
0.027083,184.159290,-31.528267,-123.451137,0.541638,-4.312573,1.101773,3.375220,4.539681,-1.077317,-3.185727,-0.066339,0.394323,-0.035692,-12.563071,188.495839,0
0.028125,154.101664,35.267051,-165.787311,-0.227442,-3.623819,-0.457881,4.024479,3.947885,0.437689,-3.886623,-0.015197,0.411830,-0.050629,-11.239801,188.571176,0
0.029167,82.530485,87.674013,-189.448296,-0.713772,-2.324417,-2.386613,4.535676,2.591533,2.363971,-4.327796,-0.026156,0.404710,-0.061832,-5.098471,188.495930,0
0.030208,17.345135,141.071608,-181.680304,-0.510192,-0.758744,-3.462099,3.893881,1.069773,3.488684,-3.801235,-0.051727,0.393017,-0.050629,1.235128,188.571141,0
0.031250,-44.709685,182.062116,-133.385796,0.349368,1.122903,-4.255816,2.785664,-0.786481,4.260876,-2.691186,-0.080951,0.393539,-0.058098,3.904288,188.495736,0
0.032292,-97.713190,193.551055,-56.949243,1.797048,2.741830,-4.323282,1.188637,-2.477326,4.432940,-1.246701,-0.073645,0.391188,-0.035692,8.790208,188.571136,0
0.033333,-155.627998,162.925964,5.982576,2.984598,3.956025,-3.704182,-0.471822,-3.605781,3.790846,0.414814,-0.135746,0.388575,-0.035692,13.348138,188.495468,0
0.034375,-179.424564,109.190103,66.206061,4.149528,4.453064,-2.406456,-2.121088,-4.230659,2.628362,1.983824,-0.124787,0.390273,-0.046895,14.897608,188.571122,0
0.035417,-184.891649,32.536767,123.942803,5.269218,4.513419,-0.890456,-3.512889,-4.226983,1.058799,3.342922,-0.208806,0.397524,-0.039427,17.442358,188.495830,0
0.036458,-154.448377,-34.222309,166.069697,6.060918,3.743009,0.669197,-4.158416,-3.557997,-0.472994,4.050933,-0.190541,0.401182,-0.039427,16.775068,188.571161,0
0.037500,-83.705202,-86.798403,190.210796,6.558558,2.443607,2.629677,-4.650957,-2.220024,-2.348915,4.420949,-0.212459,0.405821,-0.024490,9.853348,188.495776,0
0.038542,-19.189059,-140.981258,181.494887,6.366288,0.902786,3.574200,-3.930802,-0.709290,-3.503006,3.912177,-0.208806,0.408695,-0.039427,4.107868,188.571065,0
0.039583,43.591681,-182.442920,133.791288,5.450178,-0.996613,4.443320,-2.856168,1.146964,-4.317164,2.830592,-0.194194,0.398504,-0.050629,0.590458,188.495683,0
0.040625,97.820176,-192.663365,58.081061,4.013808,-2.580037,4.451257,-1.274067,2.870890,-4.380115,1.386106,-0.139399,0.395303,-0.020755,-4.453801,188.495848,0
0.041667,155.905121,-163.077231,-5.244697,2.837568,-3.783581,3.824221,0.371467,3.955237,-3.813561,-0.268293,-0.102869,0.395173,-0.058098,-8.548021,188.495826,0
0.042708,178.885027,-109.389694,-65.985227,1.650018,-4.273520,2.554274,2.024464,4.565411,-2.613307,-1.865766,-0.110175,0.393148,-0.039427,-10.154041,188.571145,0
0.043750,184.635675,-32.253122,-123.906629,0.564258,-4.330324,1.097804,3.367757,4.576438,-1.123481,-3.157264,-0.059033,0.399353,-0.058098,-12.721411,188.497518,0
0.044792,154.056294,34.965028,-165.898107,-0.227442,-3.606067,-0.481692,4.046867,3.940534,0.488049,-3.900854,-0.040768,0.410851,-0.005818,-10.312381,188.496004,0
0.045834,82.745993,87.456556,-190.051516,-0.725082,-2.281814,-2.446141,4.543139,2.558452,2.338790,-4.302891,0.014027,0.409479,-0.031958,-5.053231,188.495893,0
0.046879,17.696753,141.409874,-181.150948,-0.555432,-0.755194,-3.454162,3.811790,1.058746,3.442521,-3.758540,-0.044421,0.405821,-0.065566,1.065478,188.570781,0
0.047917,-44.221958,182.448704,-133.225758,0.315438,1.130004,-4.255816,2.748350,-0.793833,4.244089,-2.652050,-0.059033,0.397263,-0.058098,4.277518,188.496033,0
0.048960,-97.883327,193.297356,-56.986174,1.785738,2.756031,-4.251847,1.169981,-2.506732,4.411957,-1.225354,-0.099216,0.388313,-0.050629,9.129508,188.495890,0
0.050000,-155.480545,162.938044,6.105682,2.973288,3.934724,-3.700214,-0.535256,-3.580051,3.757273,0.439719,-0.113828,0.386092,-0.031958,13.438618,188.495971,0
0.051042,-179.424564,108.646462,66.279924,4.149528,4.435313,-2.406456,-2.128550,-4.219632,2.578002,1.994498,-0.132093,0.386680,-0.035692,14.999398,188.571598,0
0.052083,-184.914334,31.292434,123.770455,5.223978,4.460165,-0.953954,-3.490500,-4.168171,1.092373,3.335806,-0.201500,0.390926,-0.039427,17.295328,188.495989,0
0.053125,-154.062732,-35.261267,166.082008,6.038298,3.700405,0.649354,-4.113639,-3.517563,-0.443617,4.040260,-0.219765,0.383675,-0.031958,16.876858,188.571554,0
0.054167,-82.400814,-87.269558,190.124622,6.547248,2.447157,2.554274,-4.643494,-2.168563,-2.369899,4.410276,-0.179582,0.386746,-0.054364,9.728938,188.497251,0
0.055208,-17.691849,-141.089986,181.581061,6.343668,0.870834,3.590075,-3.971847,-0.665181,-3.465236,3.887272,-0.190541,0.375967,-0.046895,4.175728,188.497734,0
0.056250,44.431026,-182.382516,133.446591,5.416248,-1.010814,4.411571,-2.871093,1.187397,-4.271001,2.837707,-0.164970,0.375706,-0.039427,0.375568,188.495658,0
0.057292,97.593326,-193.146601,57.367046,4.013808,-2.622640,4.447289,-1.259141,2.841484,-4.405295,1.350528,-0.168623,0.392429,-0.035692,-4.363321,188.571042,0
0.058333,155.825724,-162.835613,-5.663258,2.837568,-3.755179,3.859938,0.378930,3.966264,-3.750611,-0.293198,-0.121134,0.395499,-0.050629,-8.536711,188.495736,0
0.059375,179.236645,-109.365532,-66.034470,1.706568,-4.284170,2.601897,2.009539,4.587466,-2.604914,-1.840861,-0.102869,0.397459,-0.017021,-10.380241,188.495729,0
0.060417,184.544935,-32.603468,-125.063826,0.575568,-4.369377,1.113678,3.390146,4.547032,-1.094104,-3.217748,-0.044421,0.399941,-0.054364,-12.574381,188.495754,0
0.061459,154.147034,34.385145,-166.156629,-0.261372,-3.623819,-0.489630,4.061792,3.940534,0.454475,-3.893739,-0.029809,0.407062,-0.031958,-11.183251,188.571064,0
0.062500,83.403858,87.408233,-190.051516,0.202338,-2.317316,-2.489796,4.535676,2.602561,2.414331,-4.338469,-0.018850,0.408956,-0.043161,-5.177641,188.495740,0
0.063542,18.933085,141.554844,-181.114016,-0.578052,-0.765845,-3.398601,3.834179,1.062421,3.455111,-3.772772,-0.037115,0.408172,-0.031958,1.144648,188.495618,0
0.064585,-43.813628,183.064831,-133.004167,0.383298,1.151306,-4.315344,2.733425,-0.826914,4.307039,-2.669839,-0.073645,0.399745,-0.046895,3.836428,188.495655,0
0.065625,-97.860642,192.995334,-57.466288,1.763118,2.837688,-4.275658,1.128935,-2.543490,4.453924,-1.193333,-0.077298,0.393148,-0.065566,8.778898,188.571093,0
0.066667,-156.274520,163.058854,5.908712,2.984598,4.002179,-3.688308,-0.568838,-3.635187,3.769863,0.478855,-0.124787,0.390077,-0.039427,13.291588,188.495662,0
0.067709,-179.163686,108.718947,66.279924,4.126908,4.492117,-2.378675,-2.165864,-4.252713,2.603182,2.044308,-0.172276,0.390796,-0.031958,14.863678,188.495772,0
0.068750,-185.163869,31.836074,124.176705,5.246598,4.488567,-0.854739,-3.565128,-4.226983,1.054602,3.406963,-0.190541,0.395956,-0.035692,17.487598,188.495627,0
0.069791,-153.835882,-35.116296,166.069697,6.026988,3.721707,0.732694,-4.169610,-3.561672,-0.502371,4.111417,-0.227071,0.400399,-0.039427,16.695898,188.571042,0
0.070833,-82.139937,-86.931293,191.035607,6.535938,2.383252,2.697143,-4.665882,-2.131806,-2.462226,4.502780,-0.230724,0.365646,-0.061832,9.785488,188.495721,0
0.071875,-17.578424,-141.065824,181.285607,6.332358,0.803378,3.661509,-3.934534,-0.584315,-3.498809,3.901504,-0.172276,0.377731,-0.061832,3.938218,188.495756,0
0.072917,44.510424,-183.288583,132.855682,5.461488,-1.042766,4.479037,-2.897213,1.257236,-4.333951,2.819918,-0.161317,0.360485,-0.058098,0.567838,188.495727,0
0.073958,97.616011,-192.868740,56.911553,3.991188,-2.647492,4.451257,-1.262873,2.944405,-4.396901,1.325623,-0.157664,0.390143,-0.039427,-4.476421,188.571051,0
0.075000,155.837066,-163.004746,-6.352652,2.837568,-3.840386,3.852001,0.431169,4.061833,-3.784184,-0.335892,-0.135746,0.389685,-0.069301,-8.525401,188.495664,0
0.076042,178.714890,-108.012471,-66.428409,1.661328,-4.326774,2.570149,2.050584,4.587466,-2.558750,-1.926249,-0.099216,0.391384,-0.035692,-10.142731,188.495727,0
0.077083,184.953265,-31.190002,-123.943561,0.552948,-4.397779,1.073992,3.457310,4.609520,-1.085711,-3.210632,-0.062686,0.397524,-0.039427,-12.698791,188.495693,0
0.078125,153.636621,35.327455,-165.799622,-0.272682,-3.648671,-0.533284,4.072986,3.914803,0.483852,-3.922201,-0.048074,0.391906,-0.046895,-10.244521,188.495682,0
0.079167,82.201553,87.384071,-190.556251,-0.736392,-2.331517,-2.450110,4.569259,2.587858,2.410134,-4.359817,-0.022503,0.404253,-0.050629,-5.132401,188.495812,0
0.080208,18.297905,141.506521,-181.077084,-0.498882,-0.772945,-3.434319,3.864030,1.062421,3.501274,-3.804792,-0.051727,0.409217,-0.054364,0.963688,188.571114,0
0.081250,-43.893025,183.173559,-133.041099,0.349368,1.112252,-4.295501,2.781932,-0.801184,4.302843,-2.769459,-0.080951,0.404841,-0.054364,4.175728,188.495645,0
0.082292,-97.871985,192.874525,-57.650947,1.785738,2.752481,-4.299470,1.147592,-2.572896,4.420350,-1.193333,-0.099216,0.394389,-0.039427,9.129508,188.571055,0
0.083333,-156.308548,163.095096,5.440909,2.961978,4.023481,-3.712120,-0.553912,-3.660918,3.832813,0.446834,-0.150358,0.393735,-0.031958,13.517788,188.495702,0
0.084375,-179.503961,109.443802,66.279924,4.092978,4.477916,-2.410424,-2.147207,-4.252713,2.615772,2.030076,-0.161317,0.395630,-0.069301,14.999398,188.495667,0
0.085416,-185.265951,32.717980,124.176705,5.246598,4.541821,-0.894425,-3.568859,-4.238010,1.058799,3.382058,-0.183235,0.400791,-0.035692,17.329258,188.495660,0
0.086458,-154.232870,-34.343118,166.205114,6.015678,3.771411,0.693008,-4.214386,-3.576375,-0.481387,4.090070,-0.223418,0.412745,-0.054364,16.808998,188.571120,0
0.087500,-83.058679,-86.882969,190.777084,6.547248,2.436506,2.653489,-4.647225,-2.227375,-2.420259,4.488548,-0.201500,0.406343,-0.024490,9.717628,188.495834,0
0.088542,-18.519852,-141.283280,181.396402,6.343668,0.856632,3.645635,-3.900951,-0.668857,-3.519793,3.876599,-0.197847,0.408891,-0.009553,4.107868,188.495645,0
0.089583,44.181491,-183.143613,133.052652,5.438868,-1.074719,4.498880,-2.837511,1.194748,-4.342344,2.795013,-0.201500,0.400268,-0.028224,0.364258,188.495731,0
0.090625,97.774806,-193.122439,57.145455,4.036428,-2.651042,4.427446,-1.221828,2.903972,-4.443065,1.332738,-0.135746,0.393605,-0.028224,-4.329391,188.571149,0
0.091667,155.950491,-162.944341,-6.155682,2.803638,-3.861687,3.855970,0.427438,4.021400,-3.784184,-0.350123,-0.132093,0.387791,-0.039427,-8.423611,188.495709,0
0.092708,179.043822,-107.758772,-66.465341,1.672638,-4.348075,2.586023,2.054315,4.642602,-2.562947,-1.904902,-0.073645,0.385374,-0.050629,-10.402861,188.495721,0
0.093750,184.839840,-30.730928,-124.054356,0.519018,-4.358726,1.070024,3.461042,4.616872,-1.052137,-3.214190,-0.029809,0.363621,-0.050629,-12.619621,188.495664,0
0.094791,153.341716,35.919420,-165.910417,-0.261372,-3.620268,-0.561064,4.095375,3.951561,0.534213,-3.947106,-0.037115,0.390796,-0.035692,-11.149321,188.571055,0
0.095833,80.908508,87.601527,-190.888637,-0.702462,-2.296015,-2.505670,4.610304,2.565803,2.431118,-4.377606,-0.018850,0.399484,-0.024490,-5.200261,188.495774,0
0.096875,17.163655,141.542763,-181.040152,-0.532812,-0.712591,-3.477973,3.893881,1.051394,3.555831,-3.801235,-0.059033,0.398308,-0.035692,1.189888,188.495645,0
0.097916,-44.675658,183.668876,-132.290152,0.371988,1.154856,-4.315344,2.819246,-0.815887,4.369990,-2.758785,-0.059033,0.368716,-0.009553,3.859048,188.495680,0
0.098958,-97.792587,193.055738,-56.801515,1.797048,2.819936,-4.331219,1.140130,-2.558193,4.441334,-1.179102,-0.073645,0.394519,-0.046895,8.801518,188.571161,0
0.100000,-156.365260,163.252148,6.191856,2.973288,4.023481,-3.739900,-0.557644,-3.708702,3.828616,0.443277,-0.157664,0.392037,-0.005818,13.370758,188.495787,0
0.101041,-179.016234,108.465248,66.439962,4.115598,4.524070,-2.382644,-2.218103,-4.318877,2.640952,2.101233,-0.175929,0.395565,-0.054364,14.942848,188.495819,0
0.102083,-185.413404,32.379715,124.558334,5.257908,4.552472,-0.882519,-3.609904,-4.285795,1.054602,3.403405,-0.172276,0.405233,-0.058098,17.498908,188.495778,0
0.103125,-153.949307,-34.173985,166.155872,6.083538,3.782062,0.724757,-4.180804,-3.620484,-0.544337,4.100743,-0.194194,0.406735,-0.024490,16.616728,188.571047,0
0.104166,-82.775117,-86.629270,191.367993,6.592488,2.436506,2.657457,-4.710658,-2.208996,-2.466423,4.520569,-0.241683,0.406539,-0.065566,9.864658,188.495711,0
0.105208,-19.347854,-141.379927,181.002463,6.343668,0.817579,3.697226,-3.960653,-0.661506,-3.532383,3.926409,-0.212459,0.408238,-0.043161,4.085248,188.495493,0
0.106250,43.410201,-183.771820,132.732576,5.427558,-1.085370,4.502849,-2.841242,1.235182,-4.375918,2.851939,-0.183235,0.399549,-0.039427,0.601768,188.495571,0
0.107292,97.944944,-192.300938,57.379356,4.025118,-2.722048,4.483006,-1.221828,2.944405,-4.468245,1.322065,-0.168623,0.393474,-0.020755,-4.487731,188.571129,0
0.108333,156.551644,-163.306768,-5.774053,2.803638,-3.911391,3.871844,0.479677,4.087564,-3.813561,-0.364355,-0.084604,0.393409,-0.020755,-8.514091,188.495671,0
0.109375,178.828315,-108.242008,-66.354546,1.638708,-4.326774,2.522526,2.128943,4.627899,-2.588127,-1.936923,-0.102869,0.393148,-0.020755,-10.176661,188.495731,0
0.110417,185.304882,-31.443701,-124.288258,0.530328,-4.397779,1.077961,3.505818,4.613196,-1.077317,-3.303136,-0.059033,0.400072,-0.046895,-12.789271,188.495484,0
0.111458,153.375744,35.532831,-165.959660,-0.238752,-3.606067,-0.561064,4.117763,3.929506,0.538409,-3.939991,-0.033462,0.406866,-0.058098,-10.199281,188.571147,0
0.112500,81.362208,87.456556,-191.122538,-0.759012,-2.281814,-2.493764,4.569259,2.551100,2.435314,-4.370490,-0.026156,0.396022,-0.043161,-5.075851,188.495816,0
0.113541,17.333793,141.506521,-181.015531,-0.589362,-0.701940,-3.462099,3.837910,1.044043,3.534848,-3.776330,-0.048074,0.387072,-0.031958,1.122028,188.495658,0
0.114583,-44.618945,183.789685,-132.228599,0.349368,1.179708,-4.287564,2.774470,-0.808536,4.315433,-2.719649,-0.037115,0.395173,-0.024490,4.232278,188.495702,0
0.115625,-97.928697,193.043657,-56.321402,1.797048,2.795084,-4.275658,1.136398,-2.558193,4.441334,-1.154197,-0.091910,0.387987,-0.050629,9.118198,188.571109,0
0.116666,-156.070355,163.010530,6.598106,2.995908,3.948925,-3.688308,-0.538987,-3.664593,3.782453,0.475297,-0.154011,0.385700,-0.043161,13.529098,188.495781,0
0.117708,-178.959521,107.788718,66.538447,4.126908,4.470816,-2.378675,-2.225566,-4.241686,2.510855,2.076328,-0.172276,0.390535,-0.058098,14.999398,188.495774,0
0.118750,-185.265951,30.930006,124.139773,5.257908,4.524070,-0.898394,-3.576322,-4.223307,1.054602,3.421194,-0.157664,0.394846,-0.054364,17.385808,188.495720,0
0.119792,-153.484265,-35.237105,166.069697,6.072228,3.753659,0.681103,-4.169610,-3.580051,-0.519157,4.040260,-0.186888,0.407584,-0.039427,16.775068,188.646489,0
0.120833,-81.731607,-86.991698,191.010985,6.558558,2.401003,2.621740,-4.650957,-2.201645,-2.420259,4.502780,-0.230724,0.405167,-0.043161,9.762868,188.495785,0
0.121875,-18.224947,-141.343685,181.224054,6.366288,0.824680,3.625792,-3.945728,-0.650478,-3.477826,3.905062,-0.183235,0.402162,-0.054364,4.232278,188.495705,0
0.122916,43.977326,-183.361069,132.757197,5.450178,-1.071169,4.447289,-2.863630,1.205776,-4.291984,2.816360,-0.146705,0.398112,-0.020755,0.443428,188.495626,0
0.123958,97.967629,-192.760012,57.157765,4.002498,-2.661693,4.431414,-1.229290,2.914999,-4.417885,1.318507,-0.146705,0.396479,-0.065566,-4.397251,188.646359,0
0.125000,156.438219,-162.980584,-5.700189,2.803638,-3.872338,3.855970,0.431169,4.047130,-3.800971,-0.360797,-0.080951,0.395891,-0.046895,-8.514091,188.495658,0
0.126041,179.077850,-108.833972,-66.317614,1.661328,-4.337425,2.597929,2.080435,4.653629,-2.562947,-1.897787,-0.059033,0.392298,-0.058098,-10.425481,188.495781,0
0.127083,185.078032,-32.120232,-124.497538,0.552948,-4.355176,1.010495,3.423728,4.576438,-1.056334,-3.256884,-0.062686,0.398700,-0.046895,-12.619621,188.495696,0
