1-Time,2-VGERA,3-VGERB,4-VGERC,5-VN,6-IGERAN,7-IGERBN,8-IGERCN,9-IGERAT,10-IGERBT,11-IGERCT,12-IN,13-IFD,14-IFAULT,15-VFAULT,16-Speed (rad/s),17-Active Power,18-Reactive Power,19-FAULT 
0.000000,152.534793,-175.847699,6.080851,0.393084,-0.775931,4.969319,-3.678988,0.626128,-4.892523,3.796587,-0.229410,0.597108,-0.123173,-332.181658,188.797639,1027.577045,992.035831,0
0.001042,169.213483,-139.743538,-70.183041,-1.070625,-2.526270,4.917024,-1.892497,2.334445,-4.977073,2.116049,-0.160133,0.585601,-0.126890,-299.442450,188.797509,1026.231275,993.297597,0
0.002083,188.389457,-57.833838,-126.141489,-2.117740,-4.357337,4.478547,0.170294,4.064524,-4.579689,-0.018688,-0.156487,0.580985,-0.082290,-241.799828,188.797673,1024.760899,994.207369,0
0.003125,164.693513,15.149655,-165.743787,-2.928410,-4.959130,3.452753,1.706979,4.699249,-3.586230,-1.597031,-0.112733,0.598003,-0.082290,-141.240472,188.646920,1023.557842,995.200715,0
0.004167,114.352346,84.245549,-182.586004,-3.311226,-5.050867,1.276460,3.735706,4.757281,-1.421757,-3.671208,-0.109087,0.566998,-0.108307,-22.780380,188.797728,1021.798168,995.363430,0
0.005208,34.834771,136.839704,-183.096374,-3.254929,-4.405040,-0.509629,4.670585,4.220485,0.353788,-4.700727,-0.087210,0.575335,-0.082290,108.998309,188.722110,1020.782464,996.783228,0
0.006250,-38.592144,174.564677,-151.951640,-2.669446,-3.153750,-2.384217,5.151273,3.063472,2.205427,-5.170066,-0.036163,0.566447,-0.115740,217.990150,188.797596,1019.496394,998.257656,0
0.007292,-108.538681,174.599912,-91.825168,-1.498478,-1.205260,-4.053647,4.700865,1.155670,3.854146,-4.723437,-0.061686,0.592009,-0.123173,286.125531,188.571540,1018.449311,999.432608,0
0.008333,-151.806095,175.962333,-4.284525,0.235454,0.691858,-4.990941,3.781125,-0.654203,4.864516,-3.849103,-0.094502,0.583190,-0.126890,318.662089,188.646889,1017.615021,1001.248454,0
0.009384,-168.902882,137.650110,71.821394,1.654126,2.442196,-4.958760,1.964355,-2.369774,4.927928,-2.092866,-0.116379,0.583672,-0.108307,318.324339,188.722210,1016.737620,1002.103180,0
0.010422,-188.700352,56.374640,126.929226,2.689981,4.280602,-4.548442,-0.026523,-4.059956,4.492497,0.041872,-0.171072,0.574371,-0.104590,242.139256,188.646831,1016.896147,1002.472302,0
0.011458,-164.349012,-14.811866,166.239884,3.500651,4.871387,-3.494489,-1.563207,-4.701935,3.515948,1.510450,-0.222118,0.580710,-0.112023,143.234874,188.571406,1016.299451,1003.082462,0
0.012500,-115.092638,-83.355745,182.887674,3.793393,4.970463,-1.326241,-3.610859,-4.741832,1.368384,3.577057,-0.229410,0.580572,-0.123173,25.686707,188.571567,1015.244562,1002.540841,0
0.013542,-36.705056,-136.936481,182.656792,3.827171,4.331975,0.423643,-4.541953,-4.230425,-0.322610,4.633070,-0.251287,0.584499,-0.138040,-106.699932,188.722306,1014.178859,1003.032330,0
0.014583,36.439361,-174.919844,152.034579,3.219168,3.077015,2.290186,-4.992361,-3.037142,-2.203842,5.079700,-0.233057,0.574026,-0.108307,-216.457339,188.496038,1012.934680,1002.636090,0
0.015625,108.352085,-174.050713,92.977455,2.036942,1.161550,3.903298,-4.549523,-1.190999,-3.890609,4.739050,-0.233057,0.594283,-0.123173,-285.583452,188.571428,1011.758398,1002.889324,0
0.016667,152.489594,-175.765484,4.975048,0.404343,-0.720889,4.884842,-3.656278,0.586231,-4.833338,3.800372,-0.225764,0.588220,-0.123173,-332.136624,188.496105,1010.466807,1003.125997,0
0.017708,168.682387,-139.261993,-71.130871,-1.093144,-2.489575,4.888865,-1.937916,2.283667,-4.922115,2.134974,-0.182010,0.580434,-0.123173,-298.553042,188.720076,1009.021390,1003.138254,0
0.018750,187.948759,-56.788532,-126.420978,-2.174036,-4.280278,4.522797,0.083241,3.991984,-4.562779,0.045657,-0.152841,0.563140,-0.104590,-240.640220,188.495656,1007.201113,1003.535427,0
0.019792,164.388415,16.559056,-165.415692,-2.894632,-4.907758,3.464821,1.650205,4.670233,-3.632732,-1.509976,-0.112733,0.571959,-0.123173,-140.452389,188.495687,1005.530706,1004.567561,0
0.020846,112.838156,85.819380,-182.756128,-3.209892,-5.043528,1.252324,3.728136,4.764535,-1.425984,-3.633358,-0.061686,0.583121,-0.100873,-20.675074,188.495665,1004.527420,1005.283903,0
0.021875,34.699172,136.921919,-182.756128,-3.288707,-4.460082,-0.449288,4.666800,4.187842,0.286148,-4.632597,-0.058040,0.600415,-0.100873,107.804927,188.495732,1002.953248,1005.175201,0
0.022917,-37.665550,174.752597,-151.416966,-2.635668,-3.201453,-2.275604,5.143703,3.081607,2.103967,-5.151141,-0.054394,0.586566,-0.126890,216.717959,188.495673,1001.654625,1005.452608,0
0.023958,-108.425682,174.024406,-93.283369,-1.464701,-1.245624,-3.945034,4.738714,1.199194,3.773824,-4.799137,-0.028871,0.591665,-0.112023,285.168573,188.495761,1001.148905,1006.330469,0
0.025000,-152.348492,175.328102,-5.985759,0.100342,0.545079,-4.942669,3.845469,-0.592544,4.796876,-3.879383,-0.043455,0.591251,-0.108307,318.617055,188.495741,1000.095583,1006.493708,0
0.026042,-168.868983,140.022602,70.521166,1.597829,2.372476,-4.966805,2.138462,-2.264591,4.961748,-2.221555,-0.120025,0.590700,-0.104590,318.268047,188.269552,999.574091,1008.074693,0
0.027083,-187.299161,59.029012,127.123652,2.656203,4.192535,-4.616828,0.128660,-3.943892,4.555909,-0.128453,-0.160133,0.581950,-0.078573,242.803497,188.345992,997.551359,1009.496965,0
0.028125,-165.038308,-14.248106,165.936092,3.399317,4.823684,-3.587011,-1.468584,-4.694681,3.647000,1.442320,-0.178364,0.592147,-0.074856,143.077258,188.419891,996.957244,1011.173270,0
0.029167,-115.363836,-83.696350,182.523124,3.737096,4.988811,-1.450946,-3.478386,-4.763594,1.486754,3.508927,-0.225764,0.585601,-0.086006,24.392000,188.419929,995.663155,1012.693127,0
0.030209,-35.993161,-136.748561,186.265839,3.849689,4.398025,0.327098,-4.454900,-4.299338,-0.263425,4.549801,-0.236703,0.580641,-0.104590,-107.848281,188.269167,995.227995,1014.166831,0
0.031250,37.196456,-174.825883,151.281176,3.252946,3.172422,2.185595,-4.973436,-3.138698,-2.115064,5.072130,-0.280457,0.566654,-0.119457,-217.065289,188.269194,993.574725,1015.771349,0
0.032292,108.623284,-174.309103,92.892393,2.104498,1.278974,3.810775,-4.610082,-1.343333,-3.768012,4.727695,-0.298688,0.594076,-0.123173,-285.572194,188.419943,991.127696,1017.223830,0
0.033333,152.274895,-175.295684,4.476830,0.393084,-0.610805,4.864728,-3.792536,0.408508,-4.824883,3.879856,-0.247641,0.589046,-0.100873,-332.260466,188.344399,989.121716,1019.313520,0
0.034375,168.490288,-139.684813,-71.495421,-1.048106,-2.361143,4.945183,-2.059034,2.163976,-4.943253,2.267449,-0.233057,0.580021,-0.115740,-299.025892,188.269084,987.459737,1021.346105,0
0.035428,187.677561,-55.555306,-127.648296,-2.061443,-4.265600,4.526820,0.026467,3.930325,-4.592371,0.140281,-0.185656,0.562727,-0.093440,-240.223662,188.193781,985.677712,1022.905141,0
0.036459,164.885612,15.783885,-165.452147,-2.928410,-4.929774,3.605616,1.495023,4.633963,-3.721509,-1.396427,-0.120025,0.572166,-0.104590,-142.355046,188.344382,984.357975,1024.184627,0
0.037500,114.962542,84.280784,-181.941966,-3.198633,-5.091231,1.453460,3.603233,4.786297,-1.637358,-3.489529,-0.090856,0.585601,-0.123173,-24.728071,188.193631,982.356133,1026.015373,0
0.038542,36.450661,136.663529,-182.768279,-3.243670,-4.548149,-0.292402,4.591102,4.285771,0.155096,-4.602317,-0.043455,0.595110,-0.115740,105.981078,188.193525,981.589582,1027.714084,0
0.039583,-35.812362,174.834812,-150.930899,-2.646927,-3.307867,-2.239399,5.105853,3.161401,1.968687,-5.124646,-0.061686,0.595041,-0.130607,215.896102,188.193642,979.908133,1028.533900,0
0.040625,-108.131884,174.036151,-93.854497,-1.532256,-1.451114,-3.852511,4.840908,1.340647,3.710412,-4.829417,-0.054394,0.594421,-0.119457,285.191090,188.118351,978.634854,1030.080732,0
0.041667,-152.517991,174.764342,-6.204489,0.089083,0.446003,-4.934623,3.887103,-0.454718,4.741919,-3.913448,-0.083563,0.593318,-0.108307,318.549505,188.193657,976.644552,1031.084336,0
0.042708,-168.868983,139.987367,71.031536,1.575311,2.251384,-4.938646,2.187666,-2.177543,4.898336,-2.301040,-0.127317,0.585188,-0.104590,318.223014,188.118472,974.759630,1031.804489,0
0.043750,-186.643765,58.406527,127.439596,2.712500,4.100798,-4.604760,0.189219,-3.867725,4.593957,-0.226863,-0.178364,0.581812,-0.108307,241.497532,188.193729,972.910324,1033.010065,0
0.044792,-164.880109,-15.704487,165.498632,3.478132,4.775981,-3.635284,-1.373960,-4.629395,3.676592,1.321200,-0.163779,0.567687,-0.078573,141.613676,188.042866,970.539952,1033.775795,0
0.045846,-113.228150,-86.139312,182.377304,3.782133,4.959455,-1.507264,-3.463246,-4.683800,1.524801,3.444582,-0.243995,0.530619,-0.074856,20.260195,188.118163,968.098006,1034.210615,0
0.046876,-34.580670,-136.948226,183.082101,3.838430,4.420042,0.150098,-4.428405,-4.281203,-0.225378,4.527091,-0.258580,0.533926,-0.108307,-108.084706,188.118251,966.180932,1034.024279,0
0.047917,37.851851,-174.896354,150.855867,3.174131,3.242142,2.093073,-4.999931,-3.156833,-1.958647,5.053205,-0.254934,0.578229,-0.119457,-216.975222,188.193597,963.996412,1034.857810,0
0.048958,109.131780,-174.038968,93.074668,2.104498,1.319338,3.786639,-4.610082,-1.383230,-3.734192,4.754190,-0.262226,0.589391,-0.093440,-285.538419,187.967522,963.436166,1035.585761,0
0.050000,152.365295,-174.931589,5.631239,0.471899,-0.486043,4.808410,-3.834170,0.375865,-4.782608,3.959341,-0.222118,0.593801,-0.108307,-332.305499,187.967522,962.910085,1036.285575,0
0.051042,168.524188,-140.154614,-70.936445,-0.991810,-2.265737,4.937137,-2.187722,2.084182,-5.010893,2.362073,-0.229410,0.593525,-0.108307,-299.881524,188.118468,962.392999,1037.989722,0
0.052083,186.163371,-59.431159,-127.563235,-2.162777,-4.151846,4.603251,-0.147641,3.814261,-4.655784,0.291681,-0.156487,0.595799,-0.108307,-242.475327,188.118264,960.874274,1038.985565,0
0.053125,165.077711,14.174819,-165.561512,-2.883372,-4.867393,3.669980,1.385259,4.608574,-3.780694,-1.286662,-0.109087,0.587462,-0.097156,-143.390812,187.967479,959.827087,1039.776886,0
0.054167,115.810036,83.599574,-181.601719,-3.311226,-5.054537,1.497710,3.501040,4.739146,-1.692316,-3.394904,-0.068979,0.588220,-0.115740,-24.728071,187.967497,958.368533,1039.670901,0
0.055208,37.139956,136.687019,-182.525246,-3.333744,-4.540810,-0.224015,4.507833,4.311160,0.049409,-4.522832,-0.050748,0.598003,-0.108307,106.780419,187.967542,956.731647,1040.362182,0
0.056260,-37.371752,174.905282,-150.481288,-2.658186,-3.340893,-2.158945,5.086929,3.168655,1.960233,-5.086797,-0.043455,0.603515,-0.138040,218.598099,188.118201,955.848348,1040.550616,0
0.057295,-109.171477,173.730781,-92.469207,-1.520997,-1.440106,-3.804238,4.746284,1.391425,3.672365,-4.780212,-0.054394,0.591458,-0.097156,286.249372,187.967470,954.239183,1040.869470,0
0.058333,-152.258092,174.365012,-5.122991,0.111601,0.427656,-4.854169,3.943877,-0.396686,4.686961,-3.981578,-0.061686,0.588220,-0.115740,318.448181,187.892090,952.763749,1041.893608,0
0.059375,-168.383086,140.104817,72.052276,1.609088,2.174325,-4.978873,2.255795,-2.101376,4.936383,-2.361600,-0.149195,0.583948,-0.108307,318.268047,187.892063,951.776112,1043.255174,0
0.060417,-185.773671,57.995452,128.059331,2.735018,4.049426,-4.657055,0.280057,-3.827828,4.577047,-0.325273,-0.149195,0.570375,-0.112023,240.867066,188.043043,950.134856,1043.947961,0
0.061458,-165.117407,-16.373952,165.231295,3.478132,4.768642,-3.735852,-1.271767,-4.604006,3.731549,1.230360,-0.189302,0.563416,-0.115740,142.322950,187.892005,948.773910,1045.000303,0
0.062500,-114.346843,-85.152731,181.611748,3.748356,4.941107,-1.587718,-3.414042,-4.716443,1.647399,3.361312,-0.233057,0.570375,-0.108307,23.671467,187.892028,947.679030,1046.166461,0
0.063542,-35.134366,-136.948226,183.045646,3.883467,4.486093,0.129984,-4.375416,-4.335608,-0.073188,4.481671,-0.243995,0.583741,-0.086006,-106.373441,187.892129,946.121352,1047.726992,0
0.064583,36.620159,-174.919844,150.503469,3.230428,3.300853,2.024686,-4.973436,-3.262016,-1.967102,5.075915,-0.247641,0.588633,-0.097156,-215.759323,187.892072,946.332443,1048.800142,0
0.065625,108.611984,-174.038968,94.071105,2.149535,1.418414,3.754457,-4.693351,-1.473905,-3.683462,4.856385,-0.269518,0.600966,-0.123173,-285.088086,187.892054,946.054421,1050.519293,0
0.066667,152.851191,-174.238633,6.676283,0.438121,-0.464026,4.828524,-3.856880,0.325087,-4.765698,4.023686,-0.222118,0.595041,-0.100873,-332.271724,187.892153,945.499455,1051.395765,0
0.067720,168.863186,-138.874408,-71.847820,-1.059366,-2.302432,4.921047,-2.138518,2.116825,-4.930570,2.358288,-0.243995,0.587048,-0.108307,-298.046418,187.892122,944.764542,1050.929732,0
0.068750,185.779174,-59.525119,-127.806268,-2.185296,-4.100474,4.623365,-0.170350,3.799753,-4.714968,0.306821,-0.149195,0.562520,-0.119457,-241.473336,187.816677,944.641450,1051.676466,0
0.069792,165.100310,14.867775,-165.439995,-2.883372,-4.874732,3.641821,1.407969,4.662979,-3.768012,-1.248812,-0.130964,0.578849,-0.160340,-142.039813,187.892156,944.622542,1052.194130,0
0.070833,115.199840,84.621389,-181.431595,-3.288707,-5.036189,1.505755,3.512394,4.688368,-1.704998,-3.413829,-0.032517,0.588426,-0.112023,-22.859189,187.892187,944.106595,1052.098338,0
0.071875,35.637066,136.863194,-182.914099,-3.333744,-4.500446,-0.228038,4.530543,4.314787,0.087456,-4.534187,-0.076271,0.570237,-0.093440,108.244001,187.892241,944.279371,1052.206068,0
0.072917,-37.371752,174.811322,-150.481288,-2.658186,-3.318876,-2.138831,5.071789,3.190417,1.909503,-5.033807,-0.043455,0.587462,-0.100873,217.708692,187.665948,943.188583,1052.209804,0
0.073958,-109.103678,174.224071,-92.481359,-1.520997,-1.454784,-3.824352,4.734929,1.391425,3.647000,-4.806707,-0.083563,0.588151,-0.126890,286.125531,187.892156,943.153825,1052.566962,0
0.075000,-152.303292,174.470717,-4.418194,0.145379,0.420317,-4.846123,3.943877,-0.393059,4.741919,-3.939943,-0.087210,0.589115,-0.100873,318.504472,187.816646,943.527223,1052.539428,0
0.076042,-168.349186,139.282666,72.198096,1.631607,2.255053,-4.954737,2.267150,-2.126765,4.906791,-2.346460,-0.116379,0.582432,-0.112023,318.346856,187.892050,943.358639,1052.083895,0
0.077083,-186.191768,58.171627,128.083634,2.701241,4.042087,-4.669124,0.280057,-3.842336,4.581274,-0.298778,-0.149195,0.586153,-0.089723,241.947865,187.741387,943.898782,1051.990862,0
0.078133,-163.953515,-16.068582,166.555827,3.455614,4.790659,-3.627239,-1.294477,-4.618514,3.676592,1.290920,-0.192949,0.582570,-0.108307,141.411026,187.816823,944.581895,1051.347490,0
0.079173,-114.629341,-84.882596,182.207180,3.748356,5.003489,-1.527377,-3.440536,-4.745459,1.600896,3.406732,-0.251287,0.578436,-0.104590,23.513850,187.816636,945.789528,1051.161635,0
0.080208,-36.580757,-137.136146,182.498820,3.827171,4.442059,0.202393,-4.398126,-4.339235,-0.128146,4.511951,-0.240349,0.577540,-0.104590,-106.373441,187.892066,946.855284,1050.669469,0
0.081250,35.716165,-175.142999,150.770805,3.185390,3.267828,2.072959,-4.954512,-3.243881,-2.000922,5.056990,-0.287749,0.599244,-0.115740,-216.007006,187.741245,947.386224,1050.041615,0
0.082292,108.804082,-173.768833,93.645797,2.048201,1.378049,3.762503,-4.617652,-1.379603,-3.696144,4.769330,-0.269518,0.596763,-0.152907,-285.617227,187.741295,947.464308,1048.219477,0
0.083333,152.817292,-174.532258,5.752755,0.426862,-0.486043,4.812433,-3.811460,0.350476,-4.816428,3.947986,-0.240349,0.593318,-0.089723,-332.159141,187.816637,948.048785,1047.611945,0
0.084375,168.535488,-139.696558,-71.531877,-1.081884,-2.269407,4.856683,-2.138518,2.073301,-4.951708,2.309084,-0.207533,0.582845,-0.089723,-298.395426,187.892063,948.168545,1047.165604,0
0.085417,186.219871,-57.916053,-127.769813,-2.162777,-4.096804,4.595206,-0.083297,3.850531,-4.630419,0.246261,-0.171072,0.554321,-0.112023,-240.223662,187.741342,948.539837,1046.075243,0
0.086458,164.603114,16.488586,-165.354934,-2.928410,-4.830699,3.633775,1.377689,4.623082,-3.721509,-1.298017,-0.156487,0.547569,-0.093440,-140.384839,187.665838,948.197517,1045.319664,0
0.087500,114.273246,85.255620,-181.613870,-3.221151,-5.021511,1.477596,3.516179,4.779043,-1.641586,-3.417614,-0.101794,0.551634,-0.123173,-21.992298,187.816747,948.854062,1045.773588,0
0.088542,34.574873,137.192055,-182.731824,-3.221151,-4.515124,-0.268265,4.530543,4.293025,0.074774,-4.481197,-0.105440,0.581054,-0.104590,108.412876,187.892099,947.754436,1045.642094,0
0.089583,-37.755949,174.834812,-150.384074,-2.579371,-3.329884,-2.166990,5.086929,3.168655,1.901048,-5.094367,-0.047102,0.592698,-0.130607,217.168292,187.816737,948.146070,1045.996934,0
0.090625,-109.160177,173.707291,-93.003880,-1.509738,-1.432767,-3.844466,4.757639,1.373290,3.693502,-4.791567,-0.068979,0.593732,-0.104590,285.348706,187.666075,948.759187,1045.537813,0
0.091667,-152.597090,174.447227,-5.681968,0.134120,0.423986,-4.874282,3.970372,-0.407567,4.716554,-3.955083,-0.090856,0.590907,-0.108307,318.538247,187.816675,948.949564,1045.321246,0
0.092717,-168.642984,138.683671,72.015821,1.609088,2.207350,-4.970828,2.206591,-2.155781,4.906791,-2.327535,-0.112733,0.589942,-0.100873,318.346856,187.892113,949.233634,1045.066986,0
0.093757,-186.813264,58.007197,128.521095,2.712500,4.067773,-4.620851,0.189219,-3.885860,4.598184,-0.276068,-0.120025,0.586290,-0.130607,241.328657,187.892200,950.066049,1045.421073,0
0.094792,-164.970508,-14.459516,166.021153,3.478132,4.764973,-3.695625,-1.286907,-4.614887,3.659682,1.287135,-0.174718,0.592009,-0.126890,142.987191,187.665913,950.593324,1044.785469,0
0.095833,-115.228237,-84.248366,181.866933,3.815911,4.952116,-1.531400,-3.361053,-4.749086,1.596669,3.414302,-0.211179,0.596625,-0.126890,23.761534,187.816747,950.912920,1044.485725,0
0.096875,-35.993161,-137.171381,182.802612,3.748356,4.412703,0.182280,-4.386771,-4.331981,-0.107008,4.470316,-0.251287,0.597728,-0.119457,-107.724440,187.892084,950.167744,1044.543804,0
0.097917,37.072156,-175.131254,150.685744,3.129094,3.242142,2.072959,-4.935587,-3.200357,-1.971330,5.038065,-0.287749,0.597866,-0.089723,-217.549396,187.892086,949.469454,1044.316075,0
0.098958,109.143080,-174.132928,92.953152,2.025683,1.345024,3.742389,-4.583588,-1.383230,-3.696144,4.739050,-0.262226,0.588357,-0.097156,-286.090077,187.665912,949.130059,1044.270683,0
0.100000,152.659093,-174.673198,4.513285,0.393084,-0.486043,4.800365,-3.792536,0.386746,-4.778381,3.876071,-0.236703,0.586359,-0.100873,-332.091591,187.892180,948.763073,1043.200304,0
0.101042,168.411189,-139.379443,-72.115157,-1.070625,-2.317110,4.921047,-2.115808,2.138587,-4.981300,2.324223,-0.211179,0.585050,-0.134323,-298.159001,187.892214,949.482352,1043.598903,0
0.102083,186.389370,-57.140882,-127.806268,-2.140259,-4.162855,4.599229,-0.113576,3.846904,-4.592371,0.238691,-0.149195,0.581950,-0.112023,-240.482604,187.891989,949.166997,1043.247411,0
0.103125,164.535314,16.512076,-165.573664,-2.917150,-4.896749,3.605616,1.438248,4.630336,-3.713054,-1.339652,-0.083563,0.575404,-0.115740,-141.296764,187.741382,949.687666,1043.041614,0
0.104167,114.092448,85.173405,-181.771842,-3.254929,-5.039859,1.465528,3.565384,4.742773,-1.637358,-3.421399,-0.076271,0.570030,-0.119457,-23.208197,187.892043,949.498788,1042.663350,0
0.105208,35.670966,137.215545,-182.488791,-3.254929,-4.522463,-0.328606,4.564607,4.311160,0.155096,-4.556897,-0.054394,0.582156,-0.141757,107.264527,187.892117,951.324051,1042.356966,0
0.106250,-36.851955,175.046222,-150.627108,-2.635668,-3.300529,-2.162968,5.117208,3.175909,1.998280,-5.109507,-0.061686,0.588978,-0.108307,216.717959,187.892142,952.795579,1042.038842,0
0.107292,-108.888979,173.930446,-93.392734,-1.532256,-1.377725,-3.856534,4.772779,1.347901,3.752687,-4.783997,-0.047102,0.594972,-0.108307,285.832814,187.816713,953.800492,1041.675404,0
0.108333,-153.015187,174.517697,-5.827788,0.089083,0.475359,-4.930601,3.906028,-0.458345,4.741919,-3.879383,-0.079917,0.594627,-0.123173,318.549505,187.892014,954.568828,1040.663643,0
0.109375,-168.891582,139.400116,71.505451,1.586570,2.280740,-4.978873,2.164957,-2.195678,4.902563,-2.255620,-0.105440,0.583603,-0.100873,318.324339,187.967486,955.607421,1039.630403,0
