1-Time,2-VGERA,3-VGERB,4-VGERC,5-VN,6-IGERAN,7-IGERBN,8-IGERCN,9-IGERAT,10-IGERBT,11-IGERCT,12-IN,13-IFD,14-IFAULT,15-VFAULT,16-Speed (rad/s),17-Active Power,18-Reactive Power,19-FAULT 
0.000000,-170.767370,159.801199,28.804477,0.832197,3.876960,-6.435099,2.108182,-3.577565,6.437141,-2.109629,-0.058040,0.619225,-0.056273,-332.418083,188.721929,1645.021517,879.311725,0
0.001042,-180.914703,102.544275,95.893856,2.172053,5.634638,-5.501827,-0.454220,-5.354795,5.540913,0.464168,-0.123671,0.618122,-0.033973,-277.612558,188.721965,1643.561860,879.860185,0
0.002083,-186.801964,18.356042,143.941566,3.117835,6.669429,-3.896761,-2.770602,-6.225275,4.027473,2.913059,-0.160133,0.597866,-0.052556,-202.373175,188.571047,1641.839352,880.739828,0
0.003131,-153.727083,-55.590541,171.671681,3.545688,6.507972,-1.640014,-4.640362,-6.225275,1.871455,4.790417,-0.203887,0.616675,-0.052556,-91.647552,188.495810,1640.763123,881.470485,0
0.004168,-75.203902,-109.230002,196.606911,4.153690,5.509876,1.204051,-6.192186,-5.289509,-0.944051,6.425535,-0.229410,0.639550,-0.086006,41.448361,188.721971,1639.768922,882.436382,0
0.005208,-4.138671,-154.988561,175.232121,3.737096,3.759537,3.243571,-6.279240,-3.639224,-3.057794,6.603430,-0.236703,0.643340,-0.037689,156.970030,188.797264,1639.123015,883.612756,0
0.006250,66.757060,-187.440024,126.066457,2.802574,1.132195,5.327342,-5.688790,-1.161983,-5.137717,5.933485,-0.240349,0.618536,-0.030256,258.238660,188.571002,1637.133355,884.269434,0
0.007292,121.369599,-190.916547,43.580909,1.169976,-1.341030,6.288772,-4.087761,1.304377,-6.164996,4.400562,-0.207533,0.622394,-0.056273,311.749477,188.495687,1635.800977,885.292743,0
0.008333,170.727673,-159.627840,-28.369139,-0.259955,-3.795907,6.522090,-1.971981,3.603895,-6.427100,2.292320,-0.138256,0.622670,-0.033973,318.324339,188.723185,1634.050965,886.043558,0
0.009375,181.134904,-103.463202,-95.519276,-1.520997,-5.560924,5.600887,0.529863,5.294077,-5.602741,-0.232271,-0.083563,0.637070,-0.037689,279.753319,188.586248,1633.221536,888.404814,0
0.010417,186.581468,-19.744770,-143.919385,-2.466778,-6.581037,4.028002,2.948439,6.316891,-4.017433,-2.703873,-0.017932,0.629215,-0.030256,203.692078,188.591520,1632.250181,888.677910,0
0.011458,154.760879,54.331008,-171.309253,-3.052262,-6.474623,1.739073,4.799273,6.320518,-1.878325,-4.611510,-0.010640,0.639412,-0.048839,93.270430,188.590906,1631.778568,889.752236,0
0.012500,75.593602,109.180206,-195.879933,-3.558930,-5.465517,-1.133151,6.404087,5.312212,0.937181,-6.265553,0.047699,0.639343,-0.019106,-41.548008,188.730811,1629.440687,890.750083,0
0.013542,3.115881,154.656885,-175.246394,-3.142336,-3.689493,-3.160603,6.506280,3.680062,3.097426,-6.496438,0.036760,0.630938,-0.067423,-157.486235,188.663467,1628.763373,891.671455,0
0.014583,-67.271354,186.849957,-125.764787,-2.185296,-1.157556,-5.232305,5.896905,1.275361,5.139302,-5.818924,0.014883,0.590356,-0.026539,-257.876715,188.578721,1625.745341,893.325679,0
0.015625,-121.318897,190.901986,-43.692397,-0.552697,1.381719,-6.205804,4.326156,-1.256285,6.208856,-4.335206,-0.032517,0.629835,-0.037689,-316.408745,188.574719,1625.333410,894.409222,0
0.016667,-170.801270,159.824689,27.455641,0.843456,3.770546,-6.503485,2.236870,-3.486890,6.521690,-2.219394,-0.068979,0.627424,-0.037689,-332.722057,188.721913,1625.225197,896.271310,0
0.017710,-181.152001,104.176831,95.748036,2.149535,5.572257,-5.481714,-0.348242,-5.278628,5.608553,0.407393,-0.094502,0.625288,-0.033973,-279.425149,188.721904,1625.059427,897.276936,0
0.018757,-186.768064,19.295643,144.828638,3.050279,6.603379,-3.949056,-2.759248,-6.250664,4.065521,2.856285,-0.160133,0.637070,-0.037689,-201.708934,188.571254,1625.257042,898.277335,0
0.019803,-153.252486,-56.647592,171.781046,3.601985,6.434583,-1.644036,-4.572233,-6.232529,1.871455,4.726072,-0.196595,0.643822,-0.100873,-88.382638,188.571026,1624.311186,899.025700,0
0.020837,-74.175608,-109.723293,196.278816,4.086135,5.498867,1.131642,-6.180832,-5.220596,-0.901776,6.353620,-0.243995,0.591802,-0.056273,43.486118,188.721909,1622.356790,898.975317,0
0.021879,-1.878686,-154.871111,174.928329,3.714578,3.774215,3.215412,-6.290595,-3.624716,-2.960562,6.531515,-0.236703,0.628251,-0.067423,158.275996,188.721922,1619.948454,899.699604,0
0.022921,67.536755,-186.981969,125.944940,2.836352,1.201915,5.254933,-5.700144,-1.220015,-5.036257,5.990260,-0.225764,0.635692,-0.067423,257.732036,188.571134,1618.686809,901.273794,0
0.023963,121.832896,-190.200102,44.662408,1.248791,-1.256632,6.228431,-4.125610,1.199194,-6.122721,4.476262,-0.174718,0.637414,-0.048839,311.805769,188.646565,1617.661229,902.727282,0
0.025006,171.360469,-159.862741,-27.275488,-0.203659,-3.689493,6.514045,-2.051464,3.502339,-6.444010,2.417225,-0.145548,0.637208,-0.056273,318.414406,188.721953,1616.949304,904.630638,0
0.026051,180.762007,-103.322262,-96.722292,-1.577294,-5.465517,5.532500,0.541218,5.243299,-5.530873,-0.171711,-0.094502,0.638034,-0.086006,277.602979,188.721840,1615.398050,904.994055,0
0.027091,186.344170,-18.253154,-144.356845,-2.489297,-6.525995,4.015934,2.857600,6.240724,-4.038571,-2.594108,-0.032517,0.619569,-0.067423,200.686105,188.571098,1613.160508,906.372079,0
0.028135,153.766485,56.914911,-170.883944,-2.973447,-6.382886,1.803437,4.716005,6.247978,-1.891008,-4.539595,-0.028871,0.599450,-0.045123,89.735316,188.571103,1610.852924,907.136463,0
0.029171,74.328010,110.119806,-195.126529,-3.525153,-5.480195,-0.980287,6.339743,5.319466,0.861086,-6.182283,0.036760,0.611370,-0.067423,-42.313574,188.721976,1608.690599,908.378681,0
0.030211,2.573484,154.410239,-175.343608,-3.108558,-3.806916,-3.031876,6.476001,3.727213,2.941009,-6.439663,0.036760,0.639964,-0.074856,-156.146494,188.721804,1606.386922,909.659039,0
0.031253,-66.887157,186.239217,-126.299461,-2.117740,-1.256632,-5.147828,5.908260,1.344274,5.016705,-5.834064,0.007591,0.635485,-0.071140,-256.987308,188.571102,1604.808818,910.390948,0
0.032292,-121.420596,190.761046,-45.916153,-0.642772,1.201915,-6.125349,4.398070,-1.064054,6.128534,-4.418476,0.007591,0.638861,-0.045123,-316.138545,188.646569,1603.187121,912.167264,0
0.033333,-170.744770,159.143478,26.264777,0.742122,3.671470,-6.394872,2.331494,-3.345437,6.432913,-2.283739,-0.043455,0.628044,-0.074856,-332.406824,188.722070,1600.614461,912.573000,0
0.034375,-181.242401,104.505692,95.541458,2.160794,5.440156,-5.489759,-0.211984,-5.155310,5.659283,0.282488,-0.134610,0.608890,-0.082290,-278.884749,188.722094,1598.880850,914.347513,0
0.035417,-185.660672,18.684903,143.601319,3.016501,6.471278,-3.993306,-2.551076,-6.072941,4.133161,2.617830,-0.152841,0.603929,-0.056273,-200.887076,188.571149,1593.992285,915.859086,0
0.036458,-154.710176,-55.931146,170.796760,3.635763,6.474947,-1.849195,-4.409481,-6.236156,2.053237,4.589812,-0.192949,0.639343,-0.041406,-92.525702,188.721945,1592.284241,917.794499,0
0.037500,-76.130495,-110.204838,194.225183,4.097394,5.568587,0.938551,-6.071068,-5.264120,-0.711539,6.232500,-0.273164,0.611852,-0.041406,40.637762,188.721913,1589.599778,919.402208,0
0.038542,-3.878773,-154.319096,176.386529,3.703318,3.876960,3.014276,-6.241391,-3.726272,-2.863329,6.539085,-0.233057,0.645682,-0.067423,155.022340,188.646598,1589.679978,920.388149,0
0.039583,66.451962,-185.584313,127.548961,2.712500,1.359702,5.110115,-5.650940,-1.386857,-4.871385,5.963765,-0.240349,0.639481,-0.033973,256.549912,188.573886,1587.123043,921.258036,0
0.040625,121.403499,-191.268898,45.476570,1.192494,-1.091506,6.115795,-4.174814,1.064995,-6.033944,4.529252,-0.203887,0.629629,-0.045123,311.940869,188.721911,1585.810626,922.511960,0
0.041667,170.332176,-158.817435,-26.594995,-0.203659,-3.506019,6.453704,-2.210432,3.288346,-6.351006,2.542130,-0.207533,0.626252,-0.033973,318.279306,188.721820,1581.927110,923.867861,0
0.042708,181.496502,-104.226628,-95.507125,-1.554775,-5.322408,5.580773,0.325477,5.127235,-5.619651,-0.008957,-0.112733,0.624254,-0.071140,279.719544,188.646621,1580.703320,926.063426,0
0.043750,185.236777,-18.852149,-143.348256,-2.466778,-6.408572,4.168797,2.668353,6.186319,-4.127348,-2.393503,-0.065333,0.568790,-0.067423,201.992071,188.571216,1577.944271,927.742833,0
0.044792,155.314575,54.871279,-170.847489,-2.950928,-6.423250,1.972391,4.530543,6.218962,-2.131974,-4.350346,-0.032517,0.643684,-0.059989,94.655204,188.721895,1575.651016,930.048147,0
0.045833,77.932686,110.084571,-193.145807,-3.457597,-5.546246,-0.839492,6.203485,5.344855,0.704669,-6.083873,0.007591,0.634038,-0.045123,-39.217534,188.721802,1573.958865,930.631831,0
0.046875,4.697870,153.987419,-176.133466,-3.153596,-3.858288,-2.895103,6.419227,3.836023,2.826867,-6.345038,0.036760,0.645613,-0.056273,-155.065695,188.646475,1572.598188,931.249037,0
0.047917,-66.728958,184.771090,-127.113623,-2.252852,-1.352038,-4.982896,5.881766,1.402306,4.872971,-5.815139,0.000299,0.647543,-0.067423,-256.187967,188.571205,1570.398711,931.408953,0
0.048960,-121.409296,191.266081,-44.324284,-0.654031,1.110178,-6.052940,4.424564,-0.973379,6.056667,-4.433616,-0.021578,0.628113,-0.048839,-316.825303,188.721726,1568.642124,932.696664,0
0.050000,-169.795576,158.720658,26.920968,0.809678,3.476988,-6.374758,2.399623,-3.193103,6.377956,-2.389718,-0.083563,0.621912,-0.078573,-332.463116,188.721849,1565.882339,934.293535,0
0.051042,-181.129402,104.540927,95.541458,2.183313,5.355758,-5.538032,-0.071942,-5.046500,5.676193,0.059173,-0.098148,0.619362,-0.082290,-279.988065,188.571044,1563.388855,936.846209,0
0.052083,-185.084375,20.481889,143.637774,3.084057,6.427244,-4.061693,-2.437528,-6.011282,4.196573,2.511850,-0.156487,0.628319,-0.011672,-203.003641,188.571076,1562.071331,937.560670,0
0.053125,-155.749769,-54.040200,171.015491,3.590725,6.441922,-1.905513,-4.280793,-6.214394,2.192744,4.487617,-0.185656,0.629146,-0.022822,-94.822400,188.721920,1561.004032,938.626667,0
0.054167,-78.774678,-110.193093,193.155836,4.086135,5.557579,0.898324,-5.915886,-5.314898,-0.635444,6.145445,-0.236703,0.605376,-0.037689,40.131138,188.721965,1560.182298,939.078018,0
0.055208,-3.675374,-153.755335,176.617411,3.748356,3.887969,2.949913,-6.161907,-3.773423,-2.690002,6.455815,-0.207533,0.634107,-0.082290,155.832940,188.646543,1557.517712,940.093483,0
0.056250,67.389856,-184.785652,127.439596,2.768796,1.436761,4.981387,-5.666080,-1.386857,-4.719196,5.906990,-0.251287,0.600484,-0.063706,256.617462,188.570995,1554.931489,940.004724,0
0.057292,121.527798,-191.374603,44.662408,1.237532,-1.007108,6.091659,-4.307287,0.977947,-5.945167,4.574672,-0.192949,0.627010,-0.037689,312.132260,188.721458,1553.183566,941.338716,0
0.058333,169.846279,-158.653005,-25.878046,-0.113585,-3.381257,6.429567,-2.263421,3.172282,-6.300276,2.610260,-0.141902,0.628802,-0.089723,318.324339,188.797704,1551.309351,941.966581,0
0.059375,181.304403,-105.753479,-95.276243,-1.453441,-5.263696,5.612955,0.208144,5.076457,-5.611196,0.085668,-0.120025,0.626046,-0.082290,281.385776,188.571504,1550.591691,942.497515,0
0.060417,184.852580,-21.541757,-143.579138,-2.511815,-6.305827,4.168797,2.528311,6.055747,-4.165395,-2.268599,-0.050748,0.629629,-0.078573,203.253003,188.571529,1548.618422,942.613384,0
0.061458,155.992571,54.178323,-170.604456,-2.962187,-6.368208,2.044800,4.424564,6.218962,-2.191159,-4.274646,-0.010640,0.637690,-0.082290,94.497587,188.722293,1547.864640,943.182583,0
0.062500,78.362084,110.460412,-192.428858,-3.401300,-5.549915,-0.742947,6.082367,5.308585,0.611664,-5.947614,0.040407,0.615504,-0.052556,-40.546017,188.797652,1545.294447,943.464060,0
0.063542,2.788183,153.235738,-176.655988,-3.209892,-3.939017,-2.798558,6.404087,3.807007,2.759227,-6.292048,0.040407,0.657051,-0.041406,-155.414703,188.571545,1543.665331,943.570014,0
0.064583,-67.723351,183.772765,-127.344505,-2.140259,-1.454784,-4.862214,5.908260,1.547386,4.792648,-5.818924,0.022176,0.622325,-0.041406,-255.613792,188.571482,1541.873246,945.465190,0
0.065625,-121.239797,191.313061,-45.648816,-0.552697,0.967068,-5.992599,4.515403,-0.846434,5.980572,-4.509316,0.000299,0.631558,-0.052556,-316.723978,188.722241,1540.622876,946.814444,0
0.066667,-169.852076,158.168643,24.721515,0.742122,3.341217,-6.330508,2.479106,-3.091547,6.310316,-2.450278,-0.054394,0.632867,-0.030256,-332.328016,188.797681,1538.941153,946.806379,0
0.067708,-181.626598,106.514088,95.006784,2.104498,5.286038,-5.538032,-0.003813,-4.966706,5.688876,-0.016527,-0.105440,0.620465,-0.082290,-281.316547,188.571572,1538.495431,947.340623,0
0.068750,-184.440280,20.975180,143.346134,3.050279,6.298812,-4.057670,-2.293700,-5.935115,4.234620,2.405870,-0.163779,0.626528,-0.056273,-201.506284,188.646775,1536.567402,947.968396,0
0.069792,-155.648070,-54.885840,170.638789,3.568207,6.394219,-1.977922,-4.182384,-6.163616,2.175834,4.381638,-0.192949,0.633625,-0.056273,-93.392593,188.722280,1534.699644,947.942168,0
0.070833,-77.836784,-111.062224,191.916366,4.063616,5.546570,0.765574,-5.862897,-5.256866,-0.521302,6.016755,-0.233057,0.593938,-0.056273,41.020545,188.797664,1531.325714,948.592102,0
0.071875,-2.500182,-153.379495,177.212843,3.759615,3.983375,2.801072,-6.161907,-3.831455,-2.605453,6.459600,-0.233057,0.634107,-0.052556,154.819690,188.571571,1530.440842,950.063722,0
0.072917,67.435056,-183.387996,128.350971,2.836352,1.532167,4.884842,-5.677435,-1.539191,-4.676921,5.929700,-0.240349,0.636105,-0.045123,254.917455,188.571440,1529.432473,951.580030,0
0.073958,121.324400,-191.492053,46.813254,1.260050,-0.908032,6.043386,-4.284578,0.854629,-5.932485,4.661727,-0.185656,0.631833,-0.067423,311.952127,188.722280,1529.248677,952.973542,0
0.075000,169.857579,-158.218439,-24.407694,-0.181140,-3.271173,6.385318,-2.274776,3.067099,-6.258001,2.704885,-0.167425,0.626528,-0.071140,318.335597,188.722306,1527.660857,953.817780,0
0.076042,181.767700,-105.953144,-95.033210,-1.543516,-5.175629,5.612955,0.162724,5.000290,-5.632333,0.157583,-0.090856,0.618742,-0.048839,280.789085,188.571444,1526.694405,954.815325,0
0.077083,184.287584,-19.979670,-143.068768,-2.489297,-6.247115,4.192934,2.452612,5.975953,-4.211898,-2.200469,-0.050748,0.603171,-0.089723,200.933788,188.571645,1524.557241,955.777458,0
0.078125,155.597073,55.364569,-170.458636,-2.995965,-6.331513,2.097095,4.348866,6.182692,-2.136202,-4.187591,-0.032517,0.605720,-0.089723,94.193612,188.722306,1523.051855,955.571604,0
0.079167,78.226485,111.082897,-191.310904,-3.446337,-5.513221,-0.670538,6.018023,5.315839,0.548252,-5.909764,0.014883,0.626459,-0.082290,-39.397668,188.722188,1521.755240,956.305708,0
0.080208,3.805176,153.411914,-176.899022,-3.097299,-3.968373,-2.722126,6.347313,3.890428,2.661995,-6.284478,0.065930,0.632385,-0.063706,-153.737212,188.575012,1521.105200,957.605811,0
0.081250,-66.649858,183.009339,-128.365245,-2.207814,-1.509826,-4.801873,5.896905,1.583656,4.708099,-5.796214,0.007591,0.633625,-0.041406,-254.375376,188.571458,1520.055857,957.205908,0
0.082292,-121.296297,191.324806,-46.305006,-0.631512,0.959729,-5.956395,4.466199,-0.831926,5.972117,-4.497961,0.022176,0.629904,-0.052556,-317.241861,188.722387,1519.999627,957.023563,0
0.083333,-169.524378,158.274348,25.244037,0.708344,3.330209,-6.286258,2.513171,-3.033515,6.293406,-2.491913,-0.050748,0.624048,-0.071140,-332.282983,188.722179,1519.059326,957.776028,0
0.084375,-181.366700,105.304352,95.359183,2.127016,5.190632,-5.497804,0.022682,-4.934063,5.667738,0.006183,-0.123671,0.602137,-0.052556,-279.954290,188.571567,1518.158214,957.629892,0
0.085417,-184.248181,19.706719,143.078797,3.072797,6.324499,-4.101920,-2.320195,-5.909726,4.264213,2.375590,-0.167425,0.590976,-0.074856,-201.236084,188.571408,1517.203358,958.360728,0
0.086458,-155.546371,-54.932820,170.675244,3.635763,6.401558,-2.038263,-4.159675,-6.123719,2.226564,4.362713,-0.214826,0.629904,-0.059989,-94.799883,188.722266,1516.453305,958.729167,0
0.087500,-79.396174,-110.850814,191.430299,4.097394,5.572257,0.749483,-5.859112,-5.275001,-0.449435,5.967550,-0.233057,0.624599,-0.093440,38.611264,188.646849,1515.796882,959.090238,0
0.088542,-4.805367,-153.496945,177.103478,3.714578,4.009061,2.789004,-6.124057,-3.860471,-2.609680,6.387685,-0.236703,0.649472,-0.067423,153.975316,188.571444,1515.625091,958.334873,0
0.089583,66.644061,-183.317526,128.751976,2.802574,1.561523,4.860706,-5.647155,-1.524683,-4.588144,5.929700,-0.251287,0.637690,-0.045123,254.883680,188.571522,1514.842777,957.958639,0
0.090625,121.166201,-191.527288,45.756059,1.158716,-0.911702,6.019250,-4.280793,0.854629,-5.856390,4.601167,-0.196595,0.627630,-0.052556,312.064710,188.722340,1513.458621,957.283842,0
0.091667,169.292583,-158.206694,-25.671468,-0.169881,-3.260164,6.373249,-2.342904,3.059845,-6.236864,2.659465,-0.160133,0.621154,-0.071140,318.301822,188.646906,1512.918950,956.903343,0
0.092708,181.293103,-105.342404,-95.324850,-1.509738,-5.146273,5.641114,0.147585,4.978528,-5.590058,0.180293,-0.076271,0.621429,-0.074856,281.059284,188.571482,1511.907362,956.832683,0
0.093750,184.321483,-20.790076,-143.093071,-2.433000,-6.258124,4.200979,2.448827,5.961445,-4.228808,-2.147479,-0.076271,0.610750,-0.026539,202.915253,188.571527,1511.513020,957.149660,0
0.094792,156.229869,53.778993,-170.616608,-3.041003,-6.382886,2.137323,4.337511,6.193573,-2.250344,-4.210301,0.000299,0.636932,-0.089723,96.524086,188.722346,1512.038608,957.905271,0
0.095833,80.802867,110.636587,-190.909899,-3.468856,-5.494873,-0.638356,6.040733,5.319466,0.480612,-5.841634,0.036760,0.640584,-0.082290,-38.260577,188.646869,1511.482281,957.772186,0
0.096875,4.449272,153.223993,-176.971932,-3.209892,-3.983050,-2.714081,6.347313,3.879547,2.598583,-6.307188,0.036760,0.644993,-0.045123,-154.333904,188.571413,1511.215689,957.899343,0
0.097917,-67.406953,182.715714,-128.000695,-2.241592,-1.513495,-4.789805,5.859056,1.605418,4.661596,-5.773504,-0.006994,0.618053,-0.063706,-255.140942,188.571469,1510.118582,958.275783,0
0.098958,-121.341497,191.747626,-44.992626,-0.552697,0.893679,-5.976508,4.564607,-0.773894,6.018619,-4.494176,-0.017932,0.622394,-0.045123,-317.658419,188.722148,1509.969321,959.314527,0
0.100000,-169.027182,157.921997,25.353402,0.854715,3.286175,-6.306372,2.577515,-3.011753,6.344136,-2.601678,-0.058040,0.626735,-0.045123,-332.418083,188.646900,1509.835418,960.965355,0
0.101042,-181.637898,106.196973,95.091846,2.127016,5.194301,-5.602395,0.087026,-4.915928,5.722695,-0.039237,-0.101794,0.625012,-0.022822,-281.879463,188.571395,1510.104013,961.822447,0
0.102083,-183.988283,21.879546,143.406892,3.084057,6.298812,-4.182374,-2.252066,-5.942369,4.293805,2.269610,-0.145548,0.629008,-0.067423,-202.879799,188.571389,1510.069112,962.555001,0
0.103125,-156.472965,-53.394224,170.918277,3.613244,6.401558,-2.094581,-4.155890,-6.152735,2.268839,4.351358,-0.178364,0.642237,-0.052556,-95.700549,188.722279,1510.706752,962.765773,0
0.104167,-80.141969,-111.038734,191.004990,4.052357,5.568587,0.697188,-5.794768,-5.333033,-0.436752,5.978905,-0.222118,0.637276,-0.056273,39.838421,188.571364,1511.156006,963.384123,0
0.105208,-3.144278,-153.262045,177.553090,3.759615,3.979706,2.760845,-6.154337,-3.882233,-2.542040,6.421750,-0.196595,0.644924,-0.030256,155.281282,188.571502,1510.586782,964.686205,0
0.106250,68.079152,-182.835980,128.423881,2.825093,1.572531,4.868751,-5.658510,-1.531937,-4.600826,5.914560,-0.211179,0.587255,-0.056273,255.232688,188.646931,1510.187885,965.059834,0
0.107292,121.200101,-192.020578,45.926182,1.203754,-0.871337,6.051432,-4.352707,0.869137,-5.919802,4.616307,-0.185656,0.629973,-0.041406,312.211069,188.722195,1511.320224,965.313959,0
0.108333,169.529881,-158.077499,-24.322632,-0.102325,-3.263834,6.401408,-2.373184,3.070726,-6.258001,2.727595,-0.174718,0.635416,-0.067423,318.335597,188.571493,1511.768207,965.807063,0
0.109375,181.937199,-106.951470,-94.753721,-1.475960,-5.135265,5.673296,0.083241,4.982155,-5.687290,0.172723,-0.120025,0.628113,-0.063706,282.590417,188.496147,1513.236179,966.371187,0
0.110417,184.106785,-21.753167,-143.323953,-2.410482,-6.261793,4.213047,2.418547,5.972326,-4.241490,-2.196684,-0.076271,0.626873,-0.019106,202.307304,188.646830,1514.046278,965.976797,0
