1-Time,2-VGERA,3-VGERB,4-VGERC,5-VN,6-IGERAN,7-IGERBN,8-IGERCN,9-IGERAT,10-IGERBT,11-IGERCT,12-IN,13-IFD,14-IFAULT,15-VFAULT,16-Speed (rad/s),17-Active Power,18-Reactive Power,19-FAULT 
0.000000,125.381073,52.522277,-184.129266,-3.254929,-2.973889,-1.218043,4.305578,3.230364,1.314040,-4.506105,-0.101287,0.413834,-0.044457,58.482207,188.495260,1206.853898,-15.546141,0
0.001042,53.671747,106.713753,-188.212228,-3.367522,-1.495092,-2.759269,4.216657,1.768170,2.836797,-4.319521,-0.097641,0.415143,-0.029590,22.624443,188.344487,1205.087045,-16.306120,0
0.002083,-10.014632,160.259254,-160.409203,-2.838335,0.123146,-3.899858,3.582613,0.116081,3.954062,-3.736921,-0.068472,0.412180,-0.033307,-8.043234,188.495325,1204.513071,-16.507525,0
0.003125,-70.005936,176.913679,-103.016858,-1.734924,1.840459,-4.259614,2.202406,-1.703116,4.225829,-2.308980,-0.035656,0.400674,-0.040740,-35.626129,188.419811,1203.983326,-16.982390,0
0.004167,-126.177865,183.455649,-26.096776,-0.226178,3.344943,-4.181939,0.632758,-3.104543,4.126612,-0.801075,-0.006487,0.398125,-0.022156,-62.882533,188.495423,1202.258142,-16.542536,0
0.005208,-161.716130,144.967251,40.360716,1.023605,4.148557,-3.302991,-0.960086,-3.981859,3.164643,0.881991,0.008098,0.396471,-0.007290,-78.058754,188.344571,1201.538902,-16.232566,0
0.006250,-189.660845,69.752207,91.895956,2.014423,4.654945,-1.970260,-2.753969,-4.543949,1.892084,2.614559,0.070083,0.403705,-0.029590,-93.448884,188.495436,1200.485175,-15.557512,0
0.007292,-171.343666,6.751973,145.788620,3.039020,4.258641,-0.580295,-3.511729,-4.065413,0.455601,3.330434,0.051852,0.398607,-0.022156,-79.117037,188.495378,1199.420210,-14.793465,0
0.008333,-124.618475,-53.265029,184.127144,3.872208,3.348612,1.304334,-4.315884,-3.184299,-1.395003,4.130080,0.102898,0.387652,-0.048173,-57.827545,188.495334,1197.991837,-14.632493,0
0.009375,-52.524951,-106.869255,188.489594,3.894726,1.939535,2.759709,-4.250160,-1.684126,-2.831485,3.977767,0.106545,0.394197,-0.014723,-22.746606,188.269232,1197.067847,-14.434455,0
0.010417,11.410026,-160.449991,160.394929,3.388058,0.240569,3.879858,-3.623847,-0.039633,-4.013456,3.349473,0.062790,0.412525,0.007577,8.900545,188.495311,1196.456844,-14.536255,0
0.011458,70.474736,-177.315826,102.929674,2.262128,-1.447389,4.296847,-2.255238,1.752978,-4.289537,1.929148,0.037267,0.404326,-0.051890,36.798673,188.495318,1195.888908,-13.481524,0
0.012500,126.386766,-183.622896,25.742255,0.820937,-2.896831,4.210996,-0.735851,3.264545,-4.181693,0.428858,0.022683,0.395093,-0.018440,64.370310,188.495300,1195.571355,-12.866452,0
0.013542,161.800732,-144.558992,-40.314232,-0.462623,-3.737140,3.287078,0.938182,4.054509,-3.198155,-1.242784,-0.032010,0.397160,-0.022156,79.276332,188.344581,1195.224830,-12.383532,0
0.014583,189.813247,-69.238243,-91.764410,-1.475960,-4.316917,1.966612,2.674073,4.681164,-1.955792,-3.002007,-0.028364,0.404946,-0.040740,94.024737,188.495432,1195.623010,-11.686985,0
0.015625,171.326569,-6.461164,-145.717832,-2.500556,-3.806860,0.601176,3.466629,4.172244,-0.514995,-3.721689,-0.064826,0.391166,-0.044457,81.573030,188.495399,1195.880394,-11.286317,0
0.016667,124.330180,53.356173,-183.983446,-3.299967,-2.951873,-1.267101,4.274649,3.260747,1.357177,-4.551799,-0.072118,0.402259,0.000144,59.416648,188.495269,1196.603987,-11.188412,0
0.017708,52.417455,107.019124,-188.187925,-3.288707,-1.502431,-2.849208,4.232122,1.798553,2.828170,-4.380446,-0.079410,0.371598,-0.018440,24.752266,188.269162,1197.263823,-10.270571,0
0.018750,-11.088125,160.447175,-160.275535,-2.804557,0.170849,-3.920299,3.601943,0.104687,3.945434,-3.820693,-0.050241,0.367051,-0.044457,-7.986942,188.495383,1198.004904,-9.473879,0
0.019792,-70.299734,177.078109,-102.834583,-1.712405,1.851467,-4.341377,2.221736,-1.703116,4.299163,-2.324211,-0.028364,0.397849,-0.044457,-36.053945,188.419974,1198.978973,-9.270719,0
0.020833,-126.381263,183.197259,-26.546388,-0.293733,3.392646,-4.214644,0.686884,-3.191895,4.195632,-0.766804,-0.024718,0.402810,0.000144,-63.411674,188.495336,1200.351745,-10.149458,0
0.021875,-162.089027,144.438726,39.959711,1.023605,4.192591,-3.331608,-0.940755,-4.035030,3.186212,0.874376,0.026329,0.403430,-0.037023,-79.972670,188.269143,1201.042675,-10.085726,0
0.022917,-190.090242,70.351202,92.151141,2.036942,4.743012,-1.990700,-2.765567,-4.597120,1.866201,2.633599,0.081021,0.400123,-0.029590,-93.448884,188.495379,1201.867855,-10.597983,0
0.023958,-170.925569,7.938219,146.493417,3.061538,4.269650,-0.600735,-3.542658,-4.073009,0.442660,3.338049,0.070083,0.397642,0.003860,-81.785260,188.419942,1202.087341,-10.937825,0
0.025000,-125.307770,-52.466368,184.358026,3.815911,3.381637,1.230748,-4.362277,-3.210884,-1.395003,4.183390,0.084667,0.410389,-0.014723,-59.381194,188.495352,1203.029793,-11.176600,0
0.026042,-53.835743,-107.339055,187.857708,3.872208,1.939535,2.821031,-4.284955,-1.752489,-2.861681,4.008229,0.081021,0.410113,-0.037023,-23.410847,188.344634,1203.928891,-10.846847,0
0.027083,10.031435,-160.767106,160.419233,3.388058,0.240569,3.892122,-3.689571,-0.032037,-3.987573,3.368512,0.066437,0.414109,0.007577,8.360145,188.495341,1203.941249,-11.032987,0
0.028125,70.237437,-176.822535,103.683078,2.262128,-1.469406,4.288671,-2.255238,1.745382,-4.315419,1.917724,0.037267,0.406530,-0.029590,36.382115,188.419985,1204.067484,-11.337024,0
0.029167,126.872663,-183.434976,27.139698,0.843456,-2.922517,4.247790,-0.724252,3.291130,-4.203261,0.425050,0.004452,0.404394,-0.022156,63.210703,188.495356,1204.609263,-11.773447,0
0.030208,162.264029,-144.547247,-39.694497,-0.417586,-3.766496,3.323872,0.938182,4.077297,-3.202469,-1.235169,-0.028364,0.403361,-0.014723,79.490240,188.344518,1204.946459,-11.855794,0
0.031250,190.118345,-70.518449,-92.043898,-1.487219,-4.302239,2.032022,2.677939,4.681164,-1.942850,-2.960121,-0.035656,0.405428,0.000144,93.957188,188.420030,1204.902603,-11.830286,0
0.032292,171.123171,-7.659155,-146.130989,-2.500556,-3.861902,0.617528,3.497558,4.157053,-0.506368,-3.755960,-0.042949,0.416659,0.000144,79.918057,188.419989,1205.134879,-12.467961,0
0.033333,125.098575,52.886372,-184.311542,-3.311226,-2.984898,-1.275277,4.297846,3.291130,1.383060,-4.509913,-0.090349,0.425340,-0.014723,58.347107,188.497290,1205.186697,-12.659086,0
0.034375,53.411849,107.312749,-187.969195,-3.356263,-1.528117,-2.775622,4.228256,1.783362,2.832484,-4.338560,-0.057533,0.405704,0.007577,22.455568,188.274683,1204.785439,-13.132131,0
0.035417,-10.613528,160.552880,-160.239080,-2.838335,0.108468,-3.903946,3.609676,0.116081,3.919552,-3.752152,-0.035656,0.415487,-0.003573,-8.380983,188.495653,1203.876938,-13.422004,0
0.036458,-70.480533,176.796229,-102.457881,-1.712405,1.851467,-4.275966,2.190807,-1.676531,4.256025,-2.316596,-0.021072,0.407633,-0.022156,-35.885070,188.420178,1203.109441,-13.051334,0
0.037500,-126.708961,183.302964,-25.586406,-0.248696,3.300909,-4.247349,0.694616,-3.142522,4.174064,-0.816306,0.004452,0.398882,0.007577,-63.040149,188.495740,1202.642305,-11.867140,0
0.038542,-161.987328,144.509196,40.883238,1.001086,4.100854,-3.294815,-0.960086,-3.970466,3.186212,0.893415,0.044560,0.398607,-0.040740,-78.250146,188.344929,1202.051976,-11.607749,0
0.039583,-189.988543,69.270661,92.345568,2.036942,4.724665,-1.978436,-2.757835,-4.593322,1.874829,2.645022,0.044560,0.384000,-0.033307,-93.505176,188.495709,1201.997469,-11.329078,0
0.040625,-170.959469,6.376132,146.177474,3.050279,4.276989,-0.600735,-3.500131,-4.069211,0.481484,3.326626,0.088314,0.399847,-0.033307,-78.981937,188.420349,1201.787262,-10.459715,0
0.041667,-124.324677,-53.687849,184.467391,3.815911,3.341273,1.267541,-4.327482,-3.180501,-1.395003,4.149120,0.091960,0.408391,-0.033307,-57.647412,188.495839,1201.098292,-10.117382,0
0.042708,-51.971255,-107.456506,188.295168,3.951023,1.943204,2.751533,-4.257892,-1.695520,-2.784034,3.943496,0.106545,0.415281,-0.022156,-22.532697,188.269630,1199.496949,-9.717712,0
0.043751,11.929823,-160.684891,160.200503,3.410576,0.302950,3.896210,-3.619981,-0.077612,-3.948749,3.368512,0.088314,0.392061,-0.014723,9.227036,188.425513,1199.017124,-8.443082,0
0.044794,71.073632,-177.092670,102.164119,2.273387,-1.495092,4.276407,-2.247506,1.764372,-4.306792,1.913916,0.059144,0.419552,-0.003573,37.125165,188.420169,1198.938333,-8.088377,0
0.045834,126.737064,-183.411486,25.231885,0.798419,-2.911508,4.243701,-0.681725,3.237959,-4.177379,0.470744,0.033621,0.397987,-0.025873,64.505410,188.495790,1198.222267,-6.764709,0
0.046875,161.981531,-144.171407,-40.873209,-0.485141,-3.722462,3.291167,0.884056,4.008934,-3.215410,-1.246592,-0.002841,0.400467,-0.044457,79.377657,188.269433,1197.564818,-6.186426,0
0.047917,189.982746,-68.639247,-92.238325,-1.509738,-4.258205,2.007493,2.662475,4.646982,-1.942850,-2.941082,-0.050241,0.400398,-0.007290,94.013479,188.495649,1196.819686,-5.521356,0
0.048958,170.885872,-5.932638,-146.033776,-2.545593,-3.854563,0.609352,3.451164,4.119073,-0.579702,-3.683611,-0.042949,0.411629,-0.018440,81.415414,188.420417,1195.676689,-3.930338,0
0.050000,124.058982,53.908188,-184.153570,-3.299967,-2.970220,-1.242572,4.239854,3.245555,1.344236,-4.460411,-0.093995,0.436088,-0.037023,59.259031,188.495656,1194.462773,-3.316409,0
0.051042,51.875059,107.500669,-188.054256,-3.401300,-1.495092,-2.763357,4.212791,1.798553,2.759150,-4.365215,-0.083057,0.392130,-0.044457,24.470808,188.269631,1194.173110,-2.038982,0
0.052083,-11.641822,160.529390,-160.008198,-2.849594,0.148832,-3.858977,3.613542,0.150262,3.941120,-3.755960,-0.064826,0.381037,-0.003573,-8.234625,188.420350,1194.353891,-1.416063,0
0.053125,-70.830830,176.937169,-102.324213,-1.734924,1.851467,-4.275966,2.214004,-1.634754,4.238770,-2.278517,-0.017425,0.400536,0.007577,-36.290370,188.420287,1193.773322,-1.213433,0
0.054169,-127.262658,183.103299,-25.732226,-0.226178,3.315587,-4.202380,0.729411,-3.115937,4.178377,-0.812498,0.008098,0.406186,-0.029590,-63.862007,188.495754,1193.652943,-0.948978,0
0.055208,-162.168127,144.309531,40.433626,1.001086,4.137549,-3.311167,-0.917559,-3.955274,3.173271,0.881991,0.037267,0.401845,-0.025873,-80.073994,188.269532,1193.330674,-0.917203,0
0.056250,-189.898144,69.799187,92.795180,2.070720,4.665953,-1.986612,-2.692111,-4.528758,1.883456,2.561250,0.062790,0.403774,-0.022156,-93.325043,188.420365,1192.222089,-0.081568,0
0.057292,-170.722170,7.292243,146.882271,3.072797,4.221947,-0.637529,-3.426675,-4.061615,0.507366,3.288547,0.091960,0.420379,-0.007290,-81.728968,188.420227,1191.922485,0.293580,0
0.058333,-125.013972,-53.077109,184.200054,3.838430,3.333934,1.214395,-4.315884,-3.191895,-1.360492,4.111041,0.091960,0.403292,-0.003573,-59.189802,188.365115,1191.473258,0.543043,0
0.059375,-53.315946,-107.891071,187.760494,3.872208,1.968890,2.743357,-4.269490,-1.737297,-2.809916,3.947304,0.081021,0.398745,-0.037023,-23.185680,188.292556,1191.955580,0.552460,0
0.060417,10.675531,-160.955027,160.018228,3.365539,0.324967,3.843064,-3.643178,-0.032037,-3.914239,3.357089,0.029975,0.403705,-0.003573,8.664120,188.430795,1191.547847,-0.146953,0
0.061458,70.938033,-176.517165,103.197011,2.284646,-1.373999,4.223261,-2.224309,1.703606,-4.168751,1.932956,0.055498,0.403981,-0.025873,36.663574,188.426658,1189.804960,0.493240,0
0.062500,127.234261,-183.035646,26.605024,0.832197,-2.808763,4.161939,-0.789976,3.158203,-4.138555,0.478360,0.029975,0.405841,0.026161,63.435869,188.503972,1188.798558,0.822427,0
0.063542,162.196230,-144.523757,-40.144109,-0.428845,-3.660081,3.303431,0.853127,3.997541,-3.185214,-1.193282,-0.017425,0.404463,-0.029590,79.456465,188.281019,1188.379913,1.024681,0
0.064583,189.655048,-70.224824,-92.615027,-1.509738,-4.206832,1.978876,2.612215,4.590014,-1.929909,-2.864925,-0.032010,0.403430,0.007577,93.788313,188.429634,1187.347407,1.306891,0
0.065625,170.851972,-7.283315,-146.337567,-2.534334,-3.832546,0.642057,3.404771,4.111478,-0.540878,-3.615070,-0.042949,0.408046,-0.018440,79.760440,188.451059,1186.667346,0.961499,0
0.066667,124.996875,53.403153,-183.886233,-3.266189,-2.959212,-1.185338,4.212791,3.260747,1.270902,-4.456603,-0.075764,0.415694,-0.003573,58.212007,188.518780,1186.561307,1.561827,0
0.067708,53.219750,107.676844,-187.677555,-3.322485,-1.553803,-2.714300,4.162532,1.775766,2.737581,-4.308097,-0.072118,0.416659,-0.044457,22.365501,188.278888,1185.745759,1.095942,0
0.068762,-12.557116,161.304560,-159.607193,-2.793298,0.115807,-3.846713,3.563282,0.119879,3.854845,-3.714074,-0.061180,0.414178,0.015011,-9.439266,188.443400,1184.581381,1.341496,0
0.069803,-72.322421,176.479113,-100.513613,-1.678627,1.836789,-4.230997,2.194673,-1.703116,4.204260,-2.255670,-0.032010,0.413903,-0.014723,-36.875803,188.422259,1184.151435,1.240492,0
0.070839,-127.273957,182.797929,-24.662879,-0.226178,3.256875,-4.124706,0.710081,-3.112139,4.117985,-0.785843,-0.006487,0.398745,-0.018440,-63.287832,188.499556,1183.294289,1.066569,0
0.071881,-162.077727,143.569595,42.001192,1.034864,4.064159,-3.229405,-0.921425,-3.917295,3.138761,0.843913,0.022683,0.398745,-0.018440,-78.306438,188.346789,1182.438640,1.918498,0
0.072920,-189.694745,68.460256,93.451370,2.048201,4.610911,-1.929378,-2.676646,-4.498374,1.892084,2.538403,0.022683,0.397160,-0.011006,-93.370076,188.420023,1181.876425,2.669406,0
0.073963,-170.439672,5.377806,146.748602,3.151613,4.170574,-0.547590,-3.422809,-4.054019,0.498739,3.246661,0.077375,0.401294,-0.018440,-78.655446,188.420195,1181.241242,3.326065,0
0.075002,-123.850080,-54.498255,184.260813,3.838430,3.352282,1.202131,-4.281089,-3.157714,-1.300100,4.061539,0.095606,0.394473,0.007577,-57.433504,188.495483,1180.103695,4.391311,0
0.076053,-50.705663,-109.194767,187.590371,3.894726,1.994577,2.698387,-4.153506,-1.691722,-2.771092,3.897802,0.102898,0.357198,-0.022156,-21.710840,188.344876,1178.972047,5.072491,0
0.077092,13.364913,-161.354357,159.690133,3.331761,0.339644,3.798095,-3.604516,-0.054825,-3.884043,3.319010,0.073729,0.377592,-0.011006,10.150219,188.497634,1178.306757,6.086618,0
0.078129,72.000226,-176.916495,101.665900,2.228350,-1.362991,4.198732,-2.208845,1.692212,-4.198948,1.913916,0.070083,0.405566,-0.029590,37.620531,188.420426,1178.477572,6.626945,0
0.079176,127.742757,-183.000410,24.089628,0.775900,-2.808763,4.178291,-0.716520,3.146810,-4.116986,0.466937,0.011744,0.397298,-0.025873,65.012035,188.495816,1178.119332,7.272771,0
0.080212,162.162330,-143.713352,-41.821039,-0.496401,-3.638064,3.307519,0.833797,3.955764,-3.176586,-1.174243,0.008098,0.400536,0.003860,79.388915,188.420303,1177.493685,8.153544,0
0.081253,189.677648,-68.098977,-93.295521,-1.498478,-4.181146,1.991141,2.589018,4.578620,-1.955792,-2.826847,-0.013779,0.407013,-0.011006,93.900896,188.495720,1177.102952,9.421349,0
0.082292,170.716373,-5.380623,-146.410477,-2.523075,-3.770165,0.637969,3.385440,4.111478,-0.579702,-3.607454,-0.068472,0.380417,0.026161,81.257797,188.420349,1176.998319,10.435540,0
0.083333,123.753884,54.753829,-183.910536,-3.243670,-2.896831,-1.164898,4.150933,3.234161,1.257961,-4.445179,-0.093995,0.400674,0.026161,59.056381,188.495667,1176.486734,10.962870,0
0.084375,51.479561,108.228860,-187.823375,-3.367522,-1.553803,-2.677507,4.147067,1.806149,2.646992,-4.308097,-0.075764,0.394404,-0.007290,24.223125,188.420538,1175.875792,12.603662,0
0.085417,-12.263317,160.658585,-159.570738,-2.804557,0.137823,-3.756774,3.559416,0.142666,3.824649,-3.736921,-0.046595,0.362159,-0.014723,-8.572375,188.495734,1175.620300,13.005014,0
0.086458,-71.633125,176.643543,-101.947511,-1.701146,1.807434,-4.239173,2.248799,-1.592977,4.238770,-2.305172,-0.032010,0.394817,-0.029590,-36.673153,188.420289,1175.968234,14.081939,0
0.087500,-127.194858,182.633499,-25.391979,-0.237437,3.223850,-4.157411,0.733277,-3.074160,4.117985,-0.873424,-0.028364,0.403843,-0.011006,-63.850749,188.495799,1175.818933,15.172188,0
0.088542,-162.179427,143.945435,41.199182,1.023605,4.093515,-3.266198,-0.898228,-3.867922,3.177585,0.794411,0.011744,0.404394,-0.014723,-79.995186,188.346534,1175.564726,15.952083,0
0.089585,-189.728645,69.458581,93.439218,2.081979,4.618250,-1.998877,-2.657315,-4.509768,1.926594,2.504132,0.081021,0.402741,-0.037023,-93.223718,188.495763,1175.777936,16.397452,0
0.090625,-170.394473,6.834188,146.955181,3.106575,4.148557,-0.637529,-3.407344,-4.023636,0.507366,3.254277,0.062790,0.428027,-0.003573,-81.560093,188.420245,1175.618710,15.947463,0
0.091667,-124.641075,-53.770064,184.175751,3.770874,3.326595,1.202131,-4.257892,-3.184299,-1.291472,4.027269,0.088314,0.413283,-0.018440,-59.110994,188.495727,1175.479639,15.997171,0
0.092708,-52.863949,-108.419596,187.468854,3.939764,1.950543,2.706564,-4.168971,-1.729701,-2.809916,3.924457,0.106545,0.406668,-0.018440,-23.073097,188.420377,1176.290993,15.431349,0
0.093750,11.195327,-161.189927,159.823801,3.365539,0.317628,3.785831,-3.631579,-0.085208,-3.866788,3.307587,0.073729,0.416728,-0.022156,8.866770,188.495627,1175.995116,15.147048,0
0.094792,71.695128,-176.411460,102.796006,2.262128,-1.370330,4.231437,-2.208845,1.646637,-4.224830,1.917724,0.066437,0.404257,-0.018440,37.068873,188.420307,1176.085341,15.282569,0
0.095833,127.720157,-182.542355,26.228322,0.843456,-2.849127,4.170115,-0.759047,3.097437,-4.181693,0.466937,0.015390,0.404463,-0.003573,63.661036,188.495741,1176.333033,15.361012,0
0.096875,162.388328,-144.218387,-40.751692,-0.485141,-3.623386,3.282990,0.833797,3.948168,-3.155017,-1.155204,0.015390,0.403981,-0.025873,79.557790,188.495674,1176.119119,15.111825,0
0.097917,189.587249,-69.966433,-93.344127,-1.475960,-4.203163,2.032022,2.585152,4.567226,-1.985988,-2.880156,-0.021072,0.405841,-0.011006,93.754538,188.495725,1176.701997,14.465976,0
0.098959,170.411275,-6.637339,-146.860089,-2.523075,-3.795851,0.633881,3.346779,4.069701,-0.566760,-3.618878,-0.079410,0.415005,-0.007290,79.602824,188.420321,1176.427470,13.806935,0
0.100000,124.691777,54.072618,-184.068508,-3.299967,-2.922517,-1.168986,4.216657,3.253151,1.292471,-4.429948,-0.079410,0.393577,0.015011,58.110682,188.495537,1176.695786,13.282971,0
0.101042,52.858152,108.393290,-187.373763,-3.367522,-1.590498,-2.685683,4.135469,1.817543,2.703071,-4.262403,-0.079410,0.439740,-0.022156,22.162851,188.495812,1176.698976,12.535314,0
0.102083,-11.494923,160.963955,-159.546435,-2.838335,0.097459,-3.781302,3.540085,0.192039,3.807394,-3.695035,-0.039302,0.411767,-0.018440,-8.820058,188.495725,1176.172586,12.741632,0
0.103125,-71.813924,176.396898,-101.971814,-1.689887,1.781747,-4.173763,2.179209,-1.577785,4.187005,-2.301364,-0.046595,0.402672,-0.018440,-36.526795,188.495689,1175.449775,12.940323,0
0.104167,-127.533856,182.598264,-24.820851,-0.248696,3.234859,-4.116529,0.694616,-3.039979,4.109357,-0.831537,0.015390,0.399847,-0.037023,-63.501741,188.495741,1175.011848,12.916850,0
0.105208,-162.122927,143.992415,41.964737,1.034864,4.034804,-3.245757,-0.898228,-3.852730,3.074054,0.840105,0.008098,0.399640,-0.029590,-78.193854,188.495568,1174.112428,11.879127,0
0.106250,-189.400947,68.671666,93.718707,2.036942,4.563208,-1.982524,-2.599324,-4.490779,1.874829,2.477477,0.059144,0.406186,-0.037023,-93.257493,188.495624,1173.319485,11.849402,0
0.107292,-170.462272,5.542236,146.857967,3.072797,4.148557,-0.653881,-3.380281,-3.981859,0.511680,3.208583,0.070083,0.413283,-0.018440,-78.768029,188.495745,1172.419036,12.316851,0
0.108333,-123.861380,-54.862350,184.114993,3.827171,3.311917,1.177602,-4.199900,-3.123533,-1.265590,4.015845,0.088314,0.403085,-0.025873,-57.343437,188.495394,1171.647325,12.538438,0
0.109375,-51.293260,-108.631007,187.869859,3.905986,1.968890,2.661594,-4.165105,-1.748691,-2.710700,3.882571,0.095606,0.398193,-0.003573,-22.127398,188.495788,1170.479152,13.904425,0
0.110417,12.811217,-160.955027,159.495706,3.410576,0.302950,3.744949,-3.534926,-0.119389,-3.840905,3.273316,0.102898,0.413007,0.022444,9.621078,188.495562,1169.737104,14.666982,0
0.111458,72.373123,-176.669850,101.702355,2.273387,-1.333635,4.161939,-2.235908,1.658031,-4.155810,1.917724,0.059144,0.391166,-0.018440,37.755631,188.420285,1169.001474,15.034802,0
