1-Time,2-VGERA,3-VGERB,4-VGERC,5-VN,6-IGERAN,7-IGERBN,8-IGERCN,9-IGERAT,10-IGERBT,11-IGERCT,12-IN,13-IFD,14-IFAULT,15-VFAULT,16-Speed (rad/s),17-Active Power,18-Reactive Power,19-FAULT 
0.000000,135.522648,-177.598478,14.821591,3.233418,-4.145710,5.256880,-0.542718,4.319136,-5.265617,0.624727,-0.154011,0.438679,-0.043161,90.878186,188.497430,1538.233262,31.991646,0
0.001041,183.456055,-129.117810,-45.475758,2.486958,-5.338603,4.109959,1.621476,5.488024,-4.145100,-1.534886,-0.088257,0.439332,-0.020755,117.954326,188.723250,1539.039024,33.793119,0
0.002084,191.214325,-54.494066,-102.338447,0.982728,-5.548069,2.224882,3.449848,5.734300,-2.344719,-3.320925,-0.048074,0.456709,-0.031958,116.416166,188.495997,1540.467032,35.625006,0
0.003136,164.740929,10.066285,-163.669887,-0.204822,-5.097184,0.192967,4.920007,5.278507,-0.271552,-4.712043,-0.048074,0.436981,-0.058098,93.626516,188.570826,1541.066739,36.832558,0
0.004166,113.960554,67.124395,-186.038258,-0.623292,-3.606067,-1.950068,5.296876,3.881722,1.856171,-5.167448,-0.018850,0.447237,-0.028224,58.836957,188.496623,1542.284657,37.760534,0
0.005208,37.410018,124.629498,-194.458713,-0.792942,-1.749272,-3.978015,5.289413,1.977683,3.908354,-5.185237,-0.029809,0.438614,-0.017021,15.858958,188.703080,1543.367250,38.435628,0
0.006249,-27.559824,165.934109,-155.655682,-0.103032,0.341842,-5.049532,4.155076,-0.080737,5.075034,-4.139230,-0.048074,0.457819,0.009119,-23.579011,188.568596,1544.677219,38.829486,0
0.007291,-77.773074,200.582141,-79.292993,1.412508,2.770232,-5.688474,2.334168,-2.547165,5.696145,-2.367422,-0.106522,0.431101,-0.043161,-53.516580,188.572508,1546.352275,39.090103,0
0.008333,-136.175609,177.688828,-15.782576,2.611368,4.261349,-5.128904,0.386393,-4.076277,5.209328,-0.517342,-0.113828,0.440377,-0.005818,-86.587020,188.512244,1547.361956,39.837601,0
0.009374,-184.006934,130.380008,45.093371,3.764988,5.454243,-3.981983,-1.811384,-5.267220,4.059435,1.624482,-0.172276,0.442272,0.005384,-112.170239,188.723599,1548.612258,39.733168,0
0.010416,-191.277477,56.106610,102.620834,4.895988,5.628206,-2.092937,-3.677069,-5.553929,2.204496,3.435426,-0.212459,0.445016,-0.017021,-111.141029,188.497643,1550.253662,39.794037,0
0.011458,-165.643425,-7.426864,163.262879,6.026988,5.262528,-0.068960,-5.065139,-5.087109,0.202674,4.822986,-0.227071,0.446714,-0.028224,-90.262770,188.571165,1551.727495,39.612082,0
0.012499,-114.987818,-66.442080,186.037501,6.411528,3.682654,2.141542,-5.520366,-3.642539,-1.962820,5.274833,-0.256295,0.443382,-0.054364,-52.985010,188.495812,1553.614906,39.171147,0
0.013551,-37.949555,-125.710995,194.544129,6.615108,1.818758,4.177425,-5.512903,-1.698067,-4.056969,5.239254,-0.245336,0.453312,-0.058098,-10.662991,188.722094,1554.098590,38.794895,0
0.014585,26.600615,-165.867920,155.371781,5.891268,-0.290107,5.233068,-4.277820,0.356677,-5.169093,4.214594,-0.227071,0.452724,-0.039427,28.311268,188.495935,1555.593959,38.539691,0
0.015624,77.403675,-200.950865,79.686174,4.420968,-2.739799,5.852167,-2.438254,2.841484,-5.773417,2.435671,-0.216112,0.442664,-0.031958,57.751197,188.571523,1556.512299,38.010298,0
0.016666,136.021718,-177.260212,15.929546,3.165558,-4.245117,5.248943,-0.505405,4.374272,-5.324371,0.567801,-0.113828,0.441096,-0.031958,90.663296,188.628861,1557.611245,37.013776,0
0.017708,184.125262,-130.180929,-44.921780,2.045868,-5.398958,4.102022,1.703566,5.550512,-4.136707,-1.584696,-0.077298,0.441227,-0.017021,116.789396,188.721817,1558.837199,35.823703,0
0.018749,190.953448,-55.774642,-102.720076,0.926178,-5.572921,2.149479,3.505818,5.752678,-2.264982,-3.367177,-0.055380,0.447563,-0.046895,115.692326,188.513955,1559.212281,34.244892,0
0.019791,165.398794,8.036693,-163.337500,-0.204822,-5.175290,0.165187,4.949858,5.359373,-0.288339,-4.772527,-0.044421,0.451025,-0.065566,93.705686,188.571198,1560.777536,33.669018,0
0.020833,114.470967,66.943181,-186.272160,-0.611982,-3.598967,-2.049283,5.352846,3.878046,1.927515,-5.235047,0.003068,0.459452,-0.054364,55.658847,188.495653,1562.044352,32.579889,0
0.021874,37.863718,124.955682,-194.852652,-0.826872,-1.742171,-4.073261,5.293144,1.974007,3.979697,-5.245720,-0.007891,0.456121,-0.054364,14.716648,188.721965,1563.574017,32.035613,0
0.022916,-27.378344,165.946190,-155.261743,-0.080412,0.405747,-5.081281,4.121494,-0.154252,5.096018,-4.128556,-0.059033,0.452332,-0.031958,-23.646871,188.495803,1563.698186,31.044807,0
0.023958,-77.761732,201.282834,-78.369697,1.401198,2.855439,-5.763877,2.308048,-2.591274,5.721325,-2.385212,-0.062686,0.441488,-0.050629,-52.849290,188.571096,1564.446335,31.061995,0
0.025008,-136.799447,176.384091,-13.775947,2.611368,4.343006,-5.140810,0.237138,-4.179198,5.217722,-0.403491,-0.102869,0.438352,-0.046895,-86.575710,188.495801,1564.973550,30.017720,0
0.026041,-184.426606,129.377293,45.487311,3.719748,5.532349,-3.974046,-1.919594,-5.296626,4.126582,1.692081,-0.175929,0.438548,-0.050629,-112.158929,188.721860,1565.978647,30.137260,0
0.027083,-191.266134,54.862277,102.411553,4.884678,5.670810,-2.037377,-3.777816,-5.587011,2.225480,3.506583,-0.183235,0.444232,-0.050629,-109.229639,188.556307,1566.731501,30.096263,0
0.028125,-165.416575,-8.779925,163.127463,6.015678,5.283829,-0.029274,-5.169617,-5.160624,0.177494,4.901259,-0.245336,0.459060,-0.065566,-89.075220,188.571558,1568.150933,30.256302,0
0.029166,-113.570006,-66.937397,186.320645,6.422838,3.721707,2.209007,-5.568874,-3.679296,-2.017377,5.388684,-0.263601,0.457362,-0.046895,-50.621220,188.509768,1569.816867,30.393454,0
0.030208,-36.837990,-124.696199,195.098107,6.615108,1.836509,4.244891,-5.531560,-1.727473,-4.166083,5.356663,-0.238030,0.461804,-0.039427,-10.414171,188.649883,1571.955602,30.259978,0
0.031250,27.757551,-165.831677,154.903978,5.857338,-0.361113,5.304503,-4.322596,0.452247,-5.194273,4.221710,-0.238030,0.429468,-0.054364,28.514848,188.571055,1572.318590,29.617476,0
0.032291,77.403675,-201.953580,77.839584,4.387038,-2.835657,5.931539,-2.434523,2.940730,-5.882531,2.442786,-0.197847,0.427051,-0.043161,58.814337,188.495776,1574.260193,29.272520,0
0.033333,135.658758,-177.103161,14.760038,3.176868,-4.348075,5.352126,-0.415852,4.502923,-5.349551,0.500202,-0.121134,0.436458,-0.043161,90.946046,188.495785,1575.413934,28.009066,0
0.034375,184.658360,-128.803706,-45.328030,2.023248,-5.526768,4.117896,1.767000,5.675488,-4.132510,-1.673642,-0.099216,0.437569,-0.073035,118.180526,188.721893,1576.916446,27.105473,0
0.035423,190.363638,-52.464474,-103.434091,0.903558,-5.636826,2.109793,3.703581,5.866627,-2.193638,-3.555743,-0.048074,0.434237,-0.061832,115.647086,188.571149,1578.746477,26.019458,0
0.036458,165.262684,9.860910,-163.091288,-0.170892,-5.224994,0.089784,5.058068,5.421861,-0.149848,-4.868589,-0.015197,0.440508,-0.020755,93.615206,188.495796,1580.255542,24.839700,0
0.037499,112.565427,67.329770,-186.838448,-0.645912,-3.641570,-2.168340,5.494638,3.925831,2.011448,-5.295530,-0.000585,0.401378,-0.028224,57.457137,188.705889,1581.481987,24.957978,0
0.038541,35.958178,125.136896,-195.320455,-0.804252,-1.720870,-4.208193,5.397623,1.937250,4.130778,-5.327551,-0.022503,0.432930,-0.043161,15.089878,188.721400,1583.539527,24.240695,0
0.039583,-28.024867,166.767691,-153.969129,-0.046482,0.469652,-5.275742,4.173733,-0.293930,5.209328,-4.167693,-0.037115,0.467683,-0.050629,-23.646871,188.570582,1585.275695,23.079179,0
0.040624,-77.455484,202.623814,-77.052462,1.457748,2.979699,-5.890872,2.322974,-2.730953,5.918569,-2.353191,-0.062686,0.435021,-0.031958,-53.245140,188.511866,1588.405181,21.701516,0
0.041666,-136.289034,176.649871,-14.477652,2.713158,4.474366,-5.220181,0.237138,-4.289471,5.272279,-0.396375,-0.110175,0.437177,-0.028224,-86.835840,188.495843,1589.947101,20.692614,0
0.042708,-185.288636,129.002785,45.401137,3.821538,5.677910,-3.962140,-2.005415,-5.487765,4.109795,1.813048,-0.194194,0.439202,-0.039427,-112.419059,188.646534,1592.509936,18.752165,0
0.043749,-190.835119,53.750834,102.596212,4.862058,5.816371,-1.973880,-3.949459,-5.693607,2.149939,3.677359,-0.245336,0.431036,-0.073035,-110.790419,188.571163,1594.370781,16.926110,0
0.044791,-165.961015,-9.637669,163.189016,6.015678,5.358385,0.069941,-5.311409,-5.256193,0.034806,5.068477,-0.219765,0.438679,-0.031958,-90.556830,188.495991,1597.269858,15.065563,0
0.045833,-112.288303,-66.804507,187.046970,6.445458,3.728808,2.324096,-5.710666,-3.668269,-2.160064,5.495419,-0.238030,0.465136,-0.020755,-51.627810,188.495785,1599.030406,13.621181,0
0.046889,-35.862535,-126.423768,194.925758,6.626418,1.754853,4.475069,-5.632307,-1.642931,-4.333951,5.442051,-0.259948,0.442860,-0.058098,-10.583821,188.646523,1601.420260,12.399061,0
0.047926,27.269823,-167.812945,152.417235,5.846028,-0.527976,5.494995,-4.318865,0.595601,-5.416698,4.235941,-0.219765,0.443317,-0.050629,28.085068,188.553922,1604.167899,10.581462,0
0.048958,76.791180,-202.811324,77.888826,4.443588,-3.048674,6.066471,-2.404672,3.124517,-6.029415,2.385861,-0.186888,0.440639,-0.035692,57.457137,188.495658,1606.812794,7.976933,0
0.049999,136.475418,-176.052122,15.843371,3.233418,-4.532690,5.395780,-0.300179,4.653629,-5.429288,0.404140,-0.135746,0.441292,-0.046895,91.681196,188.495788,1608.798943,6.126044,0
0.051041,185.531732,-129.178214,-44.687879,2.079798,-5.690081,4.137739,1.897598,5.833545,-4.208050,-1.769704,-0.084604,0.445734,-0.005818,116.970356,188.512934,1611.802174,4.978123,0
0.052083,190.431693,-54.699441,-102.830872,0.982728,-5.743335,2.097887,3.845373,5.943817,-2.189441,-3.648247,-0.059033,0.443905,-0.031958,115.692326,188.495609,1613.541797,3.271765,0
0.053124,166.136057,8.797790,-163.497538,-0.227442,-5.317301,-0.021337,5.218517,5.465970,-0.095291,-5.046481,-0.022503,0.455860,-0.054364,94.044986,188.495647,1616.230806,1.377991,0
0.054166,112.792277,66.496188,-187.453978,-0.645912,-3.630919,-2.295335,5.606579,3.878046,2.137349,-5.441402,-0.000585,0.457231,-0.039427,55.025487,188.495351,1618.332798,-0.947735,0
0.055208,37.965801,125.463080,-195.369698,-0.826872,-1.699568,-4.335187,5.468519,1.878438,4.269269,-5.391592,0.006721,0.451352,-0.046895,15.519658,188.721851,1620.364341,-3.154243,0
0.056249,-26.005902,167.323413,-153.661364,-0.057792,0.565510,-5.359082,4.166271,-0.352743,5.326836,-4.199713,-0.018850,0.451352,-0.020755,-22.470631,188.571165,1622.060145,-4.694267,0
0.057301,-77.682334,203.288264,-76.252273,1.412508,3.146562,-5.934527,2.199839,-2.922092,5.939553,-2.299823,-0.069992,0.438026,-0.046895,-52.928460,188.495685,1623.238781,-6.837011,0
0.058335,-137.457312,175.767965,-15.228599,2.600058,4.641229,-5.236056,0.072958,-4.454880,5.347819,-0.286082,-0.113828,0.444036,-0.024490,-87.457890,188.702986,1625.444268,-8.811684,0
0.059374,-186.627051,129.425617,44.637879,3.731058,5.780868,-4.005795,-2.117356,-5.623768,4.118188,1.901994,-0.212459,0.445016,-0.054364,-112.204169,188.719905,1627.806756,-10.389369,0
0.060416,-190.778407,55.103895,102.743940,4.850748,5.883826,-1.894508,-4.068863,-5.737716,2.116366,3.787653,-0.201500,0.447890,-0.054364,-109.252259,188.571563,1629.170125,-12.135439,0
0.061458,-166.596195,-8.779925,163.632197,5.970438,5.415190,0.165187,-5.434544,-5.281923,-0.040734,5.182328,-0.219765,0.462065,-0.046895,-89.855610,188.511413,1630.958181,-13.892251,0
0.062499,-112.367701,-66.224624,187.711743,6.422838,3.711056,2.482840,-5.815144,-3.653566,-2.264982,5.541671,-0.259948,0.458407,-0.031958,-49.716420,188.496136,1632.051567,-15.423274,0
0.063541,-37.847472,-125.288163,195.602842,6.592488,1.740652,4.518723,-5.654695,-1.617201,-4.401098,5.538113,-0.227071,0.454945,-0.043161,-11.115391,188.646819,1633.766976,-17.037639,0
0.064583,25.852010,-167.535085,153.045076,5.846028,-0.542177,5.586272,-4.386029,0.573547,-5.492238,4.260846,-0.219765,0.452136,-0.058098,27.519568,188.571382,1634.806656,-17.639630,0
0.065624,76.552988,-203.548259,76.977841,4.375728,-3.087727,6.082345,-2.393478,3.198032,-6.083972,2.400092,-0.205153,0.434172,-0.046895,58.395867,188.496029,1636.032818,-18.017996,0
0.066666,136.702268,-175.774261,15.203220,3.176868,-4.628547,5.411655,-0.169581,4.745523,-5.467058,0.293847,-0.132093,0.439463,-0.061832,91.986566,188.571437,1637.071508,-19.470112,0
0.067708,186.382420,-128.525846,-44.663258,2.034558,-5.764636,4.109959,1.990882,5.918087,-4.187067,-1.904902,-0.080951,0.440247,-0.054364,118.429346,188.646766,1638.400664,-21.189799,0
0.068760,190.023363,-51.836267,-104.283523,0.926178,-5.839192,2.018515,3.998359,6.032035,-2.076130,-3.790561,-0.066339,0.445081,-0.028224,115.285166,188.556063,1639.755949,-22.243423,0
0.069791,166.351564,10.368308,-163.226705,-0.182202,-5.381206,-0.108645,5.322995,5.484349,0.013823,-5.192353,0.017680,0.467030,-0.065566,94.112846,188.495504,1641.451640,-23.756527,0
0.070833,111.000162,66.592835,-188.414205,-0.668532,-3.606067,-2.406456,5.752103,3.867019,2.267447,-5.558811,-0.004238,0.465985,-0.035692,56.020767,188.571136,1643.281659,-24.843756,0
0.071875,36.230398,125.583889,-195.751326,-0.849492,-1.656965,-4.470119,5.528221,1.849032,4.378383,-5.448518,-0.026156,0.448543,-0.058098,15.293458,188.513185,1644.726291,-25.263241,0
0.072916,-26.618397,168.761040,-151.851705,-0.001242,0.686219,-5.501951,4.184927,-0.426258,5.482113,-4.199713,-0.037115,0.441684,-0.024490,-22.877791,188.571811,1646.559262,-25.908999,0
0.073958,-76.559427,204.206413,-75.895265,1.457748,3.238869,-5.986118,2.207301,-3.021337,6.048667,-2.250013,-0.095563,0.433192,-0.024490,-52.815360,188.495083,1648.194649,-27.655610,0
0.075000,-137.287174,175.550508,-14.354545,2.577438,4.832944,-5.323365,-0.024058,-4.579855,5.385589,-0.179347,-0.110175,0.436262,-0.035692,-87.729330,188.570781,1649.445259,-29.316197,0
0.076041,-186.593024,128.277931,45.327273,3.764988,5.940631,-4.021669,-2.221835,-5.745068,4.109795,2.005171,-0.190541,0.439594,-0.024490,-112.532159,188.646125,1650.828862,-30.401117,0
0.077083,-190.574242,52.397773,103.162500,4.873368,5.969033,-1.846885,-4.195729,-5.825934,2.019842,3.915735,-0.227071,0.427378,-0.058098,-110.552909,188.570640,1652.018951,-31.459587,0
0.078124,-166.913786,-10.990731,162.807387,6.026988,5.511047,0.248527,-5.602456,-5.300302,-0.145652,5.317527,-0.230724,0.425549,-0.039427,-90.828270,188.495309,1653.473918,-32.717881,0
0.079175,-108.454538,-67.239420,189.496781,6.502008,3.682654,2.685238,-5.975593,-3.613133,-2.474816,5.673311,-0.274560,0.436719,-0.031958,-48.472320,188.707786,1655.577345,-33.983654,0
0.080208,-35.760452,-125.288163,195.885985,6.649038,1.680297,4.657624,-5.766636,-1.562064,-4.552179,5.566576,-0.252642,0.423589,-0.024490,-10.629061,188.645987,1656.881404,-34.998337,0
0.081250,26.577930,-169.008955,151.321591,5.778168,-0.669987,5.693424,-4.363641,0.727928,-5.613942,4.289309,-0.208806,0.444232,-0.043161,27.417778,188.570573,1658.781466,-36.182493,0
0.082291,76.246740,-204.273114,75.574432,4.375728,-3.187134,6.201403,-2.378552,3.297277,-6.180496,2.339609,-0.179582,0.439855,-0.020755,57.174387,188.495142,1660.130248,-37.423017,0
0.083333,137.019858,-175.194378,14.439962,3.222108,-4.774109,5.479121,-0.169581,4.892553,-5.483845,0.268942,-0.124787,0.442599,-0.043161,92.642546,188.583718,1661.499132,-38.241874,0
0.084374,186.359735,-127.813072,-45.081818,2.034558,-5.874695,4.109959,2.087898,6.013657,-4.245821,-1.965386,-0.062686,0.444036,-0.054364,116.597126,188.570635,1663.087679,-38.389866,0
0.085416,190.386323,-52.053723,-103.040152,0.960108,-5.913748,1.982798,4.035673,6.127605,-2.088720,-3.879507,-0.055380,0.433388,-0.031958,115.816736,188.570662,1664.746651,-39.357995,0
0.086458,166.464989,11.177728,-162.931250,-0.159582,-5.409609,-0.124520,5.412548,5.546836,0.085166,-5.256394,-0.015197,0.445081,-0.031958,93.897956,188.495264,1666.003039,-39.964012,0
0.087499,109.593692,66.544511,-189.214395,-0.702462,-3.620268,-2.501702,5.811805,3.889073,2.368167,-5.658431,-0.026156,0.457623,-0.035692,53.623047,188.495289,1667.748226,-40.561671,0
0.088541,35.754013,125.825507,-195.677463,-0.872112,-1.603710,-4.529648,5.621505,1.797571,4.470710,-5.516117,-0.007891,0.462915,-0.035692,15.202978,188.570600,1669.129967,-41.415055,0
0.089592,-26.890617,170.524852,-149.931250,0.043998,0.796278,-5.664663,4.211047,-0.562260,5.557654,-4.217503,-0.051727,0.452397,-0.035692,-22.459321,188.555323,1670.440458,-42.350112,0
0.090625,-76.548084,204.411788,-76.006061,1.457748,3.270822,-6.093270,2.222227,-3.061770,6.120011,-2.267803,-0.088257,0.443709,-0.054364,-52.204620,188.495287,1671.699630,-42.593385,0
0.091666,-137.797587,175.260567,-15.031629,2.645298,4.836494,-5.323365,-0.016595,-4.590882,5.427556,-0.150884,-0.128440,0.440769,-0.024490,-88.396620,188.570635,1672.271026,-42.881762,0
0.092708,-187.216861,128.495387,44.797917,3.787608,5.944181,-3.989920,-2.244223,-5.781825,4.122385,2.030076,-0.139399,0.447106,-0.039427,-111.966659,188.570653,1673.080404,-43.343544,0
0.093749,-190.551557,53.533378,103.285606,4.873368,6.029388,-1.862760,-4.255431,-5.862692,1.977875,3.958429,-0.205153,0.442533,-0.024490,-109.433219,188.508491,1673.810423,-44.511652,0
0.094791,-167.061238,-9.625588,163.509091,6.026988,5.493296,0.264401,-5.632307,-5.414250,-0.166635,5.360221,-0.252642,0.456121,-0.046895,-90.285390,188.495736,1675.662921,-44.789627,0
0.095833,-110.552901,-65.922601,188.905872,6.502008,3.732358,2.617772,-6.016638,-3.657242,-2.441243,5.687543,-0.245336,0.454684,-0.031958,-49.150920,188.571111,1676.062763,-45.141742,0
0.096874,-37.359745,-125.662671,195.676705,6.660348,1.712249,4.661592,-5.774099,-1.587795,-4.539589,5.598597,-0.238030,0.456578,-0.039427,-11.386831,188.495707,1676.596793,-45.118663,0
0.097916,25.228173,-169.057279,151.530872,5.766858,-0.723241,5.721204,-4.367372,0.709549,-5.647516,4.314214,-0.238030,0.452659,-0.054364,26.920138,188.542665,1677.179472,-45.427232,0
0.098958,76.076603,-204.019415,76.793182,4.364418,-3.201336,6.229183,-2.330044,3.334035,-6.214069,2.332493,-0.197847,0.443905,-0.073035,58.237527,188.489347,1677.795679,-46.315698,0
0.100010,138.687205,-174.070854,14.132197,3.188178,-4.834464,5.427529,-0.035252,4.907256,-5.467058,0.187112,-0.110175,0.443513,-0.050629,93.909266,188.581937,1677.746513,-46.772022,0
0.101042,187.028942,-128.670816,-44.466288,2.057178,-5.878245,4.161551,2.140137,6.054090,-4.195460,-2.011638,-0.077298,0.446191,-0.069301,118.338866,188.512726,1678.330354,-48.222483,0
0.102083,190.284240,-53.926263,-103.274053,0.914868,-5.942150,1.974861,4.132688,6.149659,-2.101311,-3.922201,-0.026156,0.439724,-0.058098,115.500056,188.571605,1679.215780,-49.044939,0
0.103124,167.077484,9.570968,-163.177463,-0.216132,-5.391857,-0.176111,5.487176,5.590945,0.118740,-5.313319,-0.033462,0.459191,-0.035692,94.542626,188.496203,1680.520373,-50.199489,0
0.104166,110.523777,65.855900,-189.349811,-0.702462,-3.606067,-2.565199,5.852850,3.841288,2.405938,-5.686893,0.006721,0.461281,-0.035692,55.738017,188.712057,1680.852617,-51.596654,0
0.105208,37.398676,125.644294,-195.603599,-0.860802,-1.593060,-4.569334,5.621505,1.775517,4.529464,-5.530348,0.010374,0.460759,-0.031958,15.938128,188.496163,1681.537926,-52.918655,0
0.106249,-25.143872,169.981212,-150.903788,-0.012552,0.838881,-5.672600,4.188659,-0.569612,5.570244,-4.196156,-0.022503,0.449262,-0.024490,-22.165261,188.571616,1681.473169,-54.192120,0
0.107291,-76.060357,204.266817,-76.042993,1.389888,3.345377,-6.093270,2.140137,-3.113231,6.136797,-2.217993,-0.073645,0.442795,-0.058098,-52.713570,188.496116,1681.533102,-55.392250,0
0.108333,-138.183232,175.091434,-14.933144,2.588748,4.911050,-5.351145,-0.139730,-4.712182,5.431753,-0.101074,-0.110175,0.440965,-0.046895,-88.453170,188.646987,1682.671229,-56.669490,0
0.109374,-186.955984,128.314174,45.019508,3.776298,5.933530,-3.966109,-2.300193,-5.792853,4.122385,2.104791,-0.161317,0.441292,-0.039427,-112.577399,188.515781,1682.915797,-57.451747,0
0.110416,-190.608269,53.074303,103.322538,4.918608,6.047139,-1.807199,-4.300208,-5.877395,2.007252,4.026028,-0.227071,0.434564,-0.069301,-110.586839,188.499697,1683.669725,-57.566691,0
