1-Time,2-VGERA,3-VGERB,4-VGERC,5-VN,6-IGERAN,7-IGERBN,8-IGERCN,9-IGERAT,10-IGERBT,11-IGERCT,12-IN,13-IFD,14-IFAULT,15-VFAULT,16-Speed (rad/s),17-Active Power,18-Reactive Power,19-FAULT 
0.000000,-153.223387,174.209528,2.966477,2.894118,2.841238,-6.418694,2.927456,-2.804468,6.501910,-2.972256,-0.055380,0.597092,-0.039427,-126.047609,188.420251,1586.422452,911.242228,0
0.001042,-184.721511,124.919440,71.918182,4.228698,5.021109,-5.847218,0.315497,-4.921700,6.002503,-0.417722,-0.091910,0.587881,-0.039427,-163.721218,188.495626,1587.332456,911.029110,0
0.002083,-190.018459,41.826982,126.675758,5.257908,6.100393,-4.454245,-1.971833,-6.097940,4.638578,1.798816,-0.186888,0.563515,-0.024490,-173.651398,188.495622,1587.582331,910.185263,0
0.003125,-160.630040,-29.063763,173.012879,6.185328,6.590332,-2.422330,-4.229312,-6.539030,2.619969,3.990450,-0.205153,0.603167,-0.050629,-164.309338,188.269519,1588.752444,909.177536,0
0.004167,-107.138808,-96.318156,182.725948,6.388908,5.756016,0.232653,-5.826338,-5.800204,0.013823,5.566576,-0.230724,0.601077,-0.050629,-116.456729,188.420327,1589.417133,908.007362,0
0.005208,-23.737402,-144.122293,190.235417,6.558558,4.261349,2.681269,-6.494253,-4.315201,-2.399276,6.267472,-0.241683,0.598791,-0.031958,-45.452551,188.495743,1589.760395,907.947322,0
0.006250,51.746939,-170.857333,152.983523,5.812098,2.070828,4.673498,-6.035295,-2.161212,-4.405295,5.947266,-0.248989,0.596504,-0.054364,22.475308,188.495604,1589.988464,908.090990,0
0.007292,106.213626,-198.679655,68.421970,4.228698,-0.616733,6.272837,-4.942003,0.544141,-6.121742,4.830102,-0.212459,0.597288,-0.031958,79.206267,188.269489,1590.492941,907.110868,0
0.008333,152.434316,-173.768831,-3.828977,2.894118,-2.718498,6.554607,-3.121095,2.672400,-6.474264,3.143682,-0.161317,0.597288,-0.058098,128.438696,188.420269,1590.574590,906.999409,0
0.009375,184.352112,-124.937817,-71.537311,1.616088,-4.877067,6.034722,-0.483016,4.793308,-5.932891,0.599822,-0.139399,0.591409,-0.039427,169.867225,188.471165,1590.581479,906.358244,0
0.010417,189.524293,-43.343391,-126.775000,0.552948,-5.984754,4.637781,1.793119,6.006305,-4.682277,-1.623832,-0.080951,0.598399,-0.065566,179.084875,188.476804,1590.698798,906.282122,0
0.011458,160.442121,27.909780,-173.099811,-0.329232,-6.432089,2.578086,4.035673,6.406962,-2.659471,-3.797677,-0.033462,0.604670,-0.043161,169.573165,188.269012,1591.508558,905.370867,0
0.012500,106.633299,96.710529,-182.517425,-0.555432,-5.661678,-0.053085,5.621505,5.708569,-0.078505,-5.373803,0.003068,0.593238,-0.058098,120.352046,188.438647,1590.498771,904.568560,0
0.013542,21.632600,144.442180,-190.211554,-0.691152,-4.195413,-2.477890,6.375242,4.260324,2.363971,-6.099604,0.010374,0.589972,-0.065566,48.035907,188.516465,1590.229417,905.174042,0
0.014583,-53.035081,170.826875,-153.181250,-0.023862,-1.994241,-4.434402,5.934940,2.128389,4.420350,-5.768724,0.010374,0.586052,-0.028224,-16.589431,188.496103,1590.041417,905.215291,0
0.015625,-106.639738,198.214284,-69.210606,1.604778,0.664917,-6.132956,4.789409,-0.595342,6.073847,-4.708485,0.021333,0.601142,-0.028224,-73.252530,188.269008,1588.479384,906.099376,0
0.016667,-153.098620,174.161204,2.806439,2.916738,2.780883,-6.355196,2.972232,-2.749332,6.506106,-2.993603,-0.077298,0.602449,0.005384,-124.532069,188.495168,1587.961050,906.628282,0
0.017708,-184.608086,125.076491,71.721212,4.240008,4.996257,-5.843249,0.386393,-4.855536,5.964733,-0.481764,-0.128440,0.589253,-0.058098,-164.015278,188.495195,1586.661312,906.992392,0
0.018750,-190.222624,42.406865,126.626516,5.280528,6.018737,-4.474088,-1.893474,-6.101616,4.667955,1.731217,-0.110175,0.612117,-0.046895,-173.832358,188.495255,1586.479716,907.774842,0
0.019792,-160.210368,-29.220815,172.902084,6.196638,6.505125,-2.469953,-4.147222,-6.491245,2.699706,3.940640,-0.223418,0.597092,-0.050629,-163.472398,188.269080,1585.136016,908.671339,0
0.020833,-106.900615,-96.487288,182.639773,6.388908,5.738265,0.117564,-5.703203,-5.825934,0.076773,5.506093,-0.205153,0.596243,-0.046895,-116.411489,188.495253,1584.085451,909.701124,0
0.021875,-23.431154,-144.098131,190.013826,6.524628,4.314603,2.597929,-6.479328,-4.344607,-2.369899,6.253240,-0.241683,0.605780,-0.020755,-45.701371,188.495307,1583.536739,910.275976,0
0.022917,51.576802,-170.796929,153.414394,5.812098,2.120531,4.550472,-6.057683,-2.245754,-4.367525,5.940150,-0.208806,0.610222,-0.043161,22.124698,188.495255,1582.977421,911.189379,0
0.023958,106.497189,-198.039367,68.988258,4.217388,-0.542177,6.280774,-4.938272,0.452247,-6.071382,4.865680,-0.223418,0.603625,-0.028224,78.380637,188.268984,1581.856472,912.271036,0
0.025000,152.570426,-174.034611,-4.296780,2.894118,-2.658143,6.582387,-3.139752,2.631967,-6.461674,3.129451,-0.172276,0.596504,-0.031958,128.257736,188.495347,1581.357904,912.490439,0
0.026042,184.181975,-124.406257,-72.115909,1.548228,-4.816712,6.074408,-0.568838,4.767577,-5.987448,0.670979,-0.106522,0.593499,-0.031958,170.398795,188.495188,1580.876413,914.107688,0
0.027083,189.705773,-42.775589,-126.824243,0.507708,-5.952801,4.697310,1.770731,5.998954,-4.707457,-1.549118,-0.069992,0.594087,-0.069301,178.406275,188.495237,1580.160851,915.231315,0
0.028125,160.101846,28.042670,-173.235228,-0.385782,-6.442740,2.637615,4.061792,6.403286,-2.697241,-3.794119,-0.033462,0.603690,-0.024490,168.702295,188.268890,1579.906875,915.769829,0
0.029167,107.200424,96.589720,-182.554357,-0.521502,-5.661678,-0.033242,5.651356,5.737975,-0.078505,-5.348898,-0.004238,0.605846,-0.065566,121.222916,188.495110,1580.011136,915.932749,0
0.030208,22.313150,144.502585,-190.186932,-0.702462,-4.202514,-2.426298,6.360316,4.252972,2.384954,-6.131624,0.003068,0.588469,-0.069301,47.741847,188.495133,1580.735429,915.647693,0
0.031250,-53.205218,171.153059,-152.836553,0.021378,-2.026193,-4.442339,5.934940,2.095307,4.470710,-5.825649,0.054210,0.605258,-0.039427,-18.048421,188.495193,1581.841939,915.771194,0
0.032292,-106.787190,198.407579,-68.508902,1.627398,0.725272,-6.160736,4.804335,-0.617397,6.145191,-4.712043,-0.037115,0.599575,-0.046895,-73.931130,188.269060,1582.723296,915.958455,0
0.033333,-153.280100,173.883344,3.077273,2.950668,2.837688,-6.422662,2.953575,-2.760359,6.518696,-2.997161,-0.062686,0.599901,-0.046895,-126.398219,188.495229,1582.835261,916.160667,0
0.034375,-184.812251,125.161058,71.844318,4.262628,5.017559,-5.863092,0.330422,-4.932727,6.015093,-0.456859,-0.121134,0.592781,-0.020755,-163.675978,188.495115,1584.309481,916.293002,0
0.035417,-189.791609,42.431027,127.143561,5.291838,6.100393,-4.462182,-1.968102,-6.131022,4.659562,1.813048,-0.157664,0.598137,-0.035692,-173.606158,188.495372,1585.201691,915.690365,0
0.036458,-160.323793,-29.812779,172.902084,6.196638,6.529977,-2.430267,-4.221849,-6.476542,2.682919,3.965545,-0.190541,0.565736,-0.039427,-163.924798,188.268943,1585.306370,915.486180,0
0.037500,-105.970530,-97.115495,182.713637,6.377598,5.748916,0.212810,-5.815144,-5.778150,0.055790,5.530997,-0.201500,0.564756,-0.043161,-115.597169,188.495318,1585.111781,915.210931,0
0.038542,-22.637179,-144.231021,190.383145,6.558558,4.275550,2.637615,-6.509179,-4.326228,-2.390882,6.263914,-0.267254,0.604866,-0.024490,-45.271591,188.495142,1585.343171,915.191133,0
0.039583,51.849022,-170.941900,152.995834,5.789478,2.053076,4.641749,-6.072608,-2.164887,-4.464049,5.933034,-0.234377,0.609047,-0.043161,22.068148,188.495072,1586.461676,914.075959,0
0.040625,106.417791,-198.438037,69.012879,4.240008,-0.581230,6.296649,-4.956929,0.525762,-6.096562,4.876354,-0.223418,0.601992,-0.024490,79.432467,188.344381,1587.476162,913.545821,0
0.041667,152.876673,-173.454728,-3.952083,2.860188,-2.697196,6.582387,-3.087513,2.709157,-6.499445,3.157914,-0.179582,0.597419,-0.069301,128.676206,188.495285,1588.539037,913.614571,0
0.042708,184.442852,-124.080073,-72.337500,1.559538,-4.880617,6.026785,-0.501673,4.808011,-5.987448,0.603380,-0.099216,0.587293,-0.043161,169.946395,188.419927,1589.252500,912.980378,0
0.043750,189.376840,-41.809117,-126.910417,0.564258,-5.938600,4.677467,1.800582,5.980575,-4.665490,-1.627390,-0.073645,0.598921,-0.017021,178.983085,188.495322,1589.155426,912.028568,0
0.044792,160.147216,28.791686,-173.136743,-0.340542,-6.432089,2.653489,4.024479,6.392259,-2.676257,-3.801235,0.010374,0.608263,-0.046895,169.448755,188.344439,1589.030151,911.917850,0
0.045833,106.905519,96.831338,-182.505114,-0.544122,-5.682980,-0.009431,5.643893,5.704894,-0.095291,-5.341782,-0.011544,0.611725,-0.046895,120.883616,188.495095,1588.513087,911.902652,0
0.046875,22.676110,144.611313,-190.076137,-0.725082,-4.174112,-2.477890,6.349122,4.201512,2.342987,-6.128066,0.035945,0.607087,-0.050629,48.103767,188.495151,1588.047425,911.520173,0
0.047917,-53.261931,170.923522,-152.602652,-0.001242,-1.997791,-4.430433,5.938671,2.146768,4.378383,-5.754492,0.006721,0.598007,-0.061832,-17.358511,188.495195,1586.065417,911.800858,0
0.048958,-106.741820,198.697520,-68.053409,1.627398,0.732373,-6.117081,4.781947,-0.628424,6.044470,-4.694254,-0.018850,0.597941,-0.028224,-73.444800,188.419771,1584.828826,911.491979,0
0.050000,-152.917140,173.907505,3.569697,2.995908,2.791534,-6.434568,2.975964,-2.716250,6.476730,-2.965141,-0.055380,0.599966,-0.013287,-124.713029,188.495180,1583.792205,911.173333,0
0.051042,-184.630771,125.100653,71.684281,4.273938,4.992707,-5.874998,0.345348,-4.888618,5.956340,-0.463974,-0.077298,0.593761,-0.024490,-164.094448,188.495246,1582.739620,910.684312,0
0.052083,-189.927719,43.143800,127.082008,5.314458,6.057790,-4.466151,-1.882280,-6.101616,4.701529,1.734775,-0.150358,0.599117,-0.028224,-173.617468,188.495117,1582.136926,911.564663,0
0.053125,-160.414533,-28.955035,173.123675,6.140088,6.501575,-2.497733,-4.136027,-6.524327,2.657739,3.937082,-0.197847,0.591017,-0.046895,-163.472398,188.344551,1582.551553,911.479447,0
0.054167,-106.129325,-97.067172,182.652084,6.377598,5.780868,0.173124,-5.747979,-5.800204,0.122937,5.502535,-0.238030,0.593826,-0.024490,-115.325729,188.495227,1581.989877,912.351046,0
0.055208,-21.718437,-144.412234,190.173864,6.569868,4.328805,2.582054,-6.524104,-4.340931,-2.357309,6.231893,-0.241683,0.595786,-0.050629,-44.581681,188.495320,1581.045231,912.969070,0
0.056250,52.370777,-170.833171,153.032766,5.868648,2.156034,4.610001,-6.083803,-2.227375,-4.417885,5.961497,-0.252642,0.611398,-0.031958,22.124698,188.495206,1580.507034,914.239930,0
0.057292,106.803436,-198.256824,69.099053,4.262628,-0.574130,6.256963,-4.953198,0.477977,-6.142726,4.847891,-0.208806,0.607218,-0.035692,78.572907,188.419813,1580.554224,914.559139,0
0.058333,153.080838,-173.672184,-3.558144,2.894118,-2.679445,6.598261,-3.098707,2.654021,-6.499445,3.193492,-0.190541,0.600032,-0.009553,128.585726,188.495220,1580.204179,915.275456,0
0.059375,184.556277,-124.043830,-72.485227,1.536918,-4.873517,6.038691,-0.527793,4.800659,-5.995841,0.628285,-0.128440,0.591082,-0.024490,170.636305,188.495012,1580.086009,915.740407,0
0.060417,189.603690,-41.241314,-126.984281,0.541638,-5.998955,4.685404,1.752074,6.006305,-4.686473,-1.577580,-0.099216,0.593565,-0.054364,178.530685,188.495162,1579.965242,916.702123,0
0.061458,160.113189,29.480298,-173.099811,-0.317922,-6.467592,2.589992,4.058061,6.462098,-2.688848,-3.783445,-0.026156,0.599509,-0.061832,168.747535,188.419791,1580.290980,917.668023,0
0.062508,105.827981,98.051509,-182.603599,-0.532812,-5.651028,-0.068960,5.729715,5.756354,-0.032341,-5.455633,0.014027,0.609700,-0.035692,120.171086,188.495399,1581.986668,918.203167,0
0.063553,21.473805,145.686514,-189.891478,-0.725082,-4.174112,-2.541387,6.416287,4.194160,2.489871,-6.167203,0.003068,0.613031,-0.061832,46.373337,188.495247,1583.565088,917.965355,0
0.064584,-52.762861,171.479244,-152.368750,0.021378,-1.944537,-4.505836,5.927477,2.084280,4.500087,-5.811418,0.010374,0.610941,-0.031958,-18.331171,188.495162,1585.771846,917.324170,0
0.065625,-106.821218,199.096190,-67.277841,1.627398,0.728822,-6.168673,4.793141,-0.650478,6.124207,-4.697812,-0.018850,0.595982,-0.009553,-74.168640,188.419771,1586.808045,917.552005,0
0.066667,-153.280100,173.520916,4.296023,2.995908,2.887392,-6.450442,2.923724,-2.848577,6.543877,-2.947351,-0.044421,0.599901,-0.065566,-126.601799,188.495278,1588.612481,917.281548,0
0.067708,-185.118499,124.581174,72.299811,4.262628,5.063712,-5.918652,0.263258,-4.984188,6.010897,-0.396375,-0.110175,0.593042,-0.028224,-163.755148,188.495238,1590.355758,917.300605,0
0.068750,-189.598786,42.998830,127.574432,5.314458,6.171399,-4.462182,-2.035266,-6.156752,4.701529,1.845068,-0.128440,0.597288,-0.028224,-173.594848,188.495208,1591.797485,916.673187,0
0.069792,-161.095083,-28.991277,173.111364,6.174018,6.615184,-2.374707,-4.315133,-6.601518,2.678723,4.054491,-0.212459,0.610484,-0.043161,-164.320648,188.495284,1594.070873,916.882042,0
0.070833,-105.970530,-97.332951,182.959849,6.388908,5.798620,0.288213,-5.841264,-5.844313,-0.023948,5.595039,-0.227071,0.626488,-0.054364,-114.737609,188.495151,1596.374246,915.966497,0
0.071875,-21.208024,-144.448477,190.715531,6.569868,4.272000,2.693175,-6.561418,-4.274768,-2.499996,6.342187,-0.267254,0.589449,-0.013287,-43.914391,188.495246,1598.911881,914.810149,0
0.072917,52.869847,-171.074789,152.367993,5.823408,2.063727,4.705247,-6.098728,-2.113427,-4.497622,5.943708,-0.234377,0.595786,-0.028224,22.452688,188.495170,1599.745669,913.424701,0
0.073958,106.610614,-199.066244,68.360417,4.251318,-0.659336,6.336335,-4.945735,0.566195,-6.163709,4.851449,-0.227071,0.608067,-0.035692,79.658667,188.495197,1600.702783,912.877116,0
0.075000,153.591251,-172.971491,-3.373485,2.871498,-2.764651,6.630010,-3.035273,2.687103,-6.507838,3.133009,-0.208806,0.600424,-0.035692,129.275636,188.495276,1600.948458,912.110743,0
0.076042,185.112060,-124.116316,-72.559091,1.502988,-4.948072,6.042659,-0.468091,4.896229,-6.008432,0.557128,-0.117481,0.587620,-0.050629,170.353555,188.495303,1602.669125,911.414355,0
0.077083,189.115963,-40.866806,-127.181250,0.496398,-6.009606,4.578252,1.860284,6.050414,-4.690670,-1.670084,-0.099216,0.582982,-0.043161,179.084875,188.495151,1603.688893,910.897978,0
0.078125,160.340039,30.507175,-172.939773,-0.340542,-6.428538,2.617772,4.114031,6.447395,-2.609110,-3.840371,-0.055380,0.607544,-0.031958,169.426135,188.570658,1604.179783,909.904574,0
0.079167,105.759926,97.423302,-182.492804,-0.532812,-5.690081,-0.080865,5.699864,5.730624,-0.049128,-5.427171,0.003068,0.604866,-0.054364,120.385976,188.495151,1603.516449,909.561047,0
0.080208,22.574028,144.840850,-190.150001,-0.713772,-4.198964,-2.545356,6.401361,4.223566,2.468888,-6.195665,0.021333,0.609112,-0.054364,48.782367,188.495054,1603.956014,909.536778,0
0.081250,-52.399900,171.153059,-152.393372,-0.001242,-1.937437,-4.482025,5.890163,2.029144,4.462317,-5.825649,0.010374,0.606172,-0.058098,-16.860871,188.495309,1603.755487,908.899109,0
0.082292,-106.707793,199.144514,-67.462500,1.616088,0.746574,-6.125019,4.778215,-0.635775,6.149388,-4.683581,-0.022503,0.598529,-0.046895,-73.523970,188.570631,1603.954206,908.837758,0
0.083333,-153.212045,173.436350,4.837689,2.984598,2.851889,-6.434568,2.957307,-2.800792,6.501910,-2.965141,-0.044421,0.594806,-0.031958,-124.961849,188.495372,1602.892354,909.264412,0
0.084375,-185.016416,124.073776,72.521402,4.262628,5.035310,-5.890872,0.315497,-4.940079,6.031880,-0.417722,-0.124787,0.590429,-0.024490,-164.286718,188.496197,1602.203280,909.923219,0
0.085417,-189.621471,42.624321,127.328220,5.314458,6.135896,-4.466151,-1.964370,-6.149400,4.697332,1.795258,-0.168623,0.598921,-0.009553,-173.572228,188.495282,1601.561096,910.305959,0
0.086459,-160.652725,-28.846307,173.492993,6.174018,6.611633,-2.402487,-4.244237,-6.568436,2.670329,4.004681,-0.219765,0.608655,-0.028224,-163.800388,188.646089,1600.643979,910.290096,0
0.087500,-106.685108,-97.006767,182.812122,6.400218,5.759567,0.224716,-5.818875,-5.814907,0.085166,5.555902,-0.223418,0.600554,-0.024490,-115.065599,188.495260,1599.552572,910.848885,0
0.088542,-21.423532,-144.520962,190.407766,6.569868,4.296852,2.677300,-6.539030,-4.271092,-2.390882,6.271030,-0.289172,0.567043,-0.054364,-43.495921,188.481447,1597.666018,911.247079,0
0.089583,53.255492,-170.929819,152.417235,5.823408,2.060177,4.653655,-6.094997,-2.190618,-4.455655,5.908129,-0.259948,0.599966,-0.054364,22.769368,188.495754,1596.590637,912.078180,0
0.090625,106.780751,-198.860869,67.966477,4.240008,-0.606082,6.352209,-4.949466,0.533113,-6.172103,4.890585,-0.219765,0.606107,-0.028224,78.652077,188.646590,1596.459175,912.973823,0
0.091667,153.398429,-173.333919,-3.238068,2.882808,-2.761101,6.598261,-3.109901,2.698130,-6.554002,3.165029,-0.186888,0.607022,-0.054364,129.072056,188.495655,1597.197578,913.448780,0
0.092708,185.236827,-124.551228,-72.177462,1.548228,-4.948072,6.042659,-0.471822,4.874174,-5.974858,0.614053,-0.121134,0.591736,-0.020755,170.851195,188.495736,1596.660799,913.632060,0
0.093750,189.365498,-41.386285,-127.378220,0.552948,-5.967002,4.657624,1.841627,6.065117,-4.711653,-1.630948,-0.095563,0.569982,-0.046895,178.361035,188.495712,1596.842030,914.211266,0
0.094791,160.033791,30.893764,-172.927463,-0.340542,-6.460491,2.582054,4.099106,6.495180,-2.667864,-3.854602,-0.026156,0.563842,-0.046895,168.476095,188.646458,1597.184786,915.322658,0
0.095833,105.181459,97.749486,-182.837501,-0.532812,-5.693631,-0.108645,5.696132,5.749003,-0.007161,-5.462749,0.014027,0.595655,-0.017021,120.465146,188.495749,1597.882325,915.363652,0
0.096875,21.791395,144.985821,-190.162311,-0.725082,-4.202514,-2.525513,6.453600,4.245621,2.468888,-6.241917,-0.007891,0.609700,-0.050629,48.216867,188.495664,1598.261504,916.119359,0
0.097916,-52.445270,171.732943,-152.208713,-0.001242,-1.983590,-4.497899,5.920014,2.062225,4.474907,-5.793629,0.006721,0.611268,-0.058098,-17.731741,188.495694,1598.129509,916.403889,0
0.098958,-106.911958,199.386132,-67.511743,1.548228,0.767875,-6.204390,4.774484,-0.687236,6.182961,-4.715601,-0.004238,0.602971,-0.069301,-74.270430,188.571100,1599.152567,916.419182,0
0.100000,-153.620375,173.098085,4.886932,2.984598,2.944196,-6.454411,2.867754,-2.855928,6.501910,-2.904657,-0.015197,0.595524,-0.050629,-126.861929,188.495707,1599.621515,915.509382,0
0.101042,-185.129841,123.759673,72.878409,4.296558,5.106315,-5.890872,0.278183,-4.984188,6.019290,-0.325218,-0.091910,0.587816,-0.039427,-163.800388,188.495727,1600.353216,914.484837,0
0.102083,-189.258511,41.561202,127.697538,5.359698,6.182050,-4.430433,-2.035266,-6.204537,4.655365,1.859300,-0.143052,0.590952,-0.035692,-173.538298,188.495828,1600.982430,913.988764,0
0.103125,-161.106425,-29.414109,173.099054,6.196638,6.622284,-2.418361,-4.318865,-6.641951,2.645149,4.100743,-0.186888,0.606172,-0.024490,-164.411128,188.646525,1602.783484,913.819091,0
0.104166,-106.276778,-97.163819,182.775190,6.354978,5.805720,0.319962,-5.863652,-5.851665,-0.044931,5.609270,-0.245336,0.596700,-0.058098,-114.884639,188.495734,1604.265113,912.955414,0
0.105208,-21.809177,-144.593448,190.604735,6.468078,4.254249,2.740798,-6.557687,-4.293147,-2.508390,6.310166,-0.263601,0.585856,-0.039427,-43.337581,188.495770,1606.048388,912.438825,0
0.106250,53.380259,-171.207679,151.592425,5.800788,2.006923,4.721121,-6.094997,-2.084021,-4.543786,5.957939,-0.241683,0.593434,-0.043161,23.221768,188.495736,1607.546302,911.563840,0
0.107292,106.621956,-199.621966,67.104735,4.217388,-0.684188,6.340303,-4.949466,0.632359,-6.218266,4.833660,-0.208806,0.603167,-0.031958,79.783077,188.646509,1608.534792,910.318414,0
0.108333,153.613936,-172.609064,-3.742803,2.905428,-2.839207,6.669696,-3.061393,2.760618,-6.516231,3.118777,-0.190541,0.605780,-0.039427,129.535766,188.495542,1608.413095,909.396926,0
0.109375,185.486362,-124.527066,-72.362121,1.570848,-4.980025,6.042659,-0.415852,4.910932,-5.979055,0.553570,-0.146705,0.592323,-0.039427,170.511895,188.495721,1609.202338,908.830724,0
0.110417,188.855085,-41.821198,-127.685985,0.507708,-5.995405,4.594126,1.864015,6.068793,-4.640310,-1.687874,-0.095563,0.592193,-0.058098,179.107495,188.476262,1609.458969,907.447171,0
