1-Time,2-VGERA,3-VGERB,4-VGERC,5-VN,6-IGERAN,7-IGERBN,8-IGERCN,9-IGERAT,10-IGERBT,11-IGERCT,12-IN,13-IFD,14-IFAULT,15-VFAULT,16-Speed (rad/s),17-Active Power,18-Reactive Power,19-FAULT 
0.000000,133.038640,-190.029728,22.146402,3.278658,-2.274713,6.566513,-3.505426,2.242337,-6.470068,3.481678,-0.186888,0.576188,-0.058098,89.373956,188.500660,1604.420452,801.447216,0
0.001045,164.843012,-155.623313,-52.431250,1.910148,-4.230916,6.209340,-1.303918,4.227242,-6.239250,1.389664,-0.128440,0.573053,-0.046895,104.506736,188.572061,1605.765187,799.392931,0
0.002084,190.601830,-74.149697,-105.071402,0.914868,-5.867595,5.022733,1.419982,5.826193,-4.971848,-1.278721,-0.073645,0.562013,-0.017021,120.962786,188.496273,1607.232568,797.116793,0
0.003125,176.038059,-0.746124,-153.427463,-0.001242,-6.201321,3.260682,3.263279,6.351826,-3.364515,-3.111012,-0.055380,0.541174,-0.061832,96.793316,188.572152,1608.107151,796.536768,0
0.004167,129.170847,65.831738,-188.734281,-0.668532,-5.793039,0.593794,5.244637,5.840896,-0.674435,-4.968208,0.021333,0.552671,-0.039427,68.348667,188.497180,1610.188909,796.401587,0
0.005209,50.533292,119.664246,-193.769319,-0.792942,-4.465235,-1.862760,6.080463,4.598493,1.843581,-5.932385,0.006721,0.569982,-0.043161,18.211438,188.570593,1610.636873,795.563787,0
0.006259,-20.334652,171.128897,-163.497538,-0.204822,-2.540984,-4.136758,6.181210,2.631967,4.059435,-5.989310,0.017680,0.567239,-0.020755,-21.939061,188.511260,1611.898266,795.125450,0
0.007291,-84.238299,182.847374,-108.542993,0.847008,-0.030937,-5.676569,5.091650,0.106726,5.628998,-4.993113,0.021333,0.581022,-0.035692,-56.242290,188.551933,1611.749534,794.177340,0
0.008333,-133.430724,190.156321,-22.036364,2.520888,2.425855,-6.446474,3.419997,-2.311917,6.430566,-3.392082,-0.069992,0.577495,-0.050629,-85.308990,188.495025,1612.928958,794.030405,0
0.009375,-165.235095,156.124415,52.036553,3.912018,4.339455,-6.121050,1.173712,-4.296822,6.229125,-1.292953,-0.080951,0.578083,-0.020755,-99.457799,188.646965,1613.309335,793.021422,0
0.010416,-191.107339,74.940740,104.984470,4.941228,6.029388,-4.839197,-1.550188,-5.910477,4.961723,1.368317,-0.146705,0.576972,-0.035692,-114.703679,188.496049,1614.009396,791.548115,0
0.011458,-176.407458,2.117050,153.968372,5.823408,6.402167,-3.089052,-3.434530,-6.362594,3.283046,3.214839,-0.205153,0.579912,-0.043161,-92.275950,188.495957,1614.101394,791.229783,0
0.012500,-129.869179,-64.642025,186.726895,6.468078,5.954832,-0.434069,-5.471858,-5.910477,0.630736,5.121845,-0.212459,0.575470,-0.054364,-63.729510,188.496109,1614.913665,791.142094,0
0.013541,-51.980228,-119.271873,193.719319,6.615108,4.598626,2.042327,-6.244251,-4.634991,-1.908263,6.071790,-0.230724,0.579193,-0.017021,-14.983411,188.646830,1616.383153,790.449713,0
0.014583,17.651383,-170.724443,164.013826,6.060918,2.670825,4.252828,-6.408432,-2.734629,-4.098936,6.150063,-0.278213,0.592846,-0.061832,24.250978,188.496053,1618.280972,789.855086,0
0.015625,83.608023,-182.672457,109.330114,5.020398,0.093323,5.844230,-5.195737,-0.154252,-5.731450,5.089824,-0.227071,0.582459,-0.054364,62.150787,188.496056,1619.719058,789.140613,0
0.016678,134.740015,-190.162618,21.703220,3.346518,-2.406073,6.637947,-3.524083,2.326879,-6.554002,3.453215,-0.194194,0.581545,-0.028224,91.522856,188.512970,1621.546750,789.260222,0
0.017709,165.648329,-155.719961,-51.150947,1.932768,-4.280620,6.237120,-1.318843,4.286054,-6.277020,1.386106,-0.132093,0.588665,-0.024490,105.094856,188.704674,1622.899790,789.042065,0
0.018749,191.656683,-75.406111,-104.775947,0.903558,-5.949251,4.998922,1.442371,5.881330,-4.984438,-1.296510,-0.080951,0.578213,-0.024490,120.114536,188.495671,1624.491538,788.784138,0
0.019791,175.970004,-2.956929,-154.449243,-0.035172,-6.282977,3.232902,3.345369,6.329771,-3.305761,-3.207074,-0.040768,0.586771,-0.069301,97.935626,188.495816,1625.818103,786.885054,0
0.020833,129.624547,64.575324,-187.035417,-0.645912,-5.839192,0.502516,5.315533,5.903384,-0.649255,-5.035807,0.006721,0.582133,-0.020755,68.269497,188.495667,1626.887791,786.071569,0
0.021874,52.461517,119.615923,-193.584660,-0.781632,-4.497187,-1.961974,6.151359,4.543357,1.906531,-5.989310,-0.029809,0.592911,-0.039427,20.937148,188.571111,1628.331507,784.488881,0
0.022916,-17.952726,171.116816,-164.063826,-0.295302,-2.487730,-4.176444,6.214793,2.591533,4.113992,-6.003542,0.035945,0.597223,-0.024490,-20.909851,188.495790,1629.683659,782.921514,0
0.023958,-83.784599,182.980264,-108.382955,0.813078,0.121725,-5.700380,4.964784,0.011157,5.742308,-4.975324,0.003068,0.580369,-0.005818,-56.762550,188.495763,1631.413151,781.536754,0
0.024999,-134.122617,190.651638,-22.097917,2.430408,2.535914,-6.513940,3.308056,-2.414838,6.535483,-3.320925,-0.044421,0.576645,-0.017021,-85.591740,188.495541,1633.667550,780.565367,0
0.026041,-165.836248,155.230428,52.098106,3.866778,4.438863,-6.097238,1.009532,-4.425474,6.216535,-1.189775,-0.088257,0.578409,-0.035692,-100.860239,188.570995,1635.058712,779.063998,0
0.027094,-193.670744,71.533925,105.476894,4.873368,6.107494,-4.787606,-1.770339,-6.020749,4.890380,1.507073,-0.135746,0.544440,-0.050629,-115.065599,188.511459,1636.828460,778.480571,0
0.028125,-175.420661,1.380115,154.411554,5.800788,6.416368,-3.009680,-3.602442,-6.436109,3.249473,3.360711,-0.175929,0.563776,-0.043161,-94.515329,188.483538,1638.620895,777.915488,0
0.029166,-129.041176,-64.919886,187.293182,6.434148,5.933530,-0.318980,-5.576336,-5.899449,0.550999,5.242812,-0.227071,0.561751,-0.054364,-63.955710,188.495302,1640.148112,777.024234,0
0.030208,-50.675840,-119.658462,193.633145,6.603798,4.495668,2.193133,-6.326342,-4.543098,-2.038360,6.082464,-0.259948,0.549340,0.005384,-13.026781,188.570839,1640.599650,775.382678,0
0.031250,19.545580,-170.796929,164.444697,6.038298,2.532364,4.431414,-6.423357,-2.580247,-4.224837,6.189199,-0.256295,0.559008,-0.017021,25.766518,188.495390,1642.336854,773.884375,0
0.032291,84.436025,-182.587891,107.434281,4.986468,-0.034487,5.919633,-5.218125,-0.029276,-5.806990,5.050688,-0.194194,0.565083,-0.046895,61.562667,188.495065,1642.992494,772.844547,0
0.033333,133.741875,-190.996200,20.816856,3.357828,-2.491280,6.677633,-3.456918,2.407746,-6.600165,3.421194,-0.168623,0.575862,-0.017021,89.611466,188.495027,1644.162789,771.969665,0
0.034375,165.115232,-154.161524,-52.689773,1.966698,-4.330324,6.252994,-1.210633,4.374272,-6.277020,1.275813,-0.124787,0.575666,-0.043161,105.207956,188.570430,1644.560587,770.955239,0
0.035416,192.836303,-72.180509,-104.603599,0.937488,-6.041558,4.983048,1.539386,6.028360,-4.963455,-1.399688,-0.088257,0.563907,-0.035692,120.634796,188.495115,1646.285691,770.786053,0
0.036467,173.803587,0.776070,-155.323296,-0.035172,-6.339782,3.133687,3.468504,6.395935,-3.221828,-3.249768,-0.037115,0.551887,-0.046895,95.707556,188.495028,1645.964934,771.472751,0
0.037512,126.936375,66.701563,-188.081819,-0.679842,-5.860494,0.423145,5.431205,5.881330,-0.506567,-5.188795,0.028639,0.572203,-0.046895,67.161117,188.495101,1647.441994,770.854906,0
0.038548,49.410384,121.041469,-192.698296,-0.792942,-4.447483,-2.065157,6.229718,4.499248,1.973678,-6.017773,0.010374,0.596047,-0.035692,17.600698,188.493237,1647.116430,771.201029,0
0.039583,-20.107802,171.128897,-164.211554,-0.227442,-2.484179,-4.259784,6.293151,2.565803,4.206319,-6.064025,0.039598,0.591213,-0.035692,-21.565831,188.493418,1648.451686,771.638945,0
0.040625,-84.612602,182.678242,-107.730493,0.880938,0.075571,-5.783720,5.050605,-0.018249,5.788472,-5.003787,-0.007891,0.582394,-0.024490,-56.513730,188.495721,1649.018272,772.011952,0
0.041666,-134.236042,190.808690,-21.593182,2.520888,2.571417,-6.577437,3.364026,-2.495705,6.564860,-3.345830,-0.033462,0.581871,-0.020755,-85.546500,188.495642,1650.085565,772.019055,0
0.042708,-165.632083,154.892162,52.061174,3.934638,4.492117,-6.113113,1.061771,-4.473258,6.250108,-1.200449,-0.080951,0.587163,-0.046895,-99.955439,188.571114,1650.695018,772.206775,0
0.043750,-193.183017,73.684326,104.738258,4.952538,6.132346,-4.855072,-1.688249,-6.094264,5.016280,1.514188,-0.135746,0.576776,-0.031958,-115.337039,188.495743,1652.684378,772.635641,0
0.044791,-175.091728,2.068727,154.928599,5.868648,6.462522,-3.085083,-3.602442,-6.535354,3.262063,3.364269,-0.186888,0.596243,-0.043161,-91.642590,188.497564,1653.874916,773.192919,0
0.045833,-129.041176,-64.533297,187.957955,6.524628,6.004536,-0.330886,-5.609919,-6.009722,0.563589,5.281948,-0.252642,0.585726,-0.005818,-63.141390,188.495653,1655.361389,774.207884,0
0.046884,-51.231623,-120.854472,192.672917,6.581178,4.506318,2.252662,-6.348730,-4.623964,-2.017377,6.125158,-0.227071,0.591801,-0.050629,-13.988131,188.570846,1655.934616,775.646598,0
0.047916,18.615495,-171.098951,164.457008,6.049608,2.578517,4.502849,-6.464402,-2.635383,-4.245821,6.214104,-0.252642,0.595916,-0.050629,25.110538,188.495586,1656.591797,776.102313,0
0.048958,84.005010,-182.491244,108.296023,4.929918,-0.009635,5.999005,-5.244244,-0.077061,-5.878334,5.139634,-0.223418,0.588273,-0.039427,62.320437,188.493820,1658.008234,777.085228,0
0.050000,134.422425,-190.694178,22.171023,3.335208,-2.512582,6.784785,-3.505426,2.455531,-6.654722,3.442541,-0.190541,0.588927,-0.028224,91.127006,188.494625,1659.352902,776.997335,0
0.051041,165.727727,-154.572275,-51.520265,1.898838,-4.426182,6.280774,-1.169588,4.422057,-6.327380,1.293602,-0.128440,0.589906,-0.028224,105.287126,188.496226,1660.700784,777.114387,0
0.052083,193.426113,-73.352357,-104.517425,0.880938,-6.105463,5.018765,1.580431,6.032035,-5.022209,-1.449498,-0.080951,0.588012,-0.020755,120.940166,188.496185,1661.977398,777.012321,0
0.053125,174.620247,-1.507221,-155.027841,-0.080412,-6.407237,3.165436,3.487161,6.462098,-3.234418,-3.328041,-0.040768,0.592193,-0.009553,97.234406,188.496223,1664.179907,776.075789,0
0.054166,128.592380,65.046479,-188.118751,-0.725082,-5.899547,0.391396,5.446130,5.929114,-0.561124,-5.213700,-0.007891,0.571681,-0.028224,67.421247,188.496138,1665.321342,776.135482,0
0.055208,51.134444,120.219968,-193.436932,-0.770322,-4.451034,-2.108812,6.229718,4.517626,2.024038,-6.064025,0.057863,0.597941,-0.035692,20.054968,188.496109,1667.015248,775.251585,0
0.056250,-20.266597,171.322192,-164.605493,-0.272682,-2.448677,-4.339156,6.289420,2.506991,4.252482,-6.131624,0.028639,0.592977,-0.046895,-22.221811,188.496177,1668.401465,774.887474,0
0.057298,-85.429262,183.113154,-104.985228,0.892248,0.263736,-5.859123,4.990903,-0.139549,5.838832,-4.936188,-0.004238,0.584419,-0.035692,-57.520320,188.496145,1668.475526,773.913008,0
0.058333,-134.485577,191.243603,-20.337500,2.464338,2.670825,-6.629029,3.274473,-2.561868,6.611024,-3.288905,-0.040768,0.575535,-0.054364,-85.829250,188.496134,1669.416256,773.430438,0
0.059375,-165.881618,153.684072,52.775190,3.900708,4.577324,-6.109144,0.953561,-4.480610,6.262698,-1.093713,-0.102869,0.574751,-0.005818,-101.256089,188.436888,1669.439638,772.742813,0
0.060416,-194.249212,71.497682,104.455114,4.873368,6.238854,-4.799512,-1.811384,-6.145725,4.957527,1.613808,-0.146705,0.562927,-0.039427,-115.257869,188.555562,1670.112084,771.810550,0
0.061458,-174.082246,0.075378,154.990152,5.846028,6.469622,-2.930309,-3.714383,-6.498597,3.144555,3.467446,-0.179582,0.566651,-0.046895,-93.825419,188.495662,1669.929561,770.305716,0
0.062500,-127.623364,-65.608498,188.081061,6.513318,5.983234,-0.211829,-5.688277,-5.987667,0.420902,5.406473,-0.241683,0.558158,-0.020755,-63.141390,188.495636,1671.282454,768.941571,0
0.063541,-49.258028,-120.262507,193.337690,6.615108,4.495668,2.316159,-6.408432,-4.495313,-2.126491,6.174968,-0.263601,0.530003,-0.043161,-12.585691,188.495665,1671.880514,767.058988,0
0.064583,21.496490,-170.953980,164.752463,6.117468,2.507512,4.514755,-6.449477,-2.514084,-4.363328,6.249683,-0.252642,0.542938,-0.013287,26.399878,188.482209,1673.228551,766.297770,0
0.065625,84.946438,-182.696619,106.104735,4.963848,-0.165848,6.090282,-5.188274,0.047914,-5.916104,5.089824,-0.212459,0.581022,-0.017021,61.788867,188.496056,1673.391410,765.369962,0
0.066666,134.206918,-191.298223,20.127462,3.346518,-2.548084,6.757005,-3.460650,2.521694,-6.709279,3.360711,-0.183235,0.578671,-0.017021,89.826356,188.495486,1674.215883,764.722228,0
0.067716,165.523562,-151.769505,-53.194508,1.932768,-4.482986,6.256963,-1.076304,4.491896,-6.268626,1.161962,-0.154011,0.580696,-0.013287,106.372886,188.420034,1673.549078,763.390215,0
0.068750,194.106663,-71.093228,-104.369697,0.971418,-6.101913,4.959236,1.632670,6.087172,-4.963455,-1.492192,-0.102869,0.554304,-0.061832,120.883616,188.495575,1673.719743,763.039111,0
0.069791,173.701504,-0.262888,-155.138637,-0.035172,-6.382385,3.113845,3.524475,6.443720,-3.221828,-3.335157,-0.044421,0.588273,-0.039427,95.978996,188.517006,1673.011252,763.244216,0
0.070833,127.367390,65.420987,-188.118751,-0.623292,-5.846293,0.347742,5.487176,5.969548,-0.456207,-5.242163,0.017680,0.566520,-0.054364,67.703997,188.478889,1673.612292,762.714575,0
0.071875,50.034221,120.534071,-192.722917,-0.759012,-4.387129,-2.092937,6.237181,4.536005,2.053415,-6.046236,0.035945,0.570766,-0.043161,18.120958,188.420336,1673.159472,763.004036,0
0.072916,-20.482104,171.346354,-164.679357,-0.216132,-2.413174,-4.343124,6.319271,2.495964,4.248286,-6.110277,0.017680,0.596374,-0.017021,-21.950371,188.495864,1672.916218,762.829558,0
0.073958,-84.873479,182.690323,-106.881061,0.869628,0.185630,-5.827375,5.050605,-0.099116,5.813652,-4.964650,0.024986,0.586314,-0.043161,-56.638140,188.495638,1673.030747,762.825638,0
0.075000,-134.939277,191.026146,-21.273106,2.520888,2.642422,-6.601249,3.315518,-2.565544,6.556467,-3.288905,-0.051727,0.584158,-0.046895,-85.761390,188.495707,1672.626834,762.431601,0
0.076041,-166.119810,153.974014,51.913447,3.889398,4.506318,-6.113113,0.975949,-4.480610,6.224928,-1.143523,-0.088257,0.581871,-0.031958,-100.520939,188.495685,1672.398440,762.413378,0
0.077083,-194.147129,72.766177,104.713637,4.895988,6.182050,-4.815386,-1.747951,-6.105291,4.999494,1.567556,-0.139399,0.579585,-0.046895,-115.631099,188.495676,1672.200499,763.027167,0
0.078134,-173.492436,1.005607,156.332008,5.857338,6.441220,-2.918403,-3.721845,-6.476542,3.127769,3.446099,-0.157664,0.587424,-0.043161,-90.511590,188.495620,1671.978917,762.933332,0
0.079166,-128.315256,-64.497054,188.191857,6.456768,5.969033,-0.227703,-5.617381,-5.943558,0.496442,5.285506,-0.252642,0.581153,-0.028224,-62.259210,188.495600,1670.230368,763.089274,0
0.080208,-51.571898,-120.045051,192.869887,6.547248,4.520520,2.244725,-6.333804,-4.572504,-2.013180,6.142947,-0.263601,0.563907,-0.043161,-14.146471,188.420321,1669.681180,764.077441,0
0.081250,19.624978,-171.195599,164.530872,5.993058,2.511062,4.494912,-6.393506,-2.613329,-4.296181,6.189199,-0.263601,0.587881,-0.024490,25.958788,188.491297,1668.547804,764.545446,0
0.082291,84.367970,-182.442920,106.966478,4.907298,-0.091292,5.979162,-5.094990,0.000130,-5.844761,5.054246,-0.223418,0.582329,-0.046895,62.478777,188.495249,1667.400215,764.248145,0
0.083333,134.762700,-190.899553,21.161553,3.301278,-2.519682,6.721287,-3.419604,2.473909,-6.663116,3.378500,-0.212459,0.581937,-0.031958,91.160936,188.495276,1666.633301,764.495771,0
0.084375,165.818467,-153.412508,-52.382008,1.910148,-4.401330,6.209340,-1.136006,4.400002,-6.293807,1.229561,-0.110175,0.580238,-0.050629,105.411536,188.495282,1666.440371,765.398942,0
0.085416,194.004580,-71.600626,-104.800569,0.892248,-6.066410,4.939393,1.576700,6.035711,-4.946668,-1.456614,-0.059033,0.564103,-0.031958,121.155056,188.495220,1665.663867,765.536860,0
0.086458,173.985067,-0.238726,-155.212500,-0.069102,-6.325580,3.101939,3.490893,6.392259,-3.184057,-3.317367,-0.026156,0.578213,-0.035692,96.838556,188.495171,1665.048311,764.963725,0
0.087500,127.287992,65.771334,-187.909470,-0.691152,-5.817891,0.383459,5.442399,5.862951,-0.523354,-5.203026,0.017680,0.570766,-0.017021,66.674787,188.495289,1663.388194,764.969374,0
0.088553,48.208079,121.887133,-192.513637,-0.759012,-4.369377,-2.124686,6.188673,4.469842,2.061809,-5.996426,-0.015197,0.546596,-0.009553,18.290608,188.495211,1662.196200,765.065241,0
0.089584,-21.809177,171.261787,-164.310038,-0.238752,-2.413174,-4.331219,6.218524,2.529046,4.260876,-6.067583,0.021333,0.553978,-0.065566,-23.137921,188.495309,1661.518125,765.585295,0
0.090624,-85.281809,183.064831,-105.539205,0.892248,0.203381,-5.831343,4.979709,-0.066034,5.784275,-4.929072,0.014027,0.553651,-0.054364,-57.181020,188.495394,1660.477841,766.115850,0
0.091666,-134.825852,191.086551,-19.328030,2.520888,2.656624,-6.561563,3.296861,-2.532462,6.569057,-3.285347,-0.055380,0.575992,-0.028224,-85.942350,188.491596,1659.922173,766.969545,0
0.092708,-165.677453,153.043784,53.341477,3.945948,4.474366,-6.033741,0.961024,-4.458555,6.170371,-1.129292,-0.084604,0.576580,-0.013287,-101.244779,188.420224,1658.645409,766.979352,0
0.093749,-194.113102,70.603695,104.861364,4.907298,6.142997,-4.759826,-1.755413,-6.061182,4.869396,1.571114,-0.146705,0.553847,-0.065566,-115.122149,188.495830,1656.813945,766.127175,0
0.094791,-173.605861,-0.552829,155.137879,5.800788,6.423469,-2.950152,-3.639755,-6.421406,3.140359,3.396289,-0.175929,0.574163,-0.043161,-93.667079,188.495721,1655.225472,766.496932,0
0.095833,-126.886101,-66.176300,187.834849,6.456768,5.972583,-0.255483,-5.598724,-5.972964,0.475459,5.285506,-0.238030,0.575862,-0.020755,-63.028290,188.495812,1654.831022,767.353929,0
0.096874,-48.815670,-120.794067,192.857576,6.603798,4.531170,2.197102,-6.341267,-4.554125,-2.055147,6.086022,-0.252642,0.570244,-0.013287,-12.608311,188.543774,1653.739202,767.699370,0
0.097916,21.723340,-171.062709,164.432387,6.106158,2.557216,4.411571,-6.408432,-2.613329,-4.279394,6.192757,-0.289172,0.585922,-0.020755,26.377258,188.482728,1653.195931,768.554694,0
0.098968,86.205456,-182.237545,104.664394,4.918608,-0.130345,5.951382,-5.150960,0.033211,-5.848957,5.000878,-0.216112,0.584680,-0.058098,62.625807,188.496214,1652.277134,768.870486,0
0.100000,134.660618,-190.670016,20.324432,3.369138,-2.509031,6.697476,-3.505426,2.418773,-6.587575,3.428310,-0.186888,0.581806,-0.035692,90.007316,188.448163,1650.752806,769.798872,0
0.101041,165.455507,-152.989676,-52.677462,2.000628,-4.355176,6.225214,-1.162126,4.359569,-6.256036,1.290044,-0.113828,0.584092,-0.024490,105.762146,188.362659,1649.516679,770.411183,0
0.102083,193.652963,-71.540221,-105.243750,0.903558,-6.023807,4.975110,1.520729,5.954845,-4.955062,-1.371225,-0.088257,0.577625,-0.017021,120.713966,188.496364,1647.906260,771.391403,0
0.103125,173.633449,-0.540749,-155.471023,-0.057792,-6.307829,3.189248,3.382683,6.333447,-3.251204,-3.221306,-0.051727,0.590364,-0.054364,95.865896,188.496020,1646.320885,772.461572,0
0.104166,127.650952,65.614282,-187.823296,-0.679842,-5.821441,0.478705,5.397623,5.859275,-0.556928,-5.114080,0.010374,0.582133,-0.046895,67.817097,188.496063,1645.211779,772.841073,0
0.105208,50.544634,120.932741,-192.452084,-0.770322,-4.408430,-1.993723,6.106583,4.499248,1.923318,-5.982195,0.024986,0.586379,-0.065566,18.064408,188.496597,1644.558276,773.311993,0
0.106250,-20.153172,171.455082,-163.928410,-0.227442,-2.469978,-4.184381,6.181210,2.551100,4.109795,-6.081814,0.035945,0.583570,-0.020755,-22.120021,188.496147,1643.208344,773.913488,0
0.107291,-85.406577,182.315815,-106.893372,0.858318,0.096873,-5.751972,5.002097,0.022184,5.717128,-4.936188,0.006721,0.588404,-0.009553,-57.101850,188.476361,1642.145345,774.554327,0
0.108333,-135.449689,190.228807,-20.916099,2.486958,2.503962,-6.470285,3.367757,-2.407487,6.510303,-3.352946,-0.044421,0.584550,-0.024490,-85.931040,188.492741,1640.589905,775.757228,0
0.109383,-166.289948,152.620952,53.747727,3.878088,4.431763,-6.001992,0.957292,-4.392392,6.157781,-1.125734,-0.077298,0.577691,-0.020755,-100.747139,188.571518,1639.733378,776.234982,0
0.110416,-193.466579,72.729934,105.661553,4.895988,6.050689,-4.767763,-1.628547,-6.002370,4.915560,1.450147,-0.121134,0.578736,-0.013287,-115.280489,188.496089,1638.925460,777.507525,0
