1-Time,2-VGERA,3-VGERB,4-VGERC,5-VN,6-IGERAN,7-IGERBN,8-IGERCN,9-IGERAT,10-IGERBT,11-IGERCT,12-IN,13-IFD,14-IFAULT,15-VFAULT,16-Speed (rad/s),17-Active Power,18-Reactive Power,19-FAULT 
0.000000,135.200708,-183.728601,20.188941,0.719604,-3.781174,5.453398,-0.921425,3.974092,-5.352658,0.362006,0.033621,0.466267,-0.014723,134.914973,188.495705,1571.088587,30.163892,0
0.001042,175.891739,-135.691510,-44.506559,-0.518919,-4.871007,4.221585,1.243606,5.096788,-4.122440,-1.846542,-0.032010,0.460961,-0.025873,177.144948,188.495607,1569.365485,30.200574,0
0.002083,197.779694,-61.040226,-98.666559,-1.588553,-5.414089,2.448774,3.389306,5.596999,-2.319002,-3.773310,-0.083057,0.451246,-0.029590,191.195337,188.495727,1568.849571,29.941505,0
0.003125,167.111697,1.666383,-158.513543,-2.737001,-4.951735,0.472047,4.668994,5.137546,-0.281867,-5.159364,-0.086703,0.476946,-0.011006,161.676010,188.420305,1567.478582,29.622089,0
0.004167,121.663397,61.530700,-188.807660,-3.322485,-3.806860,-1.775179,5.457684,3.933334,1.865503,-5.814313,-0.075764,0.462064,-0.033307,115.539396,188.495691,1567.283364,29.848945,0
0.005208,45.298502,118.611449,-192.635437,-3.378782,-1.917081,-3.768551,5.415157,2.091816,3.885001,-5.764811,-0.112226,0.463097,-0.040740,40.468887,188.495655,1565.720941,29.933345,0
0.006250,-22.681849,164.182088,-162.985358,-2.838335,0.060765,-5.154340,4.630333,0.131730,5.212225,-4.866160,-0.039302,0.472812,-0.003573,-26.428078,188.495611,1567.191955,30.562441,0
0.007292,-77.328288,188.823119,-91.740107,-1.475960,2.350516,-5.687016,2.770726,-2.250756,5.741351,-3.046012,-0.064826,0.468885,-0.007290,-78.779287,188.420332,1566.984059,31.277317,0
0.008333,-134.844907,183.772765,-20.324732,-0.158622,4.097185,-5.412355,0.853127,-3.903305,5.309232,-1.092589,-0.013779,0.463648,-0.022156,-134.204019,188.495716,1566.761457,31.000414,0
0.009375,-175.818437,135.688693,44.310010,1.113679,5.223713,-4.238804,-1.331234,-5.088990,4.087833,1.157845,0.026329,0.460755,-0.025873,-176.557837,188.495750,1566.750360,29.939093,0
0.010417,-197.717692,61.319289,98.688741,2.194572,5.796151,-2.399408,-3.461470,-5.492865,2.297623,3.065574,0.070083,0.457379,-0.025873,-190.822134,188.495682,1566.010506,29.496607,0
0.011458,-167.185294,-1.316849,158.511420,3.320502,5.289763,-0.451812,-4.683166,-5.044527,0.313400,4.432589,0.084667,0.390890,-0.033307,-161.494198,188.344831,1565.842647,28.970447,0
0.012500,-121.816094,-61.369086,188.963510,3.905986,4.093515,1.753798,-5.518249,-3.847726,-1.869245,5.053268,0.117483,0.442634,-0.029590,-115.109901,188.495678,1565.880805,29.497988,0
0.013542,-44.795803,-118.496815,192.803438,3.996060,2.200067,3.776302,-5.421596,-2.002503,-3.932836,5.049460,0.124775,0.470538,-0.040740,-39.757934,188.495593,1566.449903,29.590890,0
0.014583,22.777751,-164.055709,163.153359,3.444354,0.170849,5.145445,-4.652237,-0.027596,-5.127779,4.097499,0.073729,0.477980,-0.040740,26.598631,188.495582,1566.176297,30.160354,0
0.015625,77.265991,-188.731975,92.564298,2.059460,-2.100555,5.648990,-2.808094,2.328954,-5.718637,2.281159,0.051852,0.471572,-0.007290,79.107457,188.420262,1565.604944,29.791211,0
0.016667,134.940810,-183.904776,21.039558,0.730863,-3.803190,5.432590,-0.956220,3.940745,-5.396752,0.411508,0.004452,0.469987,-0.048173,134.656031,188.495709,1565.908060,30.426840,0
0.017708,175.473642,-136.642856,-43.984037,-0.496401,-4.871007,4.209101,1.270669,5.093083,-4.122440,-1.823695,-0.024718,0.464682,-0.048173,176.525740,188.495642,1565.871810,30.245732,0
0.018750,197.836194,-62.214727,-98.216948,-1.588553,-5.417758,2.402997,3.327448,5.571062,-2.336639,-3.758078,-0.068472,0.447526,-0.025873,191.341696,188.495609,1565.647019,30.049915,0
0.019792,167.710593,0.668057,-157.760139,-2.703224,-4.918710,0.497016,4.614868,5.122725,-0.365645,-5.140325,-0.086703,0.466956,-0.040740,162.025018,188.495613,1565.305178,30.490006,0
0.020833,121.810297,61.107879,-189.050693,-3.356263,-3.814199,-1.721079,5.469282,3.948155,1.883141,-5.795274,-0.126811,0.471296,-0.051890,115.471846,188.495790,1565.333543,30.302842,0
0.021875,45.230703,117.742318,-192.732650,-3.401300,-1.939098,-3.756067,5.368763,2.147395,3.840907,-5.768619,-0.104934,0.464131,-0.033307,40.378821,188.495736,1565.037692,31.085144,0
0.022917,-22.602749,164.217323,-163.252694,-2.849594,0.057095,-5.116887,4.626467,0.131730,5.137266,-4.873776,-0.072118,0.469712,-0.003573,-26.090328,188.495808,1564.407049,31.410922,0
0.023958,-76.989290,187.672108,-92.991729,-1.498478,2.277126,-5.607947,2.801655,-2.180356,5.679620,-3.038396,-0.042949,0.468816,-0.022156,-78.520346,188.420276,1563.032794,31.578655,0
0.025000,-134.822308,184.360015,-21.333321,-0.147362,4.042143,-5.462294,0.922718,-3.836610,5.366554,-1.161130,-0.013779,0.469505,-0.018440,-134.068919,188.495743,1563.422611,32.694807,0
0.026042,-174.428546,137.098095,44.079128,1.079901,5.142984,-4.213835,-1.292573,-4.970422,4.140745,1.081689,0.026329,0.461995,-0.051890,-175.218096,188.495665,1562.248829,33.815316,0
0.027083,-198.124489,62.716946,98.324190,2.160794,5.744778,-2.457669,-3.376415,-5.478043,2.363764,3.042727,0.077375,0.462753,-0.022156,-191.373792,188.495718,1562.504136,34.167460,0
0.028125,-167.705090,-0.459464,157.551438,3.275465,5.201696,-0.543366,-4.644505,-5.007475,0.414816,4.303123,0.117483,0.453451,-0.033307,-161.584265,188.420406,1560.741686,35.413002,0
0.029167,-122.245491,-60.652640,189.716913,3.883467,4.071498,1.724668,-5.471856,-3.877368,-1.838379,5.026613,0.113837,0.470056,0.003860,-115.335067,188.495720,1560.801496,35.752549,0
0.030208,-45.439898,-117.392784,192.633314,4.029838,2.207406,3.688909,-5.375202,-1.991387,-3.804964,4.980919,0.106545,0.465233,-0.033307,-39.859259,188.495754,1558.722777,36.038198,0
0.031250,22.585652,-164.396315,163.493606,3.478132,0.225891,5.087183,-4.667701,-0.053533,-5.118960,4.131770,0.073729,0.476946,-0.011006,26.350948,188.495658,1559.138024,36.531987,0
0.032292,77.164292,-187.252104,93.900982,2.093238,-1.975793,5.628182,-2.885417,2.262259,-5.714227,2.330661,0.048206,0.468954,-0.014723,78.927324,188.420294,1558.736492,37.264285,0
0.033333,134.579212,-184.938337,21.853720,0.742122,-3.748148,5.486690,-1.002613,3.911102,-5.383523,0.487665,0.004452,0.466060,-0.018440,134.374573,188.495721,1558.775141,37.836733,0
0.034375,173.970752,-137.911317,-43.655942,-0.496401,-4.793948,4.250716,1.150819,5.067146,-4.215037,-1.747538,-0.017425,0.468127,-0.011006,175.253550,188.495640,1558.890020,38.933953,0
0.035417,198.254291,-63.729833,-97.779487,-1.554775,-5.417758,2.473743,3.304252,5.559946,-2.389552,-3.727616,-0.028364,0.481631,-0.033307,191.972162,188.495674,1559.086371,39.168793,0
0.036458,167.902692,-0.412484,-157.128252,-2.691964,-4.889354,0.526147,4.580073,5.133840,-0.387692,-5.071784,-0.075764,0.473363,-0.025873,162.002502,188.344939,1558.412719,39.397086,0
0.037500,122.714291,60.309219,-189.463850,-3.299967,-3.795851,-1.687786,5.449952,3.974092,1.803772,-5.799082,-0.101287,0.460824,-0.037023,116.068537,188.495551,1558.596589,40.009839,0
0.038542,45.942598,117.084597,-192.489617,-3.390041,-1.979462,-3.701967,5.380362,2.125164,3.827679,-5.780042,-0.123164,0.485076,-0.029590,40.435112,188.495604,1558.403251,39.525891,0
0.039583,-22.546250,164.123363,-163.605093,-2.883372,0.046087,-5.108564,4.665128,0.161372,5.137266,-4.877584,-0.064826,0.448628,-0.007290,-26.000261,188.495640,1558.478130,39.789145,0
0.040625,-76.695492,187.296268,-93.672222,-1.475960,2.288135,-5.628755,2.817120,-2.135893,5.706076,-3.095514,-0.039302,0.455312,-0.018440,-78.115046,188.420191,1558.853950,40.511412,0
0.041667,-134.087812,185.017736,-21.916601,-0.158622,4.053151,-5.458132,0.961379,-3.840316,5.432695,-1.187785,0.011744,0.470676,-0.037023,-133.697395,188.495736,1559.724167,40.608925,0
0.042708,-173.908749,137.990715,43.289269,1.102420,5.142984,-4.276258,-1.288707,-5.029706,4.162792,1.058842,0.011744,0.467989,-0.048173,-174.824055,188.495698,1560.510758,40.293609,0
0.043750,-198.090590,64.126347,97.740910,2.127016,5.777803,-2.495123,-3.380281,-5.552149,2.429904,3.046535,0.051852,0.466611,-0.037023,-191.643992,188.495693,1561.797960,40.410862,0
0.044792,-168.044088,0.797252,157.284102,3.309243,5.198027,-0.547527,-4.671567,-5.040822,0.423635,4.364048,0.106545,0.477015,-0.025873,-161.899498,188.344912,1562.813898,39.766588,0
0.045833,-123.183385,-59.947940,189.498183,3.894726,4.137549,1.703860,-5.491186,-3.866252,-1.811923,5.007573,0.099252,0.438224,-0.033307,-116.111892,188.495691,1562.472399,39.516319,0
0.046875,-46.219593,-116.981709,192.815590,3.973542,2.192728,3.705556,-5.440927,-2.028440,-3.800555,4.988534,0.091960,0.480667,-0.029590,-40.028134,188.495745,1562.724811,39.611484,0
0.047917,22.314454,-164.079199,163.858156,3.433095,0.207543,5.107991,-4.659969,-0.075765,-5.136598,4.162233,0.099252,0.494929,-0.025873,26.395981,188.495705,1563.183574,39.775747,0
0.048958,76.520196,-187.357809,94.119712,2.115757,-1.997810,5.619859,-2.873819,2.251143,-5.687771,2.338276,0.059144,0.469712,-0.033307,78.240566,188.344910,1562.859275,39.710342,0
0.050000,134.002916,-185.255452,21.902327,0.787160,-3.799521,5.515821,-1.021944,3.903692,-5.427617,0.495281,0.015390,0.471916,-0.037023,133.879207,188.495702,1563.254221,39.838321,0
0.051042,173.575254,-138.756957,-43.048358,-0.507660,-4.793948,4.296493,1.112158,5.074556,-4.228265,-1.698036,-0.042949,0.470401,-0.022156,174.915800,188.495644,1563.365141,40.034138,0
0.052083,198.310791,-64.951314,-97.244814,-1.566034,-5.450784,2.519520,3.284921,5.659988,-2.420418,-3.712384,-0.072118,0.468334,-0.018440,192.163553,188.495698,1564.668523,40.061841,0
0.053125,168.625887,-1.915845,-156.642185,-2.691964,-4.937057,0.605216,4.553010,5.144956,-0.453833,-5.079400,-0.072118,0.475844,-0.044457,162.621709,188.420282,1565.008351,40.120648,0
0.054167,123.516585,59.369618,-189.609670,-3.333744,-3.814199,-1.704433,5.434487,4.014850,1.790544,-5.783850,-0.104934,0.478531,-0.051890,116.789070,188.495660,1565.222223,40.151751,0
0.055208,46.982191,116.285937,-192.526072,-3.412560,-1.986801,-3.701967,5.411291,2.184448,3.774766,-5.783850,-0.097641,0.465233,-0.048173,40.885445,188.495656,1565.027117,40.719705,0
0.056250,-21.811754,164.334773,-163.763065,-2.849594,0.024070,-5.096079,4.661262,0.183604,5.084353,-4.908047,-0.064826,0.485145,-0.051890,-25.932711,188.495647,1564.860378,41.188707,0
0.057292,-76.435593,186.650292,-94.219048,-1.509738,2.207406,-5.570493,2.875112,-2.084019,5.648754,-3.099322,-0.039302,0.477773,-0.007290,-77.766038,188.344929,1563.782339,41.531194,0
0.058333,-133.726215,185.640221,-21.588506,-0.169881,4.038473,-5.474778,0.969111,-3.836610,5.375373,-1.260134,-0.010133,0.466198,-0.018440,-133.292095,188.495618,1563.380099,42.130015,0
0.059375,-172.609258,138.824611,43.252814,1.113679,5.098951,-4.276258,-1.230715,-4.948190,4.224523,0.952222,0.037267,0.468540,-0.040740,-173.641930,188.495756,1562.526722,43.760176,0
0.060417,-198.406987,65.089438,97.388512,2.149535,5.741109,-2.557546,-3.360951,-5.511391,2.429904,3.000841,0.077375,0.466956,-0.048173,-192.026775,188.495642,1561.927746,43.762742,0
0.061458,-168.699484,2.206654,156.579305,3.331761,5.198027,-0.614112,-4.574914,-5.029706,0.458910,4.284084,0.066437,0.479633,-0.044457,-162.225989,188.344878,1561.058721,43.909537,0
0.062500,-123.940480,-58.832164,190.215132,3.917245,4.122871,1.658083,-5.502785,-3.925537,-1.767829,5.038036,0.110191,0.485765,-0.022156,-116.945008,188.495664,1561.992119,44.329628,0
0.063542,-47.745083,-116.042108,192.451039,3.996060,2.280796,3.659779,-5.406131,-2.087724,-3.813783,4.988534,0.102898,0.470883,-0.007290,-41.007608,188.495660,1562.172858,44.168987,0
0.064583,21.240961,-164.595980,164.003976,3.433095,0.255247,5.087183,-4.710229,-0.072059,-5.118960,4.154617,0.070083,0.493620,0.000144,26.058232,188.495673,1562.125914,43.839905,0
0.065625,76.395897,-186.312503,94.970329,2.115757,-1.953776,5.557436,-2.889283,2.184448,-5.714227,2.353508,0.029975,0.468540,-0.040740,78.127983,188.269474,1561.941156,44.357579,0
0.066667,133.528319,-185.960153,21.634990,0.787160,-3.748148,5.499175,-1.083802,3.918513,-5.454074,0.521936,0.040913,0.466404,-0.051890,133.496424,188.495767,1562.521633,44.555763,0
0.067708,172.332263,-139.109308,-43.303543,-0.485141,-4.808626,4.338108,1.123756,5.041209,-4.241493,-1.659958,-0.032010,0.467231,-0.007290,173.789967,188.420345,1561.886215,45.056181,0
0.068750,198.638489,-65.421114,-96.880264,-1.554775,-5.472800,2.540327,3.269456,5.608115,-2.451283,-3.708576,-0.075764,0.466818,-0.025873,192.591370,188.495683,1561.520599,45.120357,0
0.069792,168.761486,-2.890681,-156.362697,-2.714483,-4.966413,0.613539,4.533680,5.130135,-0.453833,-5.052745,-0.093995,0.477635,-0.022156,162.678001,188.269622,1561.082534,44.799015,0
0.070833,124.454479,58.406527,-189.840552,-3.356263,-3.883919,-1.671140,5.484747,4.051903,1.794953,-5.818121,-0.072118,0.481080,-0.018440,117.768544,188.495685,1561.982330,44.470768,0
0.071875,48.168683,115.874861,-192.331645,-3.412560,-2.001479,-3.672836,5.395826,2.180743,3.787994,-5.764811,-0.068472,0.477153,-0.048173,41.842403,188.495747,1561.850257,43.797523,0
0.072917,-20.749561,164.323028,-164.139766,-2.894632,0.046087,-5.125210,4.661262,0.202130,5.172541,-4.889007,-0.057533,0.436709,-0.029590,-25.381053,188.495763,1562.675683,43.006145,0
0.073958,-75.938397,186.544587,-94.620053,-1.520997,2.295474,-5.616270,2.848049,-2.098840,5.701667,-3.141208,-0.057533,0.446561,-0.022156,-77.428288,188.344885,1563.599923,42.965417,0
0.075000,-133.036919,186.157002,-21.430534,-0.169881,4.104524,-5.483101,0.969111,-3.832905,5.410648,-1.225864,-0.002841,0.463993,-0.033307,-132.661629,188.495714,1563.880245,42.555448,0
0.076042,-172.417159,138.754141,43.143449,1.079901,5.117298,-4.292904,-1.261644,-5.003769,4.211295,1.009340,0.022683,0.465233,-0.014723,-173.473056,188.420282,1564.441931,41.540664,0
0.077083,-198.519987,64.913262,96.756625,2.149535,5.796151,-2.557546,-3.391880,-5.533622,2.438723,3.061766,0.088314,0.463442,-0.044457,-192.049291,188.495718,1565.041672,40.940908,0
0.078125,-168.801183,2.981824,156.591456,3.286724,5.253069,-0.609950,-4.629040,-5.092696,0.450091,4.333585,0.117483,0.482458,-0.007290,-162.507447,188.344919,1566.243477,40.567176,0
0.079167,-124.878373,-58.244913,189.996402,3.951023,4.155896,1.728829,-5.514383,-3.918126,-1.785466,5.068499,0.106545,0.483905,-0.037023,-117.778124,188.495712,1566.702623,39.812187,0
0.080208,-48.728177,-115.877678,192.669770,3.984801,2.262448,3.697232,-5.444793,-2.050672,-3.809374,4.961879,0.091960,0.470745,-0.014723,-41.919532,188.420292,1566.391388,38.995612,0
0.081250,20.212668,-164.231884,164.526498,3.478132,0.236899,5.120476,-4.694764,-0.049828,-5.141007,4.124154,0.059144,0.477911,-0.011006,25.337699,188.495660,1566.376051,37.900450,0
0.082292,75.559702,-186.664854,95.310576,2.115757,-1.994140,5.644828,-2.889283,2.265964,-5.678952,2.349700,0.062790,0.462546,-0.011006,77.429967,188.344896,1566.448023,36.670775,0
0.083333,132.974623,-186.242033,21.707900,0.764641,-3.773835,5.503336,-1.010346,3.974092,-5.493758,0.480050,0.033621,0.464200,-0.033307,132.888474,188.495582,1567.246629,35.717775,0
0.084375,172.332263,-139.027093,-43.169875,-0.473882,-4.812295,4.342270,1.166284,5.085672,-4.254721,-1.713267,-0.028364,0.463786,-0.029590,173.688643,188.495734,1567.955626,35.012771,0
0.085417,198.706288,-65.010039,-96.224073,-1.509738,-5.472800,2.577781,3.327448,5.689630,-2.455693,-3.716192,-0.061180,0.470538,-0.014723,192.658920,188.495673,1568.799379,35.002238,0
0.086458,169.247383,-3.243031,-155.876630,-2.669446,-4.977422,0.617701,4.549144,5.152367,-0.475880,-5.060360,-0.079410,0.471916,-0.033307,163.207142,188.344968,1569.139189,35.048735,0
0.087500,124.883876,57.654846,-189.986372,-3.356263,-3.902266,-1.666979,5.453818,4.051903,1.777316,-5.844776,-0.090349,0.477153,-0.029590,118.421527,188.495607,1569.452042,34.833952,0
0.088542,49.547274,115.134926,-192.428858,-3.412560,-2.063860,-3.660351,5.407424,2.188153,3.757129,-5.761003,-0.090349,0.475430,-0.025873,43.047044,188.495664,1569.240360,34.521304,0
0.089583,-19.619569,164.463968,-164.455710,-2.894632,0.005722,-5.112725,4.723120,0.194720,5.146085,-4.915662,-0.079410,0.486868,-0.051890,-24.536679,188.495698,1569.364988,34.311432,0
0.090625,-75.283001,186.110022,-95.786613,-1.543516,2.233092,-5.628755,2.855781,-2.098840,5.666392,-3.118361,-0.053887,0.470883,-0.029590,-76.820339,188.269552,1568.778957,33.533171,0
0.091667,-132.946520,186.556332,-21.710023,-0.169881,4.049482,-5.466455,0.945914,-3.810673,5.397419,-1.210632,-0.028364,0.459446,-0.029590,-132.301362,188.495691,1568.535225,33.309548,0
0.092708,-171.614864,139.353136,43.289269,1.091161,5.124637,-4.305388,-1.222983,-4.988948,4.193658,0.994108,0.029975,0.460961,-0.048173,-172.459806,188.495640,1568.098181,33.204409,0
0.093750,-198.734685,64.772322,96.100435,2.115757,5.803490,-2.520092,-3.384147,-5.559559,2.487226,3.054151,0.040913,0.463993,-0.022156,-192.420816,188.495743,1568.502351,33.669340,0
0.094792,-169.083681,2.758669,155.643626,3.252946,5.253069,-0.639081,-4.574914,-5.100106,0.503004,4.299315,0.110191,0.470263,-0.029590,-162.743872,188.344858,1568.068672,34.411386,0
0.095833,-124.878373,-57.411018,190.555379,3.872208,4.207269,1.641437,-5.522115,-3.955179,-1.741373,5.118001,0.121129,0.481700,-0.007290,-118.543690,188.495731,1568.856348,34.859186,0
0.096875,-50.095467,-114.891097,192.451039,3.962282,2.313821,3.630648,-5.448659,-2.124777,-3.787327,4.996150,0.110191,0.477360,-0.003573,-43.259273,188.495711,1569.240474,35.269752,0
0.097917,18.788877,-164.725175,164.708773,3.478132,0.295611,5.149606,-4.756622,-0.075765,-5.132189,4.188887,0.077375,0.477980,-0.044457,24.200608,188.495826,1569.971570,35.601366,0
0.098958,75.198105,-185.713508,96.793080,2.160794,-1.986801,5.611536,-2.916346,2.228911,-5.665724,2.364931,0.051852,0.470814,-0.003573,77.058442,188.269552,1569.604119,35.566890,0
0.100000,132.940723,-186.899754,22.449152,0.775900,-3.795851,5.515821,-1.018078,3.970387,-5.480530,0.468626,0.044560,0.460410,-0.018440,132.607016,188.495658,1569.655239,35.072953,0
0.101042,171.303969,-139.755283,-43.084813,-0.496401,-4.841651,4.321462,1.139221,5.070851,-4.281178,-1.709459,-0.006487,0.460548,-0.022156,172.596585,188.420350,1569.567446,35.038678,0
0.102083,198.887087,-64.857354,-95.604338,-1.554775,-5.531512,2.527843,3.296519,5.641462,-2.508605,-3.746655,-0.072118,0.483561,-0.040740,193.086736,188.495582,1569.385687,35.133231,0
0.103125,169.224783,-2.796721,-155.196136,-2.613149,-4.981091,0.605216,4.556877,5.200535,-0.480289,-5.075592,-0.079410,0.462891,-0.029590,163.207142,188.344968,1569.822297,35.375391,0
0.104167,124.895176,57.232026,-190.217254,-3.345004,-3.913275,-1.696110,5.507944,4.103776,1.786134,-5.860007,-0.086703,0.465578,-0.037023,119.288418,188.495626,1570.467430,35.568223,0
0.105208,50.428668,114.594655,-192.270886,-3.401300,-2.085877,-3.652028,5.461550,2.225206,3.845316,-5.806697,-0.119518,0.482045,-0.044457,44.229168,188.420280,1571.761786,34.926718,0
0.106250,-18.421777,164.428733,-164.905322,-2.883372,-0.001616,-5.166825,4.746317,0.191015,5.185769,-4.988011,-0.086703,0.465647,-0.048173,-23.568463,188.495696,1573.003905,34.664517,0
0.107292,-74.695405,185.969081,-96.819505,-1.599812,2.236762,-5.649562,2.906041,-2.106251,5.684029,-3.145016,-0.050241,0.473294,-0.048173,-76.347489,188.344898,1573.474650,34.342456,0
0.108333,-132.539723,186.932172,-22.597095,-0.192400,4.075168,-5.541363,0.926584,-3.862547,5.472379,-1.214440,-0.017425,0.463717,-0.011006,-131.918579,188.495591,1574.823384,33.830578,0
0.109375,-171.547065,139.646762,42.669534,1.057383,5.165001,-4.330358,-1.238447,-5.033411,4.220114,1.032187,0.044560,0.461306,-0.011006,-172.335965,188.420300,1575.640596,33.138509,0
0.110417,-198.836385,64.772322,95.395638,2.127016,5.829176,-2.553385,-3.434407,-5.600317,2.500454,3.076998,0.077375,0.464613,-0.048173,-192.544657,188.495721,1576.223260,32.887211,0
0.111458,-169.174081,2.500279,155.291227,3.230428,5.304441,-0.659889,-4.644505,-5.126043,0.489775,4.379280,0.106545,0.475706,-0.011006,-162.833939,188.344762,1577.204169,32.371042,0
