1-Time,2-VGERA,3-VGERB,4-VGERC,5-VN,6-IGERAN,7-IGERBN,8-IGERCN,9-IGERAT,10-IGERBT,11-IGERCT,12-IN,13-IFD,14-IFAULT,15-VFAULT,16-Speed (rad/s),17-FAULT 
0.000000,62.998700,87.529042,-201.475758,-0.860802,0.345392,-5.791658,4.916276,0.055266,5.796865,-4.733390,-0.007891,0.308486,-0.031958,0.488668,188.518954,0
0.001042,12.161612,154.505573,-166.919887,-0.204822,2.685026,-6.232170,2.987158,-2.278836,6.359222,-2.965141,-0.069992,0.308748,-0.065566,1.472638,188.518052,0
0.002083,-34.796340,204.967510,-99.297728,1.027968,4.815193,-5.664663,0.412512,-4.340931,5.754898,-0.485321,-0.135746,0.312732,-0.002084,2.569708,188.515431,0
0.003125,-106.526313,188.972393,-44.872538,2.068488,6.114595,-4.351062,-2.065117,-5.763447,4.542054,1.973151,-0.183235,0.303391,-0.054364,4.922188,188.587595,0
0.004167,-174.127616,138.752075,4.850000,3.063768,6.544178,-2.497733,-4.117371,-6.119994,2.682919,3.944198,-0.227071,0.307376,-0.046895,7.127638,188.585697,0
0.005208,-197.561222,77.948885,60.580114,4.104288,5.702762,0.109627,-5.639770,-5.417926,0.101953,5.445609,-0.270907,0.311295,-0.009553,7.987198,188.502537,0
0.006250,-173.492436,25.662732,142.876516,5.653758,4.488567,2.439185,-6.509179,-4.131414,-2.206228,6.285261,-0.259948,0.338666,-0.043161,7.975888,188.639479,0
0.007292,-124.708341,-24.231401,190.703220,6.558558,2.397453,4.113928,-5.893503,-2.153860,-3.918479,5.829857,-0.259948,0.327365,-0.058098,6.053188,188.704770,0
0.008333,-62.687548,-86.882969,201.105682,6.750828,-0.226202,5.947413,-5.031556,0.555168,-5.769220,4.901259,-0.223418,0.292874,-0.031958,4.232278,188.557256,0
0.009375,-12.009256,-154.306495,166.894508,6.140088,-2.594238,6.372052,-3.057662,2.903972,-6.293807,3.143682,-0.212459,0.292482,-0.050629,3.316168,188.491250,0
0.010417,34.789901,-204.599298,99.149243,4.850748,-4.674701,5.812482,-0.512867,4.962392,-5.765023,0.656747,-0.157664,0.289215,-0.035692,2.309578,188.714170,0
0.011458,106.293024,-188.978689,45.007197,3.855468,-5.970553,4.459194,1.942374,6.377556,-4.501819,-1.737683,-0.073645,0.301562,-0.039427,-0.020282,188.578374,0
0.012502,174.041779,-138.492591,-4.813826,2.894118,-6.364633,2.605866,4.024479,6.734104,-2.630094,-3.747867,-0.044421,0.306069,-0.024490,-2.248352,188.568171,0
0.013542,197.339275,-77.773968,-60.297727,1.842288,-5.594223,0.026286,5.561803,5.991602,-0.036538,-5.299088,-0.015197,0.307506,-0.058098,-2.904331,188.494632,0
0.014583,172.862159,-25.862323,-142.988069,0.258888,-4.309022,-2.323115,6.405093,4.672008,2.275840,-6.088930,0.003068,0.317958,-0.035692,-3.243631,188.723853,0
0.015625,124.928752,24.478804,-190.556251,-0.691152,-2.242760,-3.981983,5.785685,2.753266,4.009074,-5.633526,-0.018850,0.327169,-0.035692,-1.072112,188.499000,0
0.016667,63.282262,87.613608,-200.983334,-0.860802,0.387996,-5.795626,4.893888,0.066293,5.817849,-4.694254,-0.004238,0.320114,-0.046895,0.726178,188.578405,0
0.017708,12.399805,154.614302,-166.956819,-0.216132,2.699227,-6.180579,2.901336,-2.300890,6.321452,-2.915331,-0.044421,0.319657,-0.028224,1.506568,188.489338,0
0.018750,-34.739627,204.834620,-99.396212,1.016658,4.829394,-5.688474,0.360273,-4.326228,5.775882,-0.453301,-0.132093,0.307768,-0.039427,2.603638,188.664195,0
0.019792,-106.945985,188.839503,-45.340341,2.057178,6.093293,-4.291533,-2.150939,-5.792853,4.567234,1.955361,-0.179582,0.300843,-0.054364,4.831708,188.564643,0
0.020833,-174.683398,139.295715,4.665341,3.007218,6.519326,-2.442173,-4.150953,-6.145725,2.661936,3.937082,-0.230724,0.308486,-0.028224,7.105018,188.575432,0
0.021875,-197.527194,78.987843,60.850947,4.104288,5.685011,0.149312,-5.673352,-5.428953,0.114543,5.442051,-0.241683,0.312928,-0.024490,7.794928,188.512622,0
0.022917,-173.798683,27.124522,143.467425,5.687688,4.453064,2.462997,-6.516642,-4.113035,-2.243998,6.253240,-0.274560,0.322988,-0.061832,7.987198,188.589358,0
0.023958,-125.865276,-23.844812,190.469319,6.547248,2.383252,4.165519,-5.908428,-2.223699,-3.884905,5.822741,-0.219765,0.330631,-0.020755,6.053188,188.591640,0
0.025000,-64.343554,-87.390367,200.859470,6.773448,-0.226202,5.959319,-4.979317,0.518410,-5.773417,4.897701,-0.234377,0.326451,-0.024490,4.367998,188.589313,0
0.026041,-13.052766,-154.197767,166.808334,6.072228,-2.555185,6.372052,-3.027811,2.903972,-6.285413,3.118777,-0.190541,0.322727,-0.039427,3.361408,188.512679,0
0.027083,34.744531,-204.490570,100.281818,4.862058,-4.660500,5.800576,-0.512867,4.914607,-5.748237,0.649632,-0.168623,0.307898,-0.039427,2.298268,188.514726,0
0.028125,106.576586,-188.519615,46.004356,3.878088,-5.974103,4.475069,1.957300,6.366529,-4.497622,-1.719894,-0.091910,0.304632,-0.046895,-0.008972,188.588895,0
0.029167,174.075807,-139.193284,-4.456818,2.882808,-6.389485,2.589992,4.002090,6.689995,-2.625897,-3.754983,-0.044421,0.312471,-0.054364,-2.282282,188.590148,0
0.030208,197.067055,-78.474660,-60.642424,1.842288,-5.533868,-0.005462,5.509564,6.002629,-0.074308,-5.242163,-0.029809,0.314562,-0.024490,-2.938261,188.510966,0
0.031250,173.032297,-26.007294,-143.037311,0.258888,-4.305472,-2.275492,6.356585,4.642602,2.250660,-6.074699,0.003068,0.313908,-0.039427,-3.164461,188.518050,0
0.032292,124.713245,24.623775,-190.408523,-0.600672,-2.239210,-3.970078,5.778222,2.712833,3.946124,-5.615736,-0.015197,0.314953,-0.024490,-1.241762,188.733731,0
0.033333,62.556342,87.541123,-200.921781,-0.894732,0.345392,-5.795626,4.864037,0.055266,5.784275,-4.708485,-0.026156,0.294049,-0.013287,0.466048,188.591245,0
0.034375,11.685227,154.457250,-166.919887,-0.238752,2.677925,-6.160736,2.927456,-2.231051,6.279485,-2.915331,-0.048074,0.293070,-0.073035,1.506568,188.571927,0
0.035417,-35.023190,204.556759,-99.076137,1.039278,4.776140,-5.624977,0.386393,-4.293147,5.721325,-0.442627,-0.099216,0.304175,-0.035692,2.592328,188.657571,0
0.036458,-106.639738,189.153606,-44.453977,2.091108,6.054240,-4.255816,-2.068849,-5.704635,4.504284,1.923341,-0.190541,0.300321,-0.035692,4.888258,188.721545,0
0.037500,-173.617203,138.836641,5.330114,3.041148,6.441220,-2.434236,-4.106177,-6.068534,2.607379,3.922851,-0.201500,0.304371,-0.058098,7.105018,188.545513,0
0.038541,-197.720017,77.755590,60.727841,4.081668,5.642408,0.157250,-5.609919,-5.362790,0.085166,5.452725,-0.234377,0.310969,-0.043161,7.953268,188.471259,0
0.039583,-173.254243,25.384871,142.728788,5.665068,4.389159,2.466965,-6.449477,-4.061574,-2.214621,6.260356,-0.245336,0.325667,-0.050629,7.953268,188.704053,0
0.040625,-124.855794,-24.557586,190.703220,6.558558,2.351300,4.098053,-5.803950,-2.157536,-3.914282,5.762258,-0.248989,0.323511,-0.058098,6.064498,188.773806,0
0.041667,-62.619493,-87.160830,200.884092,6.841308,-0.240404,5.907728,-4.938272,0.529438,-5.693680,4.876354,-0.230724,0.312471,-0.058098,4.266208,188.546268,0
0.042708,-11.771064,-154.378980,166.956061,6.185328,-2.540984,6.316492,-2.997960,2.826781,-6.256036,3.065410,-0.216112,0.311622,-0.031958,3.304858,188.554188,0
0.043750,34.937353,-204.091900,99.284659,4.873368,-4.671151,5.800576,-0.479285,4.896229,-5.672696,0.631842,-0.164970,0.305024,-0.035692,2.286958,188.698823,0
0.044792,106.576586,-189.039094,44.724053,3.821538,-5.910198,4.439352,1.964762,6.307717,-4.443065,-1.759031,-0.051727,0.299406,-0.039427,-0.020282,188.780362,0
0.045833,173.588079,-138.770452,-5.023106,2.882808,-6.350432,2.570149,4.039404,6.686319,-2.575537,-3.722962,-0.055380,0.305939,-0.013287,-2.214422,188.548751,0
0.046875,197.339275,-78.015586,-60.617803,1.797048,-5.498366,-0.033242,5.487176,5.991602,-0.040734,-5.231489,-0.007891,0.311426,-0.013287,-2.893021,188.500616,0
0.047916,173.066324,-25.910647,-142.926516,0.292818,-4.291271,-2.307241,6.319271,4.635250,2.275840,-6.046236,-0.000585,0.320179,-0.039427,-3.254941,188.721273,0
0.048970,124.304915,26.025159,-190.605493,-0.645912,-2.154004,-4.025638,5.733446,2.642994,3.971304,-5.573042,0.017680,0.334094,-0.076769,-1.026872,188.573421,0
0.050001,63.316290,88.084763,-200.638637,-0.894732,0.395096,-5.767846,4.830454,0.029536,5.780079,-4.690696,-0.029809,0.321813,-0.039427,0.692248,188.583604,0
0.051041,12.161612,154.686787,-167.042993,-0.227442,2.695677,-6.188516,2.905068,-2.253105,6.296272,-2.897541,-0.088257,0.317305,-0.073035,1.506568,188.504373,0
0.052083,-35.227355,204.423869,-99.740909,0.982728,4.818743,-5.601165,0.356542,-4.296822,5.767488,-0.431954,-0.139399,0.309270,-0.024490,2.603638,188.725145,0
0.053125,-107.240890,188.984474,-45.426515,2.045868,6.071991,-4.283596,-2.117356,-5.715662,4.500087,1.923341,-0.175929,0.301954,-0.035692,4.843018,188.583440,0
0.054166,-174.467891,139.525253,4.911553,2.995908,6.480273,-2.438204,-4.094982,-6.097940,2.657739,3.929966,-0.208806,0.309858,-0.035692,7.150258,188.584736,0
0.055208,-197.436454,79.314027,61.060227,3.798918,5.688561,0.196935,-5.650964,-5.414250,0.101953,5.445609,-0.267254,0.315411,-0.035692,7.828858,188.510297,0
0.056250,-173.560491,26.810418,143.516667,5.665068,4.460165,2.423311,-6.468134,-4.090980,-2.256588,6.260356,-0.248989,0.323772,-0.043161,8.021128,188.655896,0
0.057291,-125.865276,-24.183078,190.506251,6.581178,2.358400,4.086148,-5.874846,-2.175915,-3.855528,5.794278,-0.216112,0.334812,-0.024490,6.064498,188.584120,0
0.058333,-63.991936,-87.499096,200.699432,6.829998,-0.229753,5.931539,-4.979317,0.540465,-5.714663,4.879912,-0.259948,0.312667,-0.039427,4.413238,188.591350,0
0.059375,-12.474299,-154.306495,166.931440,6.128778,-2.533883,6.316492,-3.031542,2.870890,-6.289610,3.097430,-0.183235,0.312145,-0.020755,3.350098,188.510684,0
0.060416,35.096148,-204.248952,100.121781,4.895988,-4.632098,5.828356,-0.475554,4.885201,-5.710466,0.656747,-0.157664,0.298753,-0.035692,2.275648,188.586651,0
0.061458,106.758066,-188.640424,45.376515,3.878088,-5.927949,4.443320,1.949837,6.318744,-4.480835,-1.691431,-0.088257,0.306788,-0.035692,-0.042902,188.586928,0
0.062500,173.690162,-139.096637,-5.183144,2.882808,-6.318480,2.625709,3.953583,6.671616,-2.588127,-3.680268,-0.033462,0.310054,-0.013287,-2.293592,188.587459,0
0.063542,197.112425,-77.955181,-60.913258,1.830978,-5.533868,0.038192,5.464787,5.995278,-0.065915,-5.195911,-0.000585,0.313059,-0.046895,-2.949571,188.512507,0
0.064583,173.043639,-25.342844,-142.803410,0.304128,-4.259318,-2.275492,6.334197,4.660981,2.221283,-6.024889,0.017680,0.320245,-0.058098,-3.164461,188.590110,0
0.065625,124.577135,24.949959,-190.396213,-0.578052,-2.217909,-3.918486,5.699864,2.712833,3.937730,-5.590831,0.021333,0.316717,-0.028224,-1.264382,188.594488,0
0.066666,62.295465,87.541123,-200.798675,-0.815562,0.384445,-5.771815,4.845380,0.066293,5.738112,-4.683581,-0.029809,0.308486,-0.039427,0.454738,188.597686,0
0.067708,11.242870,154.505573,-167.079925,-0.193512,2.638872,-6.160736,2.923724,-2.289863,6.287878,-2.929562,-0.048074,0.330370,-0.043161,1.529188,188.511015,0
0.068750,-35.250040,204.170170,-99.223864,1.027968,4.733536,-5.617040,0.401318,-4.300498,5.704538,-0.421280,-0.135746,0.324360,-0.013287,2.614948,188.670950,0
0.069792,-106.900615,189.346901,-44.072349,2.113728,6.022287,-4.263753,-2.031535,-5.682580,4.529464,1.930457,-0.172276,0.298622,-0.050629,4.888258,188.516755,0
0.070833,-173.435723,138.993693,5.859470,3.029838,6.473173,-2.414393,-4.106177,-6.039128,2.624166,3.922851,-0.168623,0.306592,-0.024490,7.105018,188.595029,0
0.071875,-197.822099,77.828076,61.072538,4.126908,5.660159,0.157250,-5.583799,-5.362790,0.080970,5.385126,-0.281866,0.308094,-0.065566,7.987198,188.566458,0
0.072916,-173.242901,25.155334,142.814963,5.653758,4.449514,2.407437,-6.400969,-4.024817,-2.168458,6.196315,-0.252642,0.297512,-0.024490,7.987198,188.720835,0
0.073958,-125.071301,-24.859608,190.715531,6.569868,2.358400,4.006776,-5.811413,-2.139157,-3.884905,5.751584,-0.252642,0.307114,-0.050629,6.053188,188.569295,0
0.075000,-62.823658,-87.184992,200.699432,6.762138,-0.251054,5.907728,-4.938272,0.474301,-5.668499,4.844333,-0.234377,0.324164,-0.024490,4.277518,188.578146,0
0.076041,-11.521529,-154.499789,167.239205,6.174018,-2.548084,6.268869,-3.012885,2.815754,-6.197283,3.133009,-0.183235,0.317305,-0.046895,3.282238,188.500441,0
0.077083,35.254943,-203.705311,99.653978,4.895988,-4.617897,5.741047,-0.483016,4.819038,-5.651713,0.628285,-0.190541,0.310642,-0.024490,2.275648,188.716860,0
0.078125,106.814779,-189.232388,44.687121,3.844158,-5.871145,4.447289,1.908792,6.300365,-4.493425,-1.680758,-0.088257,0.302346,-0.031958,-0.031592,188.702299,0
0.079166,173.236462,-138.999989,-5.527841,2.848878,-6.261675,2.617772,3.979702,6.671616,-2.604914,-3.705173,-0.066339,0.307833,-0.039427,-2.259662,188.552278,0
0.080209,197.566125,-78.281366,-61.085606,1.751808,-5.523218,0.034224,5.483444,5.954845,-0.095291,-5.163890,-0.000585,0.313908,-0.020755,-2.893021,188.556934,0
0.081250,173.032297,-25.814000,-142.988069,0.258888,-4.273520,-2.251681,6.334197,4.631575,2.200300,-5.989310,-0.007891,0.323184,-0.054364,-3.209701,188.704842,0
0.082291,125.700042,24.913716,-190.457766,-0.691152,-2.313766,-3.910549,5.744640,2.712833,3.899960,-5.590831,-0.011544,0.338862,-0.054364,-1.106042,188.621504,0
0.083333,63.826702,87.879388,-200.441667,-0.883422,0.327641,-5.740066,4.901350,0.084672,5.696145,-4.690696,-0.044421,0.325993,-0.017021,0.669628,188.558957,0
0.084375,11.991475,154.831758,-167.227652,-0.250062,2.656624,-6.176610,2.957307,-2.201645,6.317255,-2.929562,-0.088257,0.321225,-0.076769,1.517878,188.545314,0
0.085416,-35.635685,203.988956,-99.999432,1.050588,4.726436,-5.597197,0.405050,-4.230659,5.771685,-0.471090,-0.124787,0.309989,-0.017021,2.626258,188.696869,0
0.086458,-107.445055,189.250253,-45.315720,2.068488,6.050689,-4.279627,-2.031535,-5.682580,4.554644,1.919783,-0.168623,0.302476,-0.028224,4.843018,188.567776,0
0.087500,-174.070903,139.718547,5.243939,3.029838,6.455421,-2.477890,-4.065131,-6.094264,2.645149,3.919293,-0.223418,0.310446,-0.035692,7.150258,188.495635,0
0.088541,-197.674647,79.301946,61.380303,4.115598,5.681461,0.129470,-5.609919,-5.366466,0.122937,5.417146,-0.227071,0.315999,-0.031958,7.828858,188.496585,0
0.089583,-173.447066,26.508396,143.455114,5.676378,4.467265,2.407437,-6.415895,-4.120386,-2.176851,6.231893,-0.285519,0.327300,-0.002084,7.975888,188.723949,0
0.090625,-125.831249,-24.593828,190.481629,6.547248,2.432956,4.062336,-5.837532,-2.157536,-3.851331,5.762258,-0.227071,0.326516,-0.024490,6.041878,188.567624,0
0.091667,-63.504208,-87.692390,200.662501,6.784758,-0.219102,5.895822,-4.975586,0.474301,-5.693680,4.879912,-0.245336,0.321551,-0.017021,4.458478,188.564083,0
0.092708,-11.737036,-154.463546,167.288447,6.117468,-2.484179,6.272837,-3.053930,2.790024,-6.226660,3.090315,-0.194194,0.320179,-0.043161,3.327478,188.494741,0
0.093750,35.527163,-203.995253,100.010985,4.907298,-4.600145,5.748984,-0.512867,4.841092,-5.668499,0.663863,-0.124787,0.303456,-0.024490,2.298268,188.721666,0
0.094791,106.871491,-188.869961,44.822538,3.855468,-5.885346,4.427446,1.886404,6.296689,-4.480835,-1.666527,-0.099216,0.305612,-0.031958,-0.065522,188.495146,0
0.095833,173.281832,-139.024151,-5.872538,2.894118,-6.297178,2.621740,3.938657,6.620156,-2.655274,-3.687383,-0.051727,0.310446,-0.024490,-2.282282,188.550680,0
0.096875,197.248535,-77.484026,-61.184091,1.819668,-5.501916,0.081847,5.449862,5.958520,-0.128865,-5.160332,-0.022503,0.314562,-0.017021,-2.949571,188.474190,0
0.097916,173.054982,-24.871689,-142.618750,0.270198,-4.262869,-2.219932,6.296883,4.635250,2.204496,-5.999984,0.021333,0.326059,-0.065566,-3.153151,188.705618,0
0.098958,124.679217,25.481519,-190.359281,-0.668532,-2.228559,-3.902612,5.703595,2.705482,3.883173,-5.555253,-0.044421,0.339385,-0.073035,-1.219142,188.623114,0
0.100000,62.170697,87.722336,-200.614016,-0.860802,0.348943,-5.724192,4.882694,0.058942,5.721325,-4.676465,-0.018850,0.305677,-0.043161,0.466048,188.555779,0
0.101041,10.834540,154.578059,-167.166099,-0.193512,2.624671,-6.125019,2.961038,-2.197969,6.283682,-2.958025,-0.051727,0.282226,-0.031958,1.585738,188.477090,0
0.102083,-35.760452,203.892309,-99.248485,1.061898,4.712235,-5.589260,0.423707,-4.212280,5.700341,-0.474648,-0.113828,0.303064,-0.046895,2.637568,188.710065,0
0.103125,-107.229548,189.648923,-43.924621,2.102418,5.990335,-4.275658,-2.005415,-5.678904,4.491694,1.848626,-0.208806,0.300974,-0.050629,4.888258,188.626597,0
0.104166,-173.163503,139.247392,6.228788,3.029838,6.419918,-2.434236,-4.024086,-5.991343,2.649346,3.880157,-0.197847,0.305481,-0.069301,7.071088,188.553790,0
0.105208,-197.878812,77.924723,61.306440,4.092978,5.660159,0.141375,-5.553948,-5.370141,0.139723,5.402915,-0.223418,0.311361,-0.058098,7.953268,188.480157,0
0.106250,-173.208873,25.082849,142.765720,5.665068,4.410461,2.403468,-6.404700,-4.024817,-2.164261,6.150063,-0.263601,0.314170,-0.028224,7.930648,188.696840,0
0.107291,-125.264124,-25.101226,190.789395,6.558558,2.408104,4.062336,-5.800218,-2.168563,-3.821955,5.740910,-0.245336,0.334943,-0.031958,6.064498,188.557366,0
0.108333,-63.027823,-87.354125,200.588637,6.796068,-0.240404,5.875979,-4.938272,0.522086,-5.668499,4.822986,-0.245336,0.320506,-0.024490,4.300138,188.474304,0
0.109375,-11.476159,-154.656841,167.362311,6.140088,-2.452227,6.225214,-3.024079,2.771645,-6.230856,3.104546,-0.194194,0.320898,-0.035692,3.282238,188.549906,0
0.110418,35.742671,-204.019415,99.641667,4.850748,-4.550441,5.721204,-0.475554,4.793308,-5.609746,0.674537,-0.164970,0.308356,-0.043161,2.264338,188.575988,0
0.111458,107.189081,-189.304874,44.625568,3.832848,-5.860494,4.427446,1.901329,6.230526,-4.438868,-1.691431,-0.091910,0.302934,-0.043161,-0.020282,188.513808,0
0.112500,173.134379,-139.157041,-5.860227,2.894118,-6.282977,2.597929,3.957314,6.642210,-2.604914,-3.683826,-0.037115,0.308225,-0.024490,-2.282282,188.518099,0
0.113541,197.588810,-78.414256,-61.430303,1.797048,-5.512567,0.050098,5.446130,5.943817,-0.107881,-5.135427,-0.026156,0.314039,-0.054364,-2.870401,188.516288,0
0.114583,172.964242,-25.789838,-143.123485,0.270198,-4.266419,-2.231838,6.281957,4.653629,2.191906,-5.982195,0.006721,0.322270,-0.035692,-3.209701,188.445833,0
0.115625,125.813467,25.227820,-190.556251,-0.645912,-2.246311,-3.882769,5.714789,2.720185,3.883173,-5.558811,-0.000585,0.336380,-0.069301,-1.106042,188.508272,0
0.116666,63.815360,88.048521,-200.293940,-0.860802,0.380895,-5.696412,4.886425,0.062617,5.717128,-4.658676,-0.015197,0.326124,-0.031958,0.658318,188.517399,0
0.117708,11.980132,154.904243,-167.301516,-0.238752,2.624671,-6.152799,2.946113,-2.216348,6.279485,-2.933120,-0.073645,0.311426,-0.054364,1.517878,188.514373,0
0.118750,-35.885220,203.735257,-100.270265,1.027968,4.758388,-5.577354,0.408781,-4.256389,5.742308,-0.471090,-0.124787,0.311165,-0.020755,2.648878,188.438354,0
0.119792,-107.660563,189.262334,-45.266477,2.057178,6.040039,-4.307407,-2.020341,-5.693607,4.516874,1.848626,-0.175929,0.308160,-0.046895,4.809088,188.516979,0
0.120833,-173.912108,139.742709,5.576326,3.018528,6.469622,-2.422330,-4.046475,-6.050155,2.645149,3.880157,-0.190541,0.311295,-0.046895,7.116328,188.513375,0
0.121875,-197.617934,79.036166,61.577273,4.149528,5.656609,0.093752,-5.557679,-5.388520,0.131330,5.395799,-0.216112,0.314953,-0.061832,7.817548,188.495227,0
0.122916,-173.265586,26.109726,143.479735,5.732928,4.449514,2.371719,-6.445745,-4.109359,-2.147474,6.196315,-0.259948,0.328737,-0.058098,7.975888,188.559307,0
0.123958,-125.468289,-25.016660,190.469319,6.581178,2.447157,4.046462,-5.848726,-2.216348,-3.842938,5.783605,-0.248989,0.348857,-0.035692,6.098428,188.501034,0
0.125000,-62.914398,-87.873604,200.527084,6.784758,-0.187149,5.875979,-5.009168,0.485329,-5.664303,4.890585,-0.223418,0.317697,-0.054364,4.447168,188.491674,0
0.126041,-11.124541,-154.499789,167.177652,6.140088,-2.455777,6.304586,-3.068856,2.808403,-6.264430,3.097430,-0.183235,0.300843,-0.028224,3.316168,188.482762,0
0.127083,35.754013,-203.946929,99.863258,4.895988,-4.561092,5.745016,-0.497942,4.826389,-5.660106,0.670979,-0.168623,0.305285,-0.046895,2.275648,188.628482,0
0.128125,106.939546,-188.894123,44.416288,3.832848,-5.864044,4.479037,1.901329,6.296689,-4.510212,-1.648737,-0.113828,0.305089,-0.061832,-0.054212,188.481729,0
