1-Time,2-VGERA,3-VGERB,4-VGERC,5-VN,6-IGERAN,7-IGERBN,8-IGERCN,9-IGERAT,10-IGERBT,11-IGERCT,12-IN,13-IFD,14-IFAULT,15-VFAULT,16-Speed (rad/s),17-Active Power,18-Reactive Power,19-FAULT 
0.000000,81.232265,66.064273,-201.226669,-3.603968,-0.284222,-5.622509,5.329165,0.695041,5.524004,-5.393381,0.011237,0.346932,-0.078573,-74.636224,188.495993,1530.357602,-917.647274,0
0.001042,26.246828,146.411888,-176.449410,-3.198633,2.236706,-6.583939,3.803835,-1.785827,6.500553,-3.879383,-0.050748,0.338802,-0.067423,-20.843949,188.495772,1530.541758,-918.535137,0
0.002083,-23.348544,186.802977,-120.247928,-2.083962,4.273263,-5.976508,1.271711,-3.682748,6.132762,-1.403996,-0.090856,0.325780,-0.093440,26.384723,188.571185,1531.392610,-917.794599,0
0.003125,-90.413601,197.103351,-56.196467,-0.811661,6.302482,-4.998987,-1.445874,-5.626820,5.122392,1.446105,-0.141902,0.312413,-0.056273,94.587654,188.495736,1531.299634,-917.037464,0
0.004167,-154.348579,156.888437,-2.510381,0.303010,6.680438,-3.076126,-3.535160,-6.098330,3.283436,3.577057,-0.192949,0.321301,-0.063706,154.110416,188.495879,1531.320245,-916.324924,0
0.005208,-202.407161,91.915041,46.460856,1.215013,6.258448,-0.509629,-5.450339,-5.597804,0.713124,5.541469,-0.233057,0.328536,-0.059989,199.796697,188.495866,1530.600189,-916.285524,0
0.006250,-184.496779,38.510480,122.190074,2.656203,5.003489,1.771255,-6.146767,-4.542347,-1.573946,6.381738,-0.251287,0.355475,-0.067423,177.246273,188.571246,1530.390697,-915.493810,0
0.007292,-138.291385,-10.560172,188.428836,3.939764,3.179761,3.822843,-6.298165,-2.768744,-3.569320,6.536923,-0.254934,0.354373,-0.056273,132.381849,188.495772,1529.876425,-914.621304,0
0.008333,-81.554460,-66.149305,201.054423,4.164950,0.365275,5.604909,-5.151328,-0.139169,-5.404049,5.393854,-0.240349,0.343211,-0.052556,75.887577,188.495835,1529.758917,-913.782646,0
0.009375,-26.693322,-146.896249,176.508046,3.737096,-2.155653,6.618635,-3.644923,2.330818,-6.465148,3.887426,-0.211179,0.340180,-0.059989,21.802585,188.495839,1529.539953,-913.595591,0
0.010417,23.444447,-186.899754,120.804783,2.633685,-4.221566,6.051432,-1.131724,4.278517,-6.021262,1.412040,-0.145548,0.324402,-0.089723,-26.045295,188.495897,1528.975503,-913.867584,0
0.011458,91.074500,-197.082678,56.826232,1.361384,-6.236107,5.098046,1.623710,6.237097,-5.040485,-1.407781,-0.090856,0.317029,-0.056273,-94.394583,188.495899,1528.980402,-913.202477,0
0.012500,154.546180,-156.949978,2.872809,0.303010,-6.617732,3.147026,3.697856,6.719488,-3.239576,-3.557659,-0.054394,0.322817,-0.052556,-153.849796,188.495834,1528.708271,-912.769021,0
0.013542,202.559563,-91.906112,-46.049821,-0.642772,-6.232437,0.552370,5.658454,6.247978,-0.686174,-5.510716,-0.025225,0.325573,-0.056273,-199.671177,188.495915,1528.831273,-912.326168,0
0.014583,184.264984,-37.820341,-121.973466,-2.072703,-4.915097,-1.756673,6.404087,5.119981,1.676991,-6.426685,-0.010640,0.330327,-0.093440,-176.388962,188.495808,1529.201343,-911.735089,0
0.015625,137.494593,11.391252,-188.358048,-3.401300,-3.186775,-3.816306,6.498710,3.418918,3.744232,-6.532665,0.018530,0.311311,-0.086006,-131.164272,188.495917,1529.565649,-910.823130,0
0.016667,79.819774,66.369644,-201.178062,-3.649005,-0.265874,-5.594350,5.332950,0.720430,5.528231,-5.435016,-0.010640,0.319647,-0.082290,-74.658740,188.495808,1530.275384,-909.988900,0
0.017708,25.794831,146.869943,-176.388652,-3.198633,2.244045,-6.604053,3.811404,-1.745930,6.593558,-3.947513,-0.028871,0.324333,-0.089723,-21.463157,188.495817,1532.147476,-909.679280,0
0.018750,-23.303345,186.967407,-120.612478,-2.072703,4.295280,-5.996622,1.294421,-3.686375,6.086259,-1.400211,-0.072625,0.321439,-0.067423,26.317173,188.495937,1531.697234,-909.786123,0
0.019792,-91.622693,196.833216,-57.156449,-0.867958,6.372202,-5.007032,-1.453444,-5.644955,5.177350,1.434750,-0.171072,0.316340,-0.067423,95.296928,188.495879,1532.761459,-909.863127,0
0.020833,-154.992674,156.583066,-3.360998,0.235454,6.742819,-3.068080,-3.618429,-6.138227,3.283436,3.626262,-0.178364,0.325366,-0.071140,155.011082,188.495785,1533.142559,-910.851120,0
0.021875,-203.039957,92.478801,46.606676,1.169976,6.309821,-0.493538,-5.499543,-5.692106,0.683532,5.586889,-0.211179,0.328329,-0.086006,200.134447,188.495866,1534.512918,-912.058348,0
0.022917,-183.909183,38.334305,122.724747,2.644944,5.010827,1.871823,-6.283025,-4.567736,-1.628903,6.449868,-0.276811,0.329225,-0.067423,176.536999,188.420403,1535.240352,-912.900846,0
0.023958,-137.794188,-11.217893,188.744780,3.928504,3.194438,3.919389,-6.343584,-2.779625,-3.704599,6.608838,-0.251287,0.345209,-0.056273,131.616283,188.495729,1536.498420,-914.326717,0
0.025000,-79.689972,-66.501655,201.115181,4.198728,0.339589,5.689387,-5.189178,-0.026732,-5.463234,5.469554,-0.258580,0.325986,-0.067423,74.052470,188.495883,1537.119088,-915.200710,0
0.026042,-24.941834,-147.213365,176.714625,3.692059,-2.185009,6.687022,-3.667633,2.432374,-6.583517,3.959341,-0.211179,0.294154,-0.078573,20.507878,188.495875,1539.161745,-916.240862,0
0.027083,23.975543,-187.193379,119.723284,2.599907,-4.247253,6.111772,-1.112800,4.351057,-6.055082,1.427180,-0.134610,0.308279,-0.071140,-26.281719,188.420553,1540.004297,-916.451436,0
0.028125,91.413497,-197.270598,56.473833,1.395162,-6.335183,5.106092,1.646420,6.287875,-5.103897,-1.434276,-0.101794,0.310897,-0.045123,-94.844916,188.495968,1541.143638,-916.960515,0
0.029167,154.726979,-156.339238,3.419635,0.348047,-6.698460,3.151049,3.758415,6.755758,-3.226893,-3.614434,-0.028871,0.327915,-0.067423,-154.705428,188.495839,1541.186273,-917.888742,0
0.030208,203.011560,-92.833968,-46.353613,-0.620253,-6.294818,0.596620,5.628175,6.284248,-0.669264,-5.590201,-0.021578,0.330189,-0.063706,-199.682435,188.495814,1542.149311,-919.326651,0
0.031250,183.880786,-39.194507,-122.824083,-2.140259,-4.926105,-1.776786,6.438151,5.134489,1.643171,-6.430470,0.000299,0.335357,-0.100873,-176.231345,188.345015,1542.533468,-919.309079,0
0.032292,138.274288,10.557356,-188.807660,-3.412560,-3.128063,-3.832397,6.544130,3.375394,3.744232,-6.593225,0.011237,0.357956,-0.071140,-131.355663,188.495873,1542.906158,-920.454730,0
0.033333,80.904567,66.569309,-200.862118,-3.671523,-0.273213,-5.610441,5.344304,0.713176,5.566278,-5.427446,0.000299,0.326882,-0.089723,-74.287216,188.495756,1542.976780,-921.225660,0
0.034375,25.840031,147.187058,-176.425107,-3.131077,2.273401,-6.596008,3.807620,-1.727795,6.572420,-3.875598,-0.032517,0.339628,-0.063706,-20.382357,188.495857,1542.169482,-921.202187,0
0.035417,-23.834441,186.979152,-119.579586,-2.072703,4.339314,-5.968463,1.260356,-3.722645,6.069349,-1.381287,-0.112733,0.335426,-0.041406,26.722473,188.420428,1541.975588,-921.124836,0
0.036458,-91.294995,197.009391,-55.759007,-0.822920,6.379541,-5.047260,-1.461014,-5.626820,5.147757,1.502880,-0.130964,0.312826,-0.063706,95.195603,188.495834,1541.258608,-921.260873,0
0.037500,-154.664976,156.148501,-2.352410,0.246713,6.731810,-3.100262,-3.580579,-6.080195,3.266526,3.611122,-0.189302,0.323575,-0.093440,154.617041,188.495899,1540.545697,-920.334792,0
0.038542,-202.904358,91.280810,46.813254,1.248791,6.331838,-0.505606,-5.480618,-5.648582,0.708897,5.571749,-0.214826,0.325573,-0.082290,200.021864,188.495825,1540.125694,-919.319623,0
0.039583,-183.976983,37.735309,122.870567,2.678722,4.992480,1.847687,-6.203541,-4.491569,-1.586629,6.430943,-0.236703,0.317512,-0.071140,176.717132,188.345050,1539.396764,-918.665227,0
0.040625,-137.624689,-10.748093,189.036420,3.973542,3.212786,3.863071,-6.320874,-2.754236,-3.658097,6.578558,-0.247641,0.324608,-0.097156,132.044100,188.495931,1538.745820,-918.280449,0
0.041667,-81.034663,-66.560380,200.823541,4.153690,0.357936,5.637091,-5.174038,-0.073883,-5.471689,5.420349,-0.218472,0.335426,-0.022822,75.639893,188.495939,1538.460006,-918.366800,0
0.042708,-26.173526,-147.530480,176.301468,3.748356,-2.159322,6.606567,-3.682773,2.345326,-6.477830,3.883641,-0.211179,0.335357,-0.063706,21.386027,188.495921,1536.732456,-917.291520,0
0.043750,23.794744,-186.970224,120.209351,2.644944,-4.272939,6.015227,-1.112800,4.307533,-6.029717,1.419610,-0.174718,0.335494,-0.071140,-26.360528,188.345012,1536.188151,-917.023403,0
0.044792,91.876794,-197.211873,56.668260,1.350125,-6.221429,5.077933,1.635065,6.237097,-5.065850,-1.426706,-0.094502,0.315582,-0.074856,-95.103858,188.495821,1535.590304,-916.503365,0
0.045833,154.930378,-156.468433,2.799899,0.314269,-6.636079,3.102776,3.739491,6.719488,-3.235348,-3.606864,-0.047102,0.324195,-0.097156,-154.356420,188.495864,1535.575030,-915.970864,0
0.046875,202.988960,-91.459802,-46.438674,-0.631512,-6.236107,0.576506,5.639529,6.291502,-0.631217,-5.556136,-0.017932,0.325642,-0.071140,-199.761244,188.495814,1535.186779,-915.390466,0
0.047917,183.892086,-37.573696,-122.495988,-2.117740,-4.867393,-1.768741,6.419227,5.080084,1.706583,-6.426685,0.022176,0.353408,-0.063706,-176.051212,188.344874,1534.394517,-915.597007,0
0.048958,137.144295,11.496957,-188.746902,-3.345004,-3.124394,-3.816306,6.506280,3.357259,3.748459,-6.551590,0.029468,0.325159,-0.082290,-130.792747,188.495834,1533.782344,-914.868113,0
0.050000,79.379077,66.686759,-201.068697,-3.649005,-0.258536,-5.634577,5.340519,0.662398,5.511321,-5.423661,0.025822,0.331085,-0.093440,-74.005758,188.495835,1533.189628,-914.227187,0
0.051042,25.082936,147.234038,-176.291438,-3.187373,2.284409,-6.604053,3.860609,-1.749557,6.559738,-3.883168,-0.010640,0.325917,-0.082290,-20.821432,188.495888,1533.199495,-914.012562,0
0.052083,-23.710142,187.155328,-119.931985,-2.072703,4.328306,-6.020758,1.260356,-3.748034,6.086259,-1.392642,-0.109087,0.333841,-0.104590,26.733731,188.420499,1533.608568,-914.451188,0
0.053125,-92.006891,196.880196,-57.022781,-0.822920,6.379541,-5.043237,-1.468584,-5.666717,5.143530,1.468815,-0.138256,0.319165,-0.082290,95.736003,188.495993,1534.093104,-914.815792,0
0.054167,-155.365572,156.136756,-3.105813,0.235454,6.742819,-3.076126,-3.603289,-6.141854,3.266526,3.580842,-0.207533,0.327364,-0.093440,155.450157,188.495868,1534.795703,-915.070564,0
0.055208,-203.277255,92.196921,47.068439,1.181235,6.328168,-0.481470,-5.544962,-5.695733,0.717352,5.575534,-0.214826,0.329225,-0.045123,200.258289,188.495828,1535.678851,-915.474735,0
0.056250,-183.750984,38.240345,123.295876,2.667463,4.981472,1.887914,-6.275455,-4.531466,-1.633131,6.480148,-0.280457,0.337286,-0.074856,176.401899,188.344999,1536.436996,-916.393580,0
0.057292,-137.635989,-11.405813,189.024268,3.962282,3.179761,3.903298,-6.309519,-2.775998,-3.725737,6.593698,-0.265872,0.350997,-0.100873,131.514958,188.495832,1537.052871,-916.878546,0
0.058333,-79.565673,-66.924476,200.908603,4.164950,0.321241,5.697432,-5.147543,-0.066629,-5.501281,5.424134,-0.265872,0.337975,-0.078573,73.849820,188.495868,1537.331960,-916.599833,0
0.059375,-24.535036,-147.506990,176.520198,3.725837,-2.170331,6.658863,-3.622214,2.410612,-6.532788,3.898781,-0.207533,0.314411,-0.086006,20.091320,188.495939,1538.116898,-917.101767,0
0.060417,24.190242,-187.169889,119.285824,2.644944,-4.269269,6.039363,-1.109015,4.401835,-5.978987,1.366620,-0.167425,0.289056,-0.078573,-26.585694,188.420493,1537.464793,-917.952167,0
0.061458,91.842895,-197.141403,55.975615,1.383902,-6.280140,5.130228,1.619925,6.266113,-5.032030,-1.445631,-0.094502,0.320750,-0.067423,-95.193924,188.495902,1537.208646,-918.178010,0
0.062500,154.941678,-156.057357,2.982174,0.336788,-6.647088,3.134958,3.747061,6.741250,-3.222666,-3.587939,-0.050748,0.325780,-0.059989,-155.009403,188.495839,1537.175400,-918.079178,0
0.063542,203.135859,-92.458128,-46.778921,-0.631512,-6.258124,0.568461,5.677379,6.269740,-0.648127,-5.548566,-0.017932,0.332463,-0.067423,-199.795019,188.495750,1537.241134,-918.139383,0
0.064583,183.722587,-39.030077,-123.140026,-2.072703,-4.907758,-1.760695,6.441936,5.098219,1.655854,-6.426685,0.029468,0.338733,-0.100873,-176.152537,188.344948,1537.656581,-917.998620,0
0.065625,138.262988,10.686551,-188.953480,-3.412560,-3.135402,-3.824352,6.494925,3.342751,3.706184,-6.619719,0.003945,0.343073,-0.078573,-131.333146,188.495908,1538.288505,-918.602613,0
0.066667,80.712468,66.956894,-200.643388,-3.637746,-0.317247,-5.642622,5.344304,0.633382,5.536686,-5.400951,0.007591,0.337355,-0.063706,-73.994499,188.496016,1537.972519,-919.517563,0
0.067708,25.670532,147.374978,-176.242832,-3.142336,2.251384,-6.591985,3.777340,-1.785827,6.585103,-3.860458,-0.032517,0.348241,-0.100873,-20.168449,188.495808,1537.854614,-920.403863,0
0.068750,-23.879641,186.955662,-119.433766,-2.061443,4.331975,-6.008690,1.241432,-3.722645,6.090487,-1.362362,-0.094502,0.334392,-0.100873,27.003931,188.345191,1537.510455,-920.109031,0
0.069792,-91.803492,196.974156,-55.649642,-0.811661,6.328168,-5.003010,-1.483724,-5.641328,5.101255,1.499095,-0.163779,0.315238,-0.078573,95.544611,188.495821,1536.792839,-919.757107,0
0.070833,-154.766676,155.948836,-2.060769,0.269232,6.709793,-3.068080,-3.573009,-6.083822,3.211568,3.592197,-0.214826,0.319716,-0.123173,154.752140,188.495761,1535.649256,-919.436803,0
0.071875,-203.051257,91.245575,47.068439,1.237532,6.284135,-0.489515,-5.457908,-5.648582,0.670849,5.552824,-0.225764,0.325573,-0.082290,200.145705,188.495868,1534.557938,-919.114065,0
0.072917,-183.852684,37.288999,123.077146,2.644944,4.922760,1.879868,-6.188401,-4.484315,-1.620448,6.396878,-0.273164,0.321439,-0.089723,176.627065,188.345064,1533.428172,-918.081938,0
0.073958,-137.330891,-11.323598,189.145785,3.962282,3.227464,3.826866,-6.260315,-2.754236,-3.649642,6.536923,-0.276811,0.331843,-0.071140,131.807675,188.495609,1532.483055,-917.034359,0
0.075000,-80.424467,-66.994946,200.726328,4.164950,0.321241,5.677318,-5.113479,-0.066629,-5.425186,5.344649,-0.254934,0.329431,-0.056273,75.324660,188.495783,1531.110719,-916.564420,0
0.076042,-25.823228,-147.765380,176.228558,3.748356,-2.174000,6.554272,-3.610859,2.363461,-6.465148,3.853361,-0.156487,0.329500,-0.086006,21.138344,188.495774,1529.970582,-916.138924,0
0.077083,23.862544,-186.970224,120.343020,2.644944,-4.199549,5.987068,-1.101445,4.274890,-5.962077,1.355265,-0.145548,0.328191,-0.067423,-26.529403,188.344972,1529.291573,-915.280435,0
0.078125,92.272292,-196.929992,56.388771,1.350125,-6.217759,5.065865,1.612356,6.237097,-5.015120,-1.419136,-0.094502,0.318132,-0.067423,-95.441608,188.495863,1529.083556,-914.788448,0
0.079167,155.122476,-156.292258,2.411046,0.303010,-6.603054,3.094731,3.705426,6.646948,-3.201528,-3.595509,-0.039809,0.324264,-0.067423,-154.491520,188.495727,1528.213873,-914.303703,0
0.080208,202.966360,-91.506782,-46.778921,-0.654031,-6.181065,0.512143,5.639529,6.204454,-0.631217,-5.575061,0.022176,0.325435,-0.108307,-199.716210,188.495801,1527.366681,-914.222821,0
0.081250,183.846887,-37.315305,-122.860538,-2.083962,-4.841707,-1.784832,6.362453,5.047441,1.702356,-6.388835,0.007591,0.324264,-0.089723,-176.006179,188.348151,1526.451558,-913.945433,0
0.082292,137.008696,11.896287,-188.880570,-3.356263,-3.069352,-3.796193,6.472216,3.346378,3.748459,-6.521310,0.022176,0.304145,-0.071140,-130.522547,188.495752,1525.522743,-913.118705,0
0.083333,79.243478,67.121324,-200.947180,-3.592708,-0.236519,-5.606418,5.302670,0.716803,5.502866,-5.340391,-0.006994,0.278721,-0.082290,-73.409066,188.495711,1525.246364,-911.428584,0
0.084375,24.676138,147.351488,-176.169921,-3.176114,2.255053,-6.551758,3.792480,-1.753184,6.555510,-3.837748,-0.021578,0.315376,-0.078573,-20.371099,188.495781,1524.894689,-910.555820,0
0.085417,-24.196039,187.061367,-119.713255,-2.072703,4.284272,-5.948349,1.230077,-3.715391,6.056667,-1.332082,-0.094502,0.328880,-0.089723,27.037706,188.420309,1524.398577,-910.651638,0
0.086458,-92.424988,196.704021,-56.621775,-0.856698,6.324499,-4.962782,-1.502648,-5.605058,5.105482,1.529375,-0.141902,0.318476,-0.052556,96.028719,188.495747,1524.127560,-910.853878,0
0.087500,-155.489871,156.125011,-2.814173,0.235454,6.665760,-3.039921,-3.576794,-6.080195,3.245388,3.664112,-0.200241,0.326744,-0.071140,155.495190,188.495655,1524.571570,-911.782166,0
0.088542,-203.152956,92.279136,47.262866,1.226272,6.276796,-0.417106,-5.457908,-5.608685,0.679304,5.620954,-0.225764,0.326675,-0.074856,200.021864,188.495741,1524.642028,-912.745618,0
0.089583,-183.637985,38.052424,123.538909,2.667463,4.955785,1.904005,-6.192186,-4.433537,-1.611993,6.393093,-0.262226,0.334116,-0.048839,176.323090,188.420294,1524.117458,-912.951427,0
0.090625,-137.579489,-11.840378,189.060723,3.939764,3.139396,3.899275,-6.264100,-2.736101,-3.708827,6.499073,-0.236703,0.350446,-0.086006,131.402375,188.495665,1523.759116,-913.487469,0
0.091667,-79.486573,-67.241591,200.945058,4.142431,0.277208,5.669273,-5.075630,-0.015851,-5.408276,5.359789,-0.233057,0.338319,-0.104590,73.725978,188.495655,1523.669265,-913.440538,0
0.092710,-24.094339,-147.859340,176.410833,3.714578,-2.203356,6.602545,-3.573009,2.399731,-6.452465,3.804157,-0.240349,0.333359,-0.082290,19.584695,188.495669,1523.250933,-913.381502,0
0.093750,24.642239,-187.205124,119.358734,2.588648,-4.265600,5.954886,-1.025746,4.354684,-5.907120,1.317415,-0.141902,0.316547,-0.104590,-27.024769,188.420336,1522.754748,-913.801807,0
0.094792,92.147993,-197.047443,55.465244,1.417680,-6.232437,5.045751,1.672915,6.255232,-5.036257,-1.475911,-0.087210,0.312137,-0.071140,-95.509158,188.495649,1522.925094,-914.229140,0
0.095834,154.964277,-155.963397,2.253074,0.336788,-6.577368,3.054503,3.705426,6.650575,-3.176163,-3.584154,-0.050748,0.325642,-0.071140,-155.065695,188.495747,1522.618258,-914.097908,0
0.096875,202.875961,-92.000072,-47.070561,-0.620253,-6.155378,0.483984,5.586540,6.204454,-0.605852,-5.495576,0.003945,0.327089,-0.086006,-199.502302,188.495736,1522.179622,-913.580318,0
0.097917,183.699988,-38.513296,-123.431666,-2.072703,-4.812351,-1.768741,6.366238,5.069203,1.643171,-6.328275,0.022176,0.342247,-0.071140,-176.197570,188.420233,1522.163320,-912.744624,0
0.098959,138.104789,11.344271,-188.807660,-3.367522,-3.054674,-3.820329,6.441936,3.306481,3.727322,-6.487245,-0.014286,0.339491,-0.078573,-131.254338,188.495736,1521.428654,-913.174735,0
0.100000,80.701168,67.344480,-200.521872,-3.637746,-0.210832,-5.517918,5.253466,0.644263,5.473274,-5.340391,-0.036163,0.344038,-0.086006,-74.039532,188.495810,1520.796885,-914.020556,0
0.101042,25.433233,147.539408,-176.072708,-3.108558,2.251384,-6.531644,3.750845,-1.749557,6.483643,-3.830178,-0.050748,0.340455,-0.089723,-19.841958,188.495745,1520.030616,-913.752741,0
0.102084,-24.557636,186.920427,-119.543131,-2.050184,4.295280,-5.900077,1.188443,-3.671867,6.031302,-1.298017,-0.112733,0.332256,-0.089723,27.668172,188.495767,1519.384292,-913.282158,0
0.103125,-92.085990,196.762746,-55.382305,-0.845439,6.258448,-4.950714,-1.517788,-5.568788,5.020933,1.510450,-0.163779,0.313309,-0.078573,95.871103,188.495749,1518.272377,-912.434164,0
0.104167,-154.981374,156.136756,-1.465338,0.280491,6.610718,-2.971535,-3.531375,-6.011282,3.224251,3.603552,-0.233057,0.321094,-0.097156,154.763399,188.495656,1517.509668,-910.986426,0
0.105209,-202.610560,91.081145,47.578809,1.248791,6.243770,-0.425151,-5.397349,-5.543399,0.653939,5.526329,-0.262226,0.322472,-0.097156,199.774181,188.495517,1516.021292,-909.458812,0
0.106250,-184.078682,36.877923,123.222966,2.656203,4.886065,1.819528,-6.124057,-4.371878,-1.611993,6.324963,-0.258580,0.309106,-0.104590,176.705874,188.495754,1514.901046,-908.745302,0
0.107292,-137.116192,-12.134004,188.817690,3.939764,3.143066,3.798707,-6.241391,-2.685323,-3.620049,6.468793,-0.265872,0.338733,-0.078573,131.616283,188.495709,1513.869822,-907.665600,0
0.108334,-79.825571,-67.406021,200.823541,4.164950,0.339589,5.584796,-5.060490,-0.026732,-5.382911,5.329509,-0.229410,0.323919,-0.108307,75.167044,188.495696,1513.461680,-907.382742,0
0.109375,-25.235632,-147.788870,175.997676,3.725837,-2.148314,6.514045,-3.527590,2.356207,-6.363688,3.807941,-0.203887,0.337355,-0.078573,20.811852,188.495750,1512.519207,-906.548236,0
