1-Time,2-VGERA,3-VGERB,4-VGERC,5-VN,6-IGERAN,7-IGERBN,8-IGERCN,9-IGERAT,10-IGERBT,11-IGERCT,12-IN,13-IFD,14-IFAULT,15-VFAULT,16-Speed (rad/s),17-Active Power,18-Reactive Power,19-FAULT 
0.000000,135.505806,-178.055761,16.288255,0.663307,-3.549997,4.488989,-0.353104,3.921582,-4.414636,0.093768,0.040913,0.416521,-0.033307,50.049722,188.494580,1332.469053,-45.269583,0
0.001042,176.162937,-129.959945,-46.414371,-0.575216,-4.401314,3.274814,1.649549,4.829282,-3.254234,-1.836808,-0.035656,0.413972,-0.040740,62.478912,188.495043,1337.373306,-47.421037,0
0.002083,192.988526,-56.236517,-100.817405,-1.644849,-4.735236,1.737676,3.319716,5.068550,-1.645201,-3.462756,-0.075764,0.421895,0.007577,60.902746,188.570238,1340.049439,-49.116447,0
0.003125,163.676520,5.330826,-159.437070,-2.827076,-4.133443,-0.052926,4.367436,4.525449,0.170893,-4.555607,-0.097641,0.401363,-0.018440,44.521884,188.494598,1344.433911,-51.559661,0
0.004167,116.397632,64.102857,-185.052793,-3.254929,-2.951873,-1.913026,4.873899,3.260747,2.064634,-4.959238,-0.086703,0.413627,-0.018440,22.219143,188.646833,1347.454335,-53.923410,0
0.005208,40.134436,120.772530,-189.755490,-3.412560,-1.179517,-3.662747,4.746317,1.483327,3.738374,-4.856426,-0.093995,0.403774,0.011294,1.481309,188.645297,1352.092182,-56.144158,0
0.006250,-26.761122,162.326376,-157.480650,-2.782039,0.600177,-4.627546,3.791384,-0.351061,4.583871,-3.729305,-0.090349,0.416934,0.003860,-17.083668,188.570426,1353.779513,-58.356249,0
0.007292,-78.966777,189.022784,-84.060250,-1.385885,2.666090,-4.966861,2.020698,-2.534857,5.002306,-2.011968,-0.017425,0.420655,-0.025873,-34.365197,188.494464,1357.444416,-61.516681,0
0.008333,-135.794101,177.583144,-16.922264,-0.079807,4.053151,-4.537607,0.257744,-3.837539,4.424262,-0.222283,-0.002841,0.414798,-0.025873,-49.214927,188.722061,1359.590266,-63.723528,0
0.009375,-177.490826,129.581288,45.318599,1.124939,4.952172,-3.282550,-1.783571,-4.817398,3.216408,1.837760,0.033621,0.418106,-0.025873,-62.747433,188.721840,1363.688911,-66.950293,0
0.010417,-192.734425,56.738735,101.058317,2.205831,5.231052,-1.680002,-3.511729,-5.026283,1.581493,3.379936,0.051852,0.419759,0.015011,-58.615628,188.571071,1365.876752,-68.573880,0
0.011458,-163.772716,-4.605452,160.504295,3.399317,4.570547,0.110600,-4.524655,-4.460395,-0.225973,4.510865,0.102898,0.426374,-0.014723,-43.225498,188.571147,1369.754955,-70.973297,0
0.012500,-116.923226,-63.342248,185.330160,3.815911,3.352282,2.052463,-5.019519,-3.096947,-2.171480,4.830723,0.051852,0.412180,-0.022156,-24.784362,188.721815,1371.957271,-73.523058,0
0.013542,-40.716529,-121.245147,190.275890,3.939764,1.568918,3.785831,-4.799150,-1.357506,-3.879729,4.647947,0.091960,0.426374,-0.044457,-0.961747,188.797206,1375.653030,-75.074467,0
0.014583,25.862631,-162.517113,157.308405,3.297983,-0.284166,4.750630,-3.801689,0.552840,-4.725226,3.547481,0.073729,0.429061,-0.007290,17.479388,188.570988,1377.594780,-77.662380,0
0.015625,78.746281,-190.728627,83.936611,1.913090,-2.405121,5.134914,-2.011672,2.823988,-5.139348,1.769218,0.033621,0.420379,-0.011006,35.796683,188.721915,1381.324732,-80.986271,0
0.016667,136.308101,-177.092670,17.855820,0.629529,-3.781174,4.591193,-0.287380,4.115276,-4.466401,-0.035699,0.019036,0.418450,-0.007290,50.725221,188.721898,1383.336623,-83.851308,0
0.017708,179.338216,-129.255244,-44.457952,-0.541438,-4.654508,3.368841,1.838990,5.076146,-3.271489,-2.095741,-0.017425,0.420724,-0.007290,62.895470,188.797297,1387.568098,-87.559464,0
0.018750,192.434830,-57.246587,-100.635130,-1.678627,-4.922380,1.688619,3.493692,5.228062,-1.541670,-3.717882,-0.068472,0.423204,0.007577,61.398113,188.570388,1390.622850,-91.143987,0
0.019792,164.072017,4.215050,-160.980332,-2.827076,-4.287561,-0.159217,4.645797,4.669770,0.304619,-4.845003,-0.079410,0.430025,-0.003573,44.330493,188.797126,1395.528678,-93.801184,0
0.020833,116.838329,63.339431,-185.004187,-3.277448,-2.940864,-2.158314,5.059473,3.237959,2.250126,-5.126783,-0.083057,0.428716,-0.003573,24.065508,188.721931,1398.076005,-96.552960,0
0.021875,40.902831,121.371526,-190.606107,-3.446337,-1.150161,-3.887594,4.870033,1.430156,3.979944,-4.959238,-0.108580,0.418106,-0.003573,1.728992,188.797219,1401.465581,-99.002370,0
0.022917,-25.416431,162.267651,-156.496365,-2.748261,0.754295,-4.836041,3.799116,-0.533361,4.834069,-3.755960,-0.086703,0.428165,-0.018440,-17.061152,188.646576,1404.277331,-102.214015,0
0.023958,-78.130582,192.240917,-82.018769,-1.340848,2.930292,-5.163091,1.931777,-2.728550,5.205053,-1.962466,-0.083057,0.421068,-0.037023,-33.802280,188.797284,1407.991023,-104.388042,0
0.025000,-135.986200,176.208978,-17.031629,-0.068547,4.273319,-4.590753,0.126296,-4.057817,4.488968,-0.069969,0.000805,0.415350,-0.018440,-50.419567,188.797329,1410.063864,-107.262583,0
0.026042,-180.813004,128.242357,44.188493,1.102420,5.194357,-3.311167,-2.015538,-5.079454,3.229350,2.050999,0.040913,0.412111,-0.003573,-62.848758,188.797351,1414.325222,-110.145098,0
0.027083,-192.045129,56.186720,100.620856,2.183313,5.319119,-1.561447,-3.705036,-5.151614,1.452080,3.642677,0.081021,0.425064,-0.033307,-60.675901,188.797278,1416.669769,-113.702319,0
0.028125,-164.247313,-5.169213,161.306305,3.410576,4.695309,0.331359,-4.806882,-4.581928,-0.433034,4.785029,0.106545,0.426718,-0.040740,-44.677822,188.797324,1421.047927,-116.811038,0
0.029167,-115.770633,-63.471443,185.220795,3.827171,3.300909,2.277310,-5.143235,-3.115937,-2.356971,4.983037,0.110191,0.435124,-0.014723,-23.748596,188.797282,1423.506632,-118.499456,0
0.030208,-39.767336,-121.550518,191.515361,4.007319,1.451495,4.022942,-4.957661,-1.205590,-4.073848,4.769798,0.135714,0.432506,-0.011006,-0.680289,188.797335,1426.317775,-121.179416,0
0.031250,25.885230,-162.223488,156.008176,3.309243,-0.423606,4.873274,-3.770760,0.738937,-4.880522,3.486555,0.055498,0.433608,0.007577,16.950247,188.948187,1427.232594,-124.139236,0
0.032292,77.661488,-193.852800,81.178182,1.868052,-2.625290,5.245294,-1.872492,3.013883,-5.251505,1.666407,0.026329,0.415074,-0.051890,34.524492,188.808748,1429.440286,-126.665806,0
0.033333,135.754404,-175.612799,16.944445,0.618270,-3.913275,4.591193,-0.039948,4.301373,-4.522480,-0.195628,0.000805,0.414178,0.018727,50.297405,188.872985,1430.885316,-129.211478,0
0.034375,181.733801,-127.563963,-44.154160,-0.507660,-4.812295,3.360665,2.051627,5.212870,-3.224037,-2.278517,-0.057533,0.410527,-0.029590,63.582228,188.797358,1432.939024,-131.575741,0
0.035417,191.734234,-55.155976,-100.392097,-1.622331,-4.940727,1.586415,3.659935,5.285031,-1.468337,-3.824501,-0.068472,0.401845,0.022444,60.193472,189.023477,1433.539609,-132.648992,0
0.036458,164.478815,5.859352,-161.199062,-2.782039,-4.309578,-0.343183,4.846836,4.684961,0.459915,-4.993509,-0.101287,0.409631,0.011294,44.195393,188.797186,1435.426369,-134.724015,0
0.037500,114.838243,63.703526,-185.174310,-3.254929,-2.882153,-2.280958,5.105867,3.180991,2.401108,-5.225787,-0.086703,0.431128,-0.014723,21.138344,188.872785,1436.534532,-136.345211,0
0.038542,38.710646,121.477231,-191.930640,-3.446337,-1.084111,-4.063384,4.939623,1.354198,4.139553,-5.004932,-0.104934,0.430576,-0.014723,0.862101,188.797251,1438.336739,-137.777243,0
0.039583,-26.275225,162.185436,-155.390563,-2.737001,0.930430,-4.905539,3.729526,-0.689075,4.894462,-3.702650,-0.072118,0.408046,-0.029590,-16.723402,189.023466,1438.443203,-139.663216,0
0.040625,-77.350887,194.390254,-79.831468,-1.239515,3.066063,-5.228501,1.858320,-2.895658,5.235249,-1.901541,-0.028364,0.427614,-0.014723,-33.745989,188.872644,1439.660290,-141.589938,0
0.041667,-135.500303,175.398572,-16.278225,-0.079807,4.354048,-4.598929,0.002580,-4.179350,4.510537,0.051882,0.008098,0.409149,-0.003573,-49.361285,188.806475,1440.434891,-143.505355,0
0.042710,-182.157695,126.727251,44.139886,1.102420,5.326458,-3.241669,-2.135388,-5.189593,3.199153,2.138579,0.059144,0.407977,-0.003573,-63.648099,188.875277,1441.793680,-144.618514,0
0.043752,-191.559233,54.201813,100.402126,2.194572,5.392509,-1.475596,-3.855815,-5.200987,1.365805,3.707410,0.088314,0.411560,-0.022156,-57.906353,189.023529,1442.050155,-145.474567,0
0.044791,-164.213413,-6.425929,161.452125,3.343021,4.709987,0.392681,-4.953795,-4.608514,-0.497740,4.861186,0.077375,0.428716,-0.003573,-43.090398,188.872668,1443.167932,-146.083079,0
0.045833,-114.290343,-63.565403,185.536738,3.815911,3.311917,2.305927,-5.166432,-3.036181,-2.456188,5.043962,0.084667,0.384482,-0.044457,-23.523430,188.872664,1443.563143,-147.513777,0
0.046875,-37.959348,-121.609243,192.208006,4.029838,1.359758,4.100617,-4.980858,-1.201792,-4.216203,4.826915,0.077375,0.398882,-0.029590,-0.218698,188.947903,1445.426663,-148.015314,0
0.047916,26.337227,-162.434898,155.194014,3.297983,-0.552037,4.950948,-3.755295,0.830087,-4.923659,3.517018,0.059144,0.421757,-0.055607,17.130380,189.023439,1446.190036,-148.665000,0
0.048958,77.198191,-195.238711,79.659223,1.856793,-2.717026,5.306616,-1.853161,3.097437,-5.346408,1.635944,0.044560,0.416728,-0.007290,35.458933,188.872686,1447.747753,-149.521429,0
0.050000,135.630105,-175.213469,16.567743,0.629529,-4.030698,4.648427,-0.020617,4.377331,-4.496597,-0.271785,-0.006487,0.411078,-0.018440,50.657671,188.872617,1447.899224,-150.899955,0
0.051042,182.852493,-126.471677,-43.534425,-0.496401,-4.933388,3.319784,2.098020,5.266041,-3.249920,-2.358482,-0.064826,0.411216,-0.025873,63.942494,189.023161,1448.992016,-151.581990,0
0.052083,191.542136,-54.286845,-99.978940,-1.656109,-4.970083,1.521005,3.768187,5.323010,-1.382061,-3.915889,-0.079410,0.411698,-0.018440,60.981555,189.023359,1449.463174,-153.100435,0
0.053131,164.196316,6.810698,-161.903859,-2.804557,-4.375628,-0.433122,4.939623,4.741930,0.546190,-5.092512,-0.093995,0.435951,-0.007290,44.094068,188.872682,1451.214853,-153.905345,0
0.054167,113.922949,63.409901,-185.405192,-3.221151,-2.841788,-2.342280,5.148394,3.192385,2.439931,-5.286712,-0.123164,0.423893,-0.040740,23.570142,188.872718,1452.022613,-154.140910,0
0.055208,38.326448,121.430251,-192.003550,-3.468856,-0.996044,-4.128794,4.974418,1.285836,4.251711,-5.092512,-0.104934,0.392406,-0.063040,1.537601,189.023533,1453.684197,-155.424245,0
0.056250,-25.698929,162.490806,-154.807283,-2.680705,0.981802,-4.991390,3.737258,-0.738448,4.959168,-3.725497,-0.097641,0.421895,-0.018440,-16.408169,189.024386,1454.576972,-156.126119,0
0.057292,-76.944090,195.341600,-79.722103,-1.318330,3.194494,-5.314352,1.800328,-3.020989,5.291328,-1.848231,-0.028364,0.411216,0.011294,-33.644664,188.893095,1455.827075,-158.038378,0
0.058333,-135.794101,174.611657,-17.201752,-0.079807,4.475140,-4.594841,-0.094074,-4.300883,4.476027,0.139462,0.008098,0.412800,-0.029590,-50.712284,188.839473,1456.270043,-160.197310,0
0.059375,-183.219888,126.774231,43.070539,1.057383,5.388839,-3.278462,-2.228175,-5.254158,3.151702,2.214736,0.048206,0.409080,-0.018440,-63.265316,189.037521,1457.045414,-161.897648,0
0.060417,-191.118536,55.270609,100.268458,2.228350,5.403517,-1.418362,-3.863547,-5.223774,1.275216,3.791183,0.070083,0.415763,-0.033307,-60.473251,188.960356,1457.427425,-163.941872,0
0.061458,-164.710610,-5.392368,161.974647,3.343021,4.779707,0.474443,-5.019519,-4.612312,-0.540878,4.918304,0.095606,0.409906,-0.011006,-44.925505,188.892616,1458.310857,-165.111291,0
0.062500,-114.697141,-62.837212,185.451677,3.894726,3.227520,2.420394,-5.208959,-3.002000,-2.495012,5.028731,0.106545,0.413558,-0.037023,-23.590980,188.879433,1457.997146,-166.120457,0
0.063542,-39.428338,-121.656223,192.402433,3.951023,1.374436,4.174203,-5.004054,-1.156217,-4.263654,4.811684,0.102898,0.403705,0.011294,-0.905456,189.030806,1458.247180,-167.551527,0
0.064583,24.721338,-162.540603,154.902374,3.252946,-0.618088,4.975477,-3.728233,0.902247,-4.958170,3.467516,0.081021,0.420793,-0.051890,16.409848,189.023644,1458.121651,-169.334242,0
0.065625,76.474996,-195.685021,80.692115,1.845534,-2.808763,5.306616,-1.829964,3.158203,-5.320526,1.601673,0.019036,0.418519,-0.048173,34.344359,188.872769,1458.096174,-170.841349,0
0.066667,136.127302,-174.532258,18.098854,0.652048,-4.027028,4.599369,0.056705,4.392523,-4.492283,-0.340326,0.000805,0.414109,-0.029590,50.747738,188.872704,1458.000098,-172.061975,0
0.067718,184.400583,-126.354227,-43.619487,-0.541438,-4.918710,3.242109,2.175343,5.338201,-3.185214,-2.430831,-0.068472,0.413903,-0.014723,63.661036,189.023519,1458.997992,-173.461928,0
0.068761,190.570342,-54.627450,-101.716629,-1.656109,-4.915041,1.386097,3.810714,5.269839,-1.265590,-3.999662,-0.064826,0.399158,-0.044457,59.698106,189.098955,1458.613083,-175.201400,0
0.069796,164.682213,5.413041,-162.001072,-2.827076,-4.272883,-0.449475,4.870033,4.650780,0.533249,-5.054434,-0.083057,0.424238,0.000144,44.094068,188.872822,1457.420059,-175.868114,0
0.070837,114.883442,62.975336,-185.162159,-3.322485,-2.819772,-2.354544,5.098134,3.074649,2.513265,-5.187709,-0.075764,0.428165,-0.014723,21.205894,188.872813,1455.786768,-177.926747,0
0.071877,39.637240,121.759111,-191.857730,-3.435078,-0.941002,-4.141058,4.889363,1.251655,4.234456,-4.944007,-0.086703,0.417761,-0.022156,1.188593,189.023548,1453.997222,-178.954349,0
0.072920,-24.828834,162.490806,-154.211851,-2.680705,1.036844,-4.860569,3.640605,-0.765033,4.916030,-3.588415,-0.057533,0.417210,0.003860,-16.419427,189.098897,1452.119532,-180.186954,0
0.073963,-76.763291,195.282874,-79.357553,-1.262033,3.168808,-5.220325,1.780998,-2.975414,5.230935,-1.775882,-0.050241,0.412456,-0.003573,-33.655922,188.872834,1450.661696,-180.395952,0
0.075010,-136.392997,173.625076,-16.181012,-0.079807,4.401751,-4.468109,-0.179128,-4.262904,4.346614,0.242274,-0.017425,0.408597,-0.003573,-49.946718,188.797329,1448.707750,-181.272750,0
0.076053,-183.920483,125.505770,44.042673,1.091161,5.315450,-3.135377,-2.266837,-5.106039,3.048172,2.275661,0.011744,0.404050,0.003860,-63.670616,189.023578,1446.537780,-181.656182,0
0.077099,-190.497040,53.579328,101.750962,2.217091,5.264077,-1.312070,-3.851949,-5.071858,1.219137,3.791183,0.070083,0.397091,-0.033307,-57.489795,188.948126,1444.570471,-181.550399,0
0.078134,-164.111714,-6.531634,162.169074,3.388058,4.647606,0.478532,-4.903535,-4.498374,-0.648722,4.853570,0.088314,0.400536,-0.059323,-43.101656,188.872702,1442.714366,-182.534839,0
0.079170,-114.425942,-62.848957,185.318008,3.894726,3.135783,2.383601,-5.073645,-2.884264,-2.477757,4.948766,0.110191,0.423204,-0.033307,-23.489655,188.797315,1440.769019,-183.212203,0
0.080212,-38.919841,-121.515283,191.977124,4.018579,1.308385,4.084264,-4.888070,-1.091653,-4.207575,4.689833,0.113837,0.423204,0.000144,-0.331281,189.023413,1438.534060,-183.648914,0
0.081254,25.512333,-162.376173,154.501369,3.331761,-0.632766,4.885538,-3.604516,0.890854,-4.837384,3.338049,0.048206,0.424307,-0.011006,16.950247,188.872892,1435.955016,-183.579033,0
0.082295,76.655795,-195.215221,79.513403,1.834274,-2.764730,5.188060,-1.775839,3.112629,-5.208368,1.472207,0.033621,0.416176,-0.003573,35.312575,188.872771,1433.427413,-184.003455,0
0.083335,135.562306,-174.849373,16.859383,0.640789,-3.942630,4.517606,0.095367,4.316565,-4.401694,-0.332710,-0.021072,0.405704,-0.003573,50.578863,188.797499,1431.767224,-183.525765,0
0.084375,182.682994,-126.612617,-43.109116,-0.518919,-4.793948,3.152170,2.144414,5.231860,-3.068742,-2.377521,-0.061180,0.402810,-0.051890,63.863686,189.023622,1428.921398,-183.865342,0
0.085416,191.519536,-54.674430,-99.784513,-1.611071,-4.812295,1.394273,3.748856,5.144508,-1.321669,-3.934929,-0.086703,0.404739,-0.018440,60.970296,188.872749,1427.106607,-183.322345,0
0.086458,164.196316,5.835862,-161.150455,-2.770779,-4.155460,-0.441298,4.792710,4.548237,0.563445,-4.982085,-0.083057,0.406324,-0.048173,43.981485,188.797313,1424.965628,-183.682038,0
0.087500,114.420145,62.869631,-185.320130,-3.243670,-2.750052,-2.330015,5.036276,3.036670,2.444245,-5.107744,-0.086703,0.424444,-0.025873,23.277426,188.799419,1423.408908,-183.086446,0
0.088542,38.462047,121.077901,-191.772668,-3.401300,-0.849265,-4.047031,4.781112,1.183292,4.130926,-4.879273,-0.101287,0.402672,0.003860,1.233626,188.948118,1421.342931,-182.955707,0
0.089583,-25.744128,162.091476,-154.710069,-2.680705,1.003819,-4.831952,3.594211,-0.784023,4.859952,-3.546529,-0.072118,0.416934,-0.040740,-16.486977,188.797257,1420.427198,-183.087858,0
0.090625,-76.605092,194.519449,-79.296795,-1.239515,3.132113,-5.146739,1.765533,-2.948829,5.110150,-1.711149,-0.028364,0.395231,-0.022156,-33.396981,188.797324,1418.254054,-183.477685,0
0.091666,-135.308204,174.917027,-16.302529,-0.079807,4.332031,-4.492637,-0.128869,-4.164159,4.350928,0.105192,-0.021072,0.402534,-0.029590,-50.408309,188.797309,1417.681517,-181.614512,0
0.092708,-181.875197,126.515840,43.459393,1.102420,5.194357,-3.168083,-2.189514,-5.098443,3.056799,2.157618,0.051852,0.400123,-0.029590,-63.118958,188.797394,1416.768914,-180.758613,0
0.093750,-191.310634,54.260538,99.660874,2.183313,5.205365,-1.328423,-3.786224,-5.056667,1.236392,3.688371,0.088314,0.403912,-0.014723,-60.461993,188.797422,1415.759362,-180.349814,0
0.094792,-164.123014,-6.202774,161.014665,3.343021,4.555869,0.470355,-4.826212,-4.418618,-0.562447,4.746951,0.084667,0.414592,-0.022156,-44.531464,188.797255,1413.514709,-179.418157,0
0.095833,-114.007845,-63.025132,185.342311,3.793393,3.209172,2.359072,-5.027251,-2.880467,-2.413050,4.884033,0.077375,0.390132,-0.022156,-23.230713,188.797244,1412.412226,-178.512856,0
0.096875,-38.207946,-120.904542,191.989276,3.928504,1.352419,4.055647,-4.814614,-1.061270,-4.095417,4.655563,0.062790,0.370633,-0.037023,-0.601481,188.797289,1410.823611,-177.948702,0
0.097917,25.998230,-161.988587,154.999587,3.230428,-0.592402,4.791511,-3.592918,0.845279,-4.776992,3.326626,0.037267,0.425340,0.000144,16.612497,188.797269,1410.040001,-177.244577,0
0.098958,76.576695,-194.310855,80.230351,1.856793,-2.665654,5.102209,-1.775839,3.025277,-5.091896,1.544556,-0.002841,0.405979,-0.029590,34.198000,188.797287,1408.434472,-175.849529,0
0.100000,134.986009,-175.248704,16.701412,0.640789,-3.843555,4.411315,0.006446,4.236809,-4.349929,-0.298440,-0.024718,0.403292,-0.022156,50.286146,188.797251,1407.186966,-175.230703,0
0.101042,181.417403,-126.953222,-43.449363,-0.518919,-4.702211,3.160346,2.016831,5.087539,-3.081683,-2.286133,-0.064826,0.405566,-0.007290,63.548453,188.655046,1405.132702,-173.713730,0
0.102083,191.632535,-54.686175,-99.723755,-1.588553,-4.727897,1.443331,3.598077,5.087539,-1.300100,-3.755960,-0.061180,0.397573,-0.018440,60.193472,188.723288,1403.151486,-172.377280,0
0.103126,164.139817,5.859352,-160.785905,-2.793298,-4.085740,-0.379976,4.641931,4.487470,0.507366,-4.822156,-0.108580,0.391441,-0.007290,44.229168,188.797891,1400.803386,-171.162356,0
0.104167,114.691344,62.799161,-186.425932,-3.277448,-2.731704,-2.235988,4.885497,2.991096,2.306205,-4.966854,-0.097641,0.412525,-0.029590,21.543644,188.798335,1398.632490,-170.015772,0
0.105208,38.755845,120.678570,-191.225843,-3.435078,-0.915315,-3.903946,4.672860,1.240261,3.975630,-4.780269,-0.083057,0.412938,-0.003573,1.436276,188.571806,1396.209238,-168.539127,0
0.106250,-25.732828,161.844831,-155.548535,-2.714483,0.901074,-4.680692,3.497558,-0.654894,4.631322,-3.531297,-0.050241,0.418932,0.026161,-16.385652,188.722683,1393.603123,-166.414931,0
0.107292,-76.932790,192.757697,-80.888664,-1.318330,2.944970,-4.954596,1.730738,-2.819700,4.989364,-1.768267,-0.017425,0.409286,-0.014723,-33.745989,188.722898,1391.532808,-164.868409,0
0.108334,-135.251705,175.680453,-16.983022,-0.068547,4.185252,-4.382258,-0.024483,-3.959072,4.221515,0.013803,-0.006487,0.410251,-0.033307,-49.304993,188.646487,1388.665297,-163.254372,0
0.109375,-180.281907,127.678596,43.471544,1.068642,4.985197,-3.061791,-1.976877,-4.855378,3.013662,2.031960,0.033621,0.406944,-0.040740,-63.377899,188.572316,1384.989898,-161.807243,0
0.110417,-191.751331,55.857860,99.964666,2.205831,5.109959,-1.422450,-3.616115,-4.904750,1.305412,3.524634,0.062790,0.410458,-0.048173,-58.086487,188.722599,1382.742014,-160.192364,0
