1-Time,2-VGERA,3-VGERB,4-VGERC,5-VN,6-IGERAN,7-IGERBN,8-IGERCN,9-IGERAT,10-IGERBT,11-IGERCT,12-IN,13-IFD,14-IFAULT,15-VFAULT,16-Speed (rad/s),17-Active Power,18-Reactive Power,19-FAULT 
0.000000,-99.993033,-102.563983,186.320645,6.468078,5.649508,0.554108,-5.971861,-5.620092,-0.267356,5.659080,-0.263601,0.598856,-0.013287,-154.560118,188.421550,1619.762484,892.448462,0
0.001042,-14.912936,-148.000263,188.893561,6.513318,4.154841,3.010661,-6.606194,-4.146117,-2.735011,6.406228,-0.245336,0.610549,-0.024490,-120.302129,188.497678,1619.921250,893.127634,0
0.002083,58.178137,-177.260212,146.200379,5.721618,1.907515,4.852084,-6.068877,-1.940667,-4.589949,5.901014,-0.263601,0.589972,-0.013287,-68.423160,188.497082,1620.454752,892.707098,0
0.003125,109.174019,-202.436816,63.005303,4.183458,-0.769395,6.280774,-4.632300,0.779389,-6.092365,4.613073,-0.223418,0.604082,-0.005818,2.445298,188.497079,1620.196742,892.558929,0
0.004167,158.003484,-168.851903,-8.174621,2.769708,-3.038023,6.538732,-2.636017,3.054678,-6.398724,2.748761,-0.194194,0.596896,-0.043161,62.908557,188.497399,1620.514901,891.791788,0
0.005208,188.231248,-120.806148,-79.280682,1.435128,-5.015528,5.875979,-0.169581,5.083692,-5.811187,0.293847,-0.168623,0.586314,-0.046895,125.136176,188.497095,1620.517693,891.823564,0
0.006250,186.631955,-35.466642,-131.157576,0.496398,-6.055759,4.344106,2.293123,6.182741,-4.321361,-2.047216,-0.088257,0.568937,-0.013287,156.114265,188.497719,1621.507550,891.994106,0
0.007292,160.657629,38.432248,-173.912311,-0.306612,-6.467592,2.347908,4.401347,6.616480,-2.369899,-4.142788,-0.037115,0.599379,-0.009553,175.488295,188.496400,1621.730944,893.004918,0
0.008333,100.780569,102.569767,-185.902841,-0.589362,-5.501916,-0.307075,5.822999,5.653433,0.198477,-5.491212,0.003068,0.611398,-0.024490,159.462025,188.571554,1621.781256,892.768631,0
0.009375,16.415050,148.356393,-188.660417,-0.589362,-3.993048,-2.723942,6.502108,4.061833,2.741673,-6.213455,0.021333,0.605846,0.001650,125.543336,188.496085,1621.293702,891.805918,0
0.010417,-58.422768,177.000217,-146.459660,0.145788,-1.706668,-4.585208,5.890163,1.933574,4.634381,-5.747377,-0.022503,0.581479,-0.028224,75.293007,188.493183,1620.730878,891.986747,0
0.011458,-109.429993,202.841270,-62.058144,1.763118,0.973792,-6.037710,4.528213,-0.834266,6.103224,-4.416742,-0.048074,0.591409,-0.035692,3.881668,188.494218,1619.836508,892.484297,0
0.012500,-157.873813,169.038901,8.518561,3.097698,3.217567,-6.355196,2.558050,-3.002958,6.476730,-2.616472,-0.059033,0.592715,-0.050629,-59.940660,188.494677,1619.183545,892.919088,0
0.013542,-188.736756,121.693838,78.885985,4.432278,5.195072,-5.660694,0.099077,-5.057703,5.889193,-0.175789,-0.113828,0.589972,-0.035692,-117.225809,188.494938,1618.510024,892.561390,0
0.014583,-187.046724,36.994620,131.341478,5.393628,6.221103,-4.128821,-2.311388,-6.083237,4.390973,2.136812,-0.161317,0.575600,-0.017021,-149.606338,188.493749,1616.416603,892.184469,0
0.015625,-160.732123,-38.498949,173.973107,6.174018,6.640036,-2.148498,-4.483045,-6.601518,2.389151,4.317772,-0.216112,0.622046,-0.028224,-168.720238,188.494189,1615.494110,892.281960,0
0.016667,-100.253910,-102.648549,185.606629,6.445458,5.677910,0.482674,-5.908428,-5.616417,-0.170832,5.616386,-0.245336,0.576253,-0.031958,-152.863618,188.569581,1614.188188,893.102410,0
0.017708,-16.171954,-148.133153,188.844319,6.468078,4.193894,2.931290,-6.561418,-4.109359,-2.676257,6.384881,-0.248989,0.592585,-0.061832,-121.467059,188.496527,1613.641290,892.634757,0
0.018750,57.418189,-176.535358,147.062122,5.721618,1.964319,4.816367,-6.027832,-1.944342,-4.531196,5.908129,-0.252642,0.605454,-0.039427,-69.633330,188.495617,1613.187680,892.293584,0
0.019792,109.253417,-202.521383,62.697538,4.115598,-0.765845,6.245057,-4.621106,0.772037,-6.096562,4.634420,-0.212459,0.595720,-0.069301,1.981588,188.495566,1613.227974,892.735141,0
0.020833,157.356961,-168.936469,-8.913258,2.803638,-3.030922,6.550638,-2.703181,2.977487,-6.365150,2.773666,-0.190541,0.593303,-0.035692,64.209207,188.647793,1611.868546,893.315593,0
0.021875,188.197220,-120.878633,-79.034470,1.480368,-5.008427,5.947413,-0.203164,5.057962,-5.857351,0.368562,-0.143052,0.587293,-0.054364,123.394436,188.497109,1611.559642,894.522421,0
0.022917,186.665982,-36.807622,-131.194508,0.519018,-6.020256,4.375854,2.237152,6.134956,-4.329754,-1.997406,-0.084604,0.591931,-0.046895,153.637375,188.497652,1610.990909,894.521350,0
0.023958,160.861794,37.489937,-174.146213,-0.363162,-6.467592,2.336002,4.412541,6.601777,-2.357309,-4.124999,-0.044421,0.605519,-0.039427,173.000095,188.496840,1610.954376,894.048670,0
0.025000,100.678486,102.775143,-185.878220,-0.555432,-5.469963,-0.322949,5.770760,5.620351,0.219461,-5.512559,-0.004238,0.593761,-0.058098,158.715565,188.496905,1611.102507,893.590717,0
0.026042,15.190060,148.138937,-188.857387,-0.611982,-3.964645,-2.747754,6.487183,4.080212,2.766853,-6.238360,0.035945,0.574620,-0.050629,124.672466,188.497298,1611.382438,894.055175,0
0.027083,-58.218603,177.290158,-146.447349,0.213648,-1.713769,-4.612988,5.890163,1.933574,4.655365,-5.772282,0.010374,0.598791,-0.039427,72.363717,188.497077,1611.944129,894.212468,0
0.028125,-109.259855,202.599652,-63.067614,1.751808,1.009294,-6.065490,4.558064,-0.874699,6.195551,-4.409626,-0.037115,0.598987,-0.031958,2.049448,188.496697,1613.502289,893.555303,0
0.029167,-158.327513,168.930173,7.927652,3.052458,3.238869,-6.363134,2.524468,-3.069122,6.426369,-2.591567,-0.080951,0.596962,-0.005818,-59.510880,188.571308,1613.809571,892.493515,0
0.030208,-188.577961,121.415977,79.156818,4.409658,5.223475,-5.660694,0.039375,-5.094460,5.880799,-0.161557,-0.132093,0.581284,-0.031958,-118.583009,188.495959,1614.095394,892.304905,0
0.031250,-186.967326,35.677802,131.329167,5.337078,6.260156,-4.128821,-2.397209,-6.171455,4.344810,2.207969,-0.161317,0.578475,-0.039427,-151.370698,188.494600,1615.201051,891.801731,0
0.032292,-161.355960,-38.402302,173.653031,6.219258,6.686189,-2.116749,-4.527821,-6.627248,2.384954,4.353350,-0.190541,0.596570,-0.035692,-169.014298,188.509043,1616.033602,891.622362,0
0.033333,-100.923118,-102.141151,186.111364,6.468078,5.667259,0.530297,-5.938279,-5.656850,-0.183422,5.676869,-0.216112,0.602253,-0.028224,-155.136928,188.569820,1617.497099,891.665657,0
0.034375,-17.033984,-147.891535,188.868940,6.547248,4.179693,2.982881,-6.546492,-4.149792,-2.705634,6.388439,-0.248989,0.606630,-0.009553,-120.912869,188.493369,1618.080097,891.591890,0
0.035417,57.645039,-176.934028,146.569697,5.676378,1.896864,4.840179,-5.997981,-1.922288,-4.577359,5.929476,-0.245336,0.581414,-0.009553,-68.389230,188.494346,1618.781932,891.653719,0
0.036458,109.015224,-202.666353,62.278977,4.172148,-0.794247,6.249026,-4.654688,0.775713,-6.083972,4.598842,-0.212459,0.594936,-0.020755,2.705428,188.493988,1618.421640,891.231261,0
0.037516,158.718061,-167.692136,-9.996591,2.792328,-3.098378,6.554607,-2.643480,3.076732,-6.394527,2.709625,-0.183235,0.596374,-0.031958,64.390167,188.645185,1619.343592,890.931886,0
0.038547,188.117823,-121.241060,-79.268371,1.469058,-5.033279,5.911696,-0.206895,5.098395,-5.827974,0.265384,-0.139399,0.587359,-0.017021,125.011766,188.492691,1620.206056,889.444353,0
0.039583,186.756722,-37.266697,-131.206819,0.496398,-6.020256,4.348074,2.263272,6.138632,-4.329754,-2.008080,-0.059033,0.589384,-0.031958,156.046405,188.494667,1620.504140,889.245351,0
0.040625,160.623601,38.190630,-173.875379,-0.351852,-6.446290,2.359814,4.375227,6.524586,-2.386686,-4.142788,-0.026156,0.600946,-0.031958,175.194235,188.494565,1619.644382,889.154247,0
0.041667,100.156731,102.823466,-185.804357,-0.578052,-5.505466,-0.283263,5.793148,5.649757,0.190084,-5.427171,0.014027,0.575862,-0.035692,159.269755,188.646252,1618.394108,889.860460,0
0.042708,15.938665,148.175180,-188.808145,-0.645912,-4.003698,-2.727911,6.490914,4.109618,2.724886,-6.199223,0.014027,0.605258,-0.039427,125.984426,188.495501,1617.774497,890.098166,0
0.043750,-57.572081,176.674032,-147.272160,0.145788,-1.763473,-4.573302,5.927477,1.962980,4.575628,-5.711798,0.003068,0.605258,0.001650,76.163877,188.498090,1616.429852,889.609692,0
0.044792,-109.259855,202.503005,-63.400000,1.695258,0.945389,-6.033741,4.554333,-0.804860,6.052864,-4.473668,-0.011544,0.598268,-0.028224,4.435858,188.496872,1614.565820,890.619870,0
0.045833,-157.488168,169.353005,8.727841,3.063768,3.171414,-6.255982,2.606558,-2.977228,6.396992,-2.630703,-0.026156,0.588143,-0.061832,-59.974590,188.573040,1613.184758,891.437137,0
0.046875,-188.577961,120.944822,78.885985,4.409658,5.198623,-5.712286,0.125197,-5.039324,5.910176,-0.186462,-0.128440,0.586183,-0.024490,-117.090089,188.507135,1612.454386,892.062998,0
0.047917,-187.137464,36.958378,130.947538,5.416248,6.238854,-4.192318,-2.266611,-6.119994,4.407760,2.101233,-0.175929,0.592127,-0.009553,-149.255728,188.497441,1611.486430,893.056037,0
0.048958,-161.061055,-36.638490,174.403978,6.196638,6.682639,-2.156435,-4.505433,-6.641951,2.468888,4.278635,-0.212459,0.604931,-0.028224,-169.229188,188.497538,1610.963362,894.068261,0
0.050000,-102.227505,-101.959938,185.409660,6.445458,5.702762,0.462831,-5.859920,-5.689932,-0.099488,5.634175,-0.234377,0.602971,-0.017021,-153.123748,188.572421,1610.337293,894.832285,0
0.051042,-16.047186,-147.891535,188.992046,6.524628,4.208095,2.919384,-6.568881,-4.186550,-2.638487,6.395554,-0.278213,0.630212,-0.024490,-121.274789,188.496869,1609.613235,896.093649,0
0.052083,58.439014,-176.040041,147.234470,5.778168,1.964319,4.784618,-6.027832,-1.999479,-4.547982,5.925918,-0.241683,0.593303,-0.039427,-69.565470,188.496056,1608.892260,897.013842,0
0.053125,109.139992,-202.569706,63.485417,4.194768,-0.680638,6.229183,-4.684539,0.720577,-6.104955,4.691346,-0.201500,0.598072,-0.046895,1.155958,188.495656,1609.476143,898.334969,0
0.054167,157.379646,-169.371382,-7.337500,2.848878,-2.967017,6.550638,-2.733032,2.944405,-6.386134,2.837707,-0.150358,0.594479,-0.061832,63.179997,188.646940,1608.868872,899.196265,0
0.055208,188.299303,-121.096090,-78.542046,1.446438,-4.983575,5.887885,-0.177044,5.024880,-5.836367,0.350773,-0.139399,0.580042,0.005384,123.190856,188.495233,1607.674615,900.135360,0
0.056250,186.802092,-36.119011,-130.775947,0.473778,-5.991854,4.375854,2.177450,6.120253,-4.342344,-1.993848,-0.102869,0.591213,-0.050629,153.298075,188.495720,1607.018748,900.529427,0
0.057292,160.351381,38.130225,-173.986175,-0.329232,-6.506645,2.431248,4.341645,6.572371,-2.344719,-4.117883,-0.044421,0.584942,-0.002084,172.875685,188.495079,1607.201833,900.506278,0
0.058338,100.712514,102.835547,-185.755114,-0.611982,-5.473514,-0.283263,5.852850,5.631379,0.215264,-5.466307,0.010374,0.606434,0.009119,158.998315,188.569918,1607.904228,899.950171,0
0.059375,17.231710,148.006047,-188.771213,-0.634602,-3.982397,-2.700131,6.427481,4.080212,2.720690,-6.245475,0.050557,0.606891,-0.031958,125.305826,188.494710,1608.621822,899.380638,0
0.060417,-57.481341,176.794841,-147.124432,0.134478,-1.735071,-4.593145,5.897626,1.937250,4.613398,-5.754492,-0.004238,0.599444,-0.058098,72.476817,188.494355,1609.497662,899.359398,0
0.061458,-109.078375,202.708380,-62.636743,1.751808,0.977342,-6.037710,4.539408,-0.797508,6.099027,-4.406069,-0.022503,0.592715,-0.028224,1.891108,188.494524,1609.539167,898.916013,0
0.062500,-157.397428,169.292600,8.444697,3.075078,3.221118,-6.351228,2.584170,-3.006634,6.464139,-2.598682,-0.062686,0.590102,-0.028224,-59.284680,188.570906,1610.544727,898.644291,0
0.063551,-188.351111,121.089793,79.895455,4.454898,5.202173,-5.676569,0.065495,-5.054027,5.847226,-0.150884,-0.135746,0.586836,-0.020755,-118.775279,188.495741,1610.399707,897.918870,0
0.064583,-187.114779,37.828203,131.156819,5.382318,6.238854,-4.124852,-2.307656,-6.097940,4.420350,2.147485,-0.154011,0.591213,-0.017021,-151.065328,188.495801,1610.837572,897.428975,0
0.065625,-161.276563,-37.218373,173.874622,6.219258,6.675538,-2.148498,-4.464388,-6.594166,2.418528,4.292867,-0.197847,0.591670,-0.013287,-168.889888,188.495864,1610.500178,896.473750,0
0.066667,-100.594185,-102.201556,185.815910,6.479388,5.685011,0.502516,-5.893503,-5.609065,-0.187619,5.619944,-0.245336,0.566781,-0.028224,-154.639288,188.495743,1609.957416,895.202866,0
0.067708,-15.922419,-147.529108,188.930493,6.547248,4.169042,2.951133,-6.542761,-4.105683,-2.646881,6.374207,-0.270907,0.590233,-0.028224,-120.992039,188.497799,1609.555518,893.989691,0
0.068750,57.338792,-176.329983,147.259091,5.732928,1.974970,4.816367,-6.005444,-1.973748,-4.493425,5.929476,-0.252642,0.605911,-0.046895,-69.158310,188.497269,1609.244176,893.528988,0
0.069792,108.867772,-202.171036,64.039394,4.172148,-0.776496,6.181560,-4.665882,0.742631,-6.016825,4.662883,-0.216112,0.599966,-0.061832,1.721458,188.497508,1608.218950,892.524077,0
0.070833,157.130111,-169.323058,-7.829924,2.769708,-2.974118,6.503015,-2.706913,2.999542,-6.360954,2.805687,-0.227071,0.590168,-0.017021,62.309127,188.498070,1608.381368,891.730526,0
0.071875,188.061110,-121.120251,-78.443561,1.457748,-4.940972,5.891853,-0.229283,4.991798,-5.786007,0.375678,-0.080951,0.584876,-0.020755,124.446266,188.497714,1607.449607,891.465568,0
0.072917,186.790750,-36.723056,-130.603599,0.439848,-6.006055,4.359980,2.166256,6.087172,-4.338148,-1.936923,-0.059033,0.589776,-0.043161,155.797585,188.496914,1606.705594,891.558330,0
0.073958,160.566889,36.583869,-174.121591,-0.340542,-6.478242,2.407437,4.326719,6.539289,-2.407669,-4.078747,-0.026156,0.601600,-0.017021,175.544845,188.495193,1606.179596,891.701839,0
0.075000,102.289121,102.001965,-185.287311,-0.589362,-5.484164,-0.227703,5.755834,5.635054,0.156510,-5.448518,-0.004238,0.607087,-0.039427,159.473335,188.646417,1606.006489,891.632773,0
0.076042,16.483105,147.921481,-188.832766,-0.634602,-3.985947,-2.636633,6.405093,4.113294,2.628362,-6.174318,0.032292,0.597288,-0.046895,125.712986,188.495269,1604.187161,892.554721,0
0.077083,-58.309343,175.985421,-147.542993,0.157098,-1.763473,-4.549491,5.908820,1.962980,4.521071,-5.722472,-0.029809,0.596047,-0.017021,76.084707,188.495150,1602.574589,892.884060,0
0.078125,-109.146430,202.370115,-63.424621,1.740498,0.927638,-5.974212,4.550602,-0.757075,6.061257,-4.459436,-0.022503,0.595590,-0.024490,4.990048,188.495501,1602.176589,893.569794,0
0.079167,-157.261318,169.570461,7.373674,3.052458,3.079107,-6.283762,2.606558,-2.973552,6.388599,-2.676955,-0.048074,0.595394,-0.020755,-59.001930,188.494352,1601.312087,893.813847,0
0.080208,-188.793469,122.104589,78.011932,4.375728,5.177321,-5.700380,0.143854,-5.017269,5.884996,-0.261177,-0.091910,0.587881,-0.013287,-116.592449,188.493700,1601.178831,894.690040,0
0.081250,-187.330286,37.199996,130.553599,5.416248,6.174949,-4.160570,-2.236760,-6.097940,4.420350,2.058539,-0.179582,0.586444,-0.013287,-148.984288,188.494457,1600.249060,895.430986,0
0.082292,-160.425875,-37.302939,174.219319,6.219258,6.636485,-2.188183,-4.415880,-6.539030,2.439511,4.211036,-0.230724,0.572595,-0.013287,-168.923818,188.493610,1598.506337,895.821611,0
0.083333,-102.046025,-101.839129,184.892614,6.468078,5.702762,0.431082,-5.830069,-5.697283,-0.061718,5.552345,-0.216112,0.608851,-0.043161,-153.214228,188.494972,1597.626763,897.454262,0
0.084375,-17.464999,-147.710321,188.819698,6.513318,4.236497,2.859855,-6.524104,-4.204929,-2.583930,6.377765,-0.252642,0.606956,-0.031958,-122.089109,188.495689,1597.598550,898.679590,0
0.085417,57.100599,-175.532643,148.145455,5.755548,2.014023,4.721121,-5.990518,-2.054615,-4.506016,5.897456,-0.241683,0.608328,-0.020755,-70.074420,188.495749,1597.354501,898.879589,0
0.086458,108.935827,-202.328088,63.448485,4.149528,-0.694839,6.205371,-4.684539,0.735280,-6.012628,4.659325,-0.201500,0.590364,-0.031958,1.212508,188.495703,1597.125565,899.104720,0
0.087500,156.494931,-169.625081,-8.063826,2.837568,-2.917313,6.514921,-2.759152,2.892945,-6.356757,2.848381,-0.168623,0.589449,-0.024490,62.999037,188.495709,1595.942224,900.091197,0
0.088542,188.344673,-121.736378,-77.914205,1.514298,-4.948072,5.891853,-0.303911,4.977095,-5.836367,0.418372,-0.154011,0.586901,-0.028224,122.568806,188.497833,1596.255101,900.852306,0
0.089583,186.960887,-38.136522,-130.578978,0.473778,-5.995405,4.443320,2.136405,6.068793,-4.401098,-1.912018,-0.066339,0.593369,-0.046895,152.970085,188.496918,1596.466117,901.353316,0
0.090625,160.589574,36.354332,-174.330872,-0.317922,-6.449840,2.391562,4.330451,6.546641,-2.399276,-4.100094,-0.051727,0.601077,-0.043161,173.000095,188.497831,1596.886408,901.182709,0
0.091667,101.653941,102.279825,-185.385796,-0.578052,-5.484164,-0.219766,5.770760,5.635054,0.127133,-5.441402,0.003068,0.617408,-0.039427,158.681635,188.423975,1596.425319,901.733651,0
0.092709,15.915980,147.848995,-188.931251,-0.679842,-4.042752,-2.668382,6.457332,4.120645,2.661936,-6.206339,0.035945,0.590168,-0.039427,125.351066,188.499136,1597.000640,901.881221,0
0.093750,-57.640136,176.299524,-147.739963,0.157098,-1.781224,-4.537585,5.934940,1.959304,4.571431,-5.729588,0.003068,0.608001,-0.046895,73.166727,188.490695,1597.906749,901.558217,0
0.094792,-108.998978,202.321792,-65.394318,1.717878,0.934739,-5.986118,4.569259,-0.782805,6.082240,-4.491457,-0.051727,0.598791,-0.031958,2.829838,188.470889,1599.036348,901.135817,0
0.095834,-157.510853,169.691270,7.422917,3.018528,3.157213,-6.283762,2.602827,-2.999283,6.384402,-2.612914,-0.033462,0.595916,-0.050629,-58.945380,188.489276,1599.347561,900.286633,0
0.096875,-188.475879,121.609272,78.405871,4.398348,5.180871,-5.708317,0.136391,-5.013594,5.872406,-0.214925,-0.124787,0.586052,-0.031958,-117.881789,188.444308,1599.139482,899.804234,0
0.097916,-187.330286,36.813407,130.738258,5.371008,6.221103,-4.180412,-2.277805,-6.097940,4.416153,2.140370,-0.168623,0.566259,-0.035692,-150.861748,188.510033,1599.743881,899.237949,0
0.098959,-161.151795,-36.408953,174.120834,6.230568,6.682639,-2.204058,-4.434537,-6.627248,2.489871,4.271520,-0.186888,0.608393,-0.013287,-169.138708,188.498117,1601.567323,899.810482,0
0.100000,-102.749260,-101.464621,185.348107,6.468078,5.692111,0.439019,-5.871115,-5.715662,-0.086898,5.609270,-0.263601,0.606760,-0.028224,-155.182168,188.344486,1602.932200,899.535372,0
0.101042,-17.317546,-147.492865,189.078220,6.547248,4.215196,2.923353,-6.550224,-4.182874,-2.621700,6.374207,-0.270907,0.611921,-0.002084,-121.240859,188.494759,1603.251236,898.958306,0
0.102083,57.939944,-177.248131,147.468372,5.755548,1.982071,4.768744,-6.042758,-1.959045,-4.522802,5.929476,-0.256295,0.562731,-0.028224,-68.819010,188.419996,1604.154343,898.966325,0
0.103125,108.811059,-202.328088,63.719318,4.206078,-0.680638,6.225214,-4.710658,0.738955,-6.071382,4.641536,-0.197847,0.596112,-0.035692,1.450018,188.495613,1604.876276,898.719583,0
0.104168,156.869234,-169.649243,-7.226705,2.826258,-2.935065,6.518889,-2.766615,2.926027,-6.398724,2.848381,-0.168623,0.599770,-0.046895,61.506117,188.419811,1605.873352,898.623096,0
0.105208,188.242590,-122.473313,-77.532576,1.491678,-4.923221,5.935508,-0.266597,4.988122,-5.899318,0.429045,-0.132093,0.590756,-0.069301,123.711116,188.493950,1606.653783,899.045545,0
0.106250,187.119682,-37.762014,-130.308144,0.485088,-6.020256,4.348074,2.128943,6.112902,-4.384311,-1.904902,-0.062686,0.576776,-0.031958,155.605315,188.494144,1606.977357,899.069409,0
0.107292,160.124531,37.224157,-174.035417,-0.317922,-6.446290,2.399499,4.270749,6.535613,-2.445439,-4.036052,-0.018850,0.586444,-0.054364,175.363885,188.494026,1605.680964,900.094325,0
0.108333,101.835421,102.122774,-185.102652,-0.521502,-5.537419,-0.184049,5.733446,5.627703,0.131330,-5.398708,-0.004238,0.598203,-0.039427,159.586435,188.418297,1605.112822,899.828559,0
0.109375,17.299765,147.776510,-188.906629,-0.668532,-4.049852,-2.616790,6.442406,4.139024,2.649346,-6.209897,0.017680,0.606042,-0.020755,126.470756,188.493811,1605.396160,899.693657,0
0.110417,-57.038983,175.610913,-148.614016,0.089238,-1.827378,-4.482025,5.905089,2.018116,4.470710,-5.736703,-0.000585,0.606695,-0.031958,76.819857,188.494306,1604.288533,900.189873,0
