1-Time,2-VGERA,3-VGERB,4-VGERC,5-VN,6-IGERAN,7-IGERBN,8-IGERCN,9-IGERAT,10-IGERBT,11-IGERCT,12-IN,13-IFD,14-IFAULT,15-VFAULT,16-Speed (rad/s),17-Active Power,18-Reactive Power,19-FAULT 
0.000000,-145.862105,179.585530,-14.428409,2.577438,0.611663,-4.652674,3.640147,-0.499773,4.600808,-3.473913,-0.062686,0.559857,-0.061832,-0.461372,188.495696,1002.930257,995.968591,0
0.001042,-169.148258,150.313500,64.790341,4.092978,2.376152,-4.950318,2.121480,-2.271484,4.974314,-2.086352,-0.073645,0.553390,-0.031958,-10.482031,188.495749,1003.086423,995.599358,0
0.002083,-180.456731,69.939245,123.745834,5.190048,4.112238,-4.485993,0.050570,-3.951302,4.563038,-0.118863,-0.102869,0.543852,-0.031958,-15.435811,188.344844,1001.557681,995.675033,0
0.003125,-170.543386,-9.867206,162.154925,5.981748,4.921701,-3.612905,-1.501680,-4.870239,3.732092,1.443032,-0.157664,0.540913,-0.061832,-26.236861,188.495698,1000.789161,996.123776,0
0.004167,-123.267844,-80.733789,179.549811,6.332358,4.985606,-1.584959,-3.423336,-4.932727,1.801614,3.229071,-0.230724,0.560314,-0.031958,-28.057771,188.495712,1000.224408,996.804212,0
0.005208,-44.153903,-133.515259,189.287501,6.513318,4.445964,0.276307,-4.535284,-4.517367,-0.120472,4.460086,-0.216112,0.569264,-0.046895,-28.057771,188.495843,1001.124307,998.250742,0
0.006250,26.929548,-175.701776,154.288447,5.857338,3.334727,2.062170,-5.027825,-3.392588,-1.874689,4.890585,-0.252642,0.570244,-0.061832,-15.435811,188.344925,1000.576566,999.508317,0
0.007292,99.011139,-180.824079,101.808334,4.873368,1.399825,3.808347,-4.692002,-1.433413,-3.704447,4.605957,-0.238030,0.558354,-0.058098,-2.293592,188.495731,1000.522347,1000.161014,0
0.008333,145.322568,-179.507260,14.021402,3.176868,-0.464071,4.812398,-3.759159,0.419165,-4.631916,3.680917,-0.208806,0.558354,-0.087972,6.573448,188.495682,999.261504,999.888944,0
0.009375,168.846914,-150.198987,-64.027841,1.706568,-2.214358,5.058451,-2.251686,2.227634,-5.030602,2.282683,-0.175929,0.558028,-0.065566,14.388658,188.495664,999.193390,1000.048939,0
0.010417,179.769742,-71.491898,-123.377273,0.632118,-3.985947,4.653655,-0.139730,3.925831,-4.627720,0.276058,-0.132093,0.552018,-0.073035,20.631778,188.420276,998.830011,1000.365468,0
0.011458,170.582317,8.447444,-162.106440,-0.148272,-4.738606,3.748818,1.412520,4.866823,-3.805168,-1.307184,-0.117481,0.559204,-0.058098,30.810778,188.495731,999.484515,1001.120985,0
0.012500,123.420200,80.981192,-179.427463,-0.544122,-4.901919,1.716903,3.352832,4.892553,-1.883082,-3.057645,-0.077298,0.561098,-0.054364,32.348938,188.420327,998.968811,1001.065600,0
0.013542,43.194694,133.714338,-189.706819,-0.736392,-4.344525,-0.172143,4.449855,4.447787,0.127133,-4.260197,-0.044421,0.548556,-0.095440,31.953088,188.495812,999.251025,1000.983864,0
0.014583,-28.319772,175.816288,-154.264584,-0.069102,-3.169383,-1.946100,4.972246,3.260520,1.826794,-4.733390,-0.033462,0.593695,-0.028224,18.618598,188.344925,998.611092,1000.800093,0
0.015625,-99.176373,180.926511,-101.981440,0.914868,-1.305487,-3.716088,4.625229,1.371184,3.656552,-4.470110,-0.026156,0.561163,-0.061832,5.860918,188.495796,999.056712,1001.104589,0
0.016667,-145.635255,179.549287,-15.277841,2.566128,0.590362,-4.684423,3.632685,-0.496097,4.655365,-3.534396,-0.055380,0.563515,-0.065566,-1.264382,188.420263,999.877944,1001.865054,0
0.017708,-169.454506,150.929626,63.399243,4.059048,2.354850,-4.926506,2.069241,-2.231051,5.007887,-2.121931,-0.084604,0.557832,-0.024490,-10.301071,188.495788,1000.012558,1002.396415,0
0.018750,-180.490759,71.944676,123.167235,5.167428,4.108687,-4.509805,-0.012864,-3.973356,4.521071,-0.086843,-0.128440,0.559204,-0.058098,-15.220921,188.344780,1000.923236,1001.251112,0
0.019792,-170.997086,-9.359808,161.760985,5.981748,4.903950,-3.529565,-1.561382,-4.873915,3.685929,1.457263,-0.175929,0.534903,-0.065566,-24.834421,188.495729,1001.324838,1000.452682,0
0.020833,-123.165761,-80.999569,179.586743,6.343668,4.996257,-1.557179,-3.464381,-4.892294,1.772237,3.278880,-0.154011,0.535229,-0.054364,-27.741091,188.420296,1001.711439,999.780281,0
0.021875,-43.076365,-133.249479,189.669129,6.502008,4.460165,0.327899,-4.583792,-4.432825,-0.145652,4.442296,-0.248989,0.555284,-0.058098,-27.910741,188.495816,1001.264853,998.682980,0
0.022917,26.668670,-175.738018,154.682387,5.902578,3.313425,2.085981,-5.065139,-3.355830,-1.883082,4.883469,-0.238030,0.575731,-0.061832,-14.531011,188.344885,1001.520740,998.122739,0
0.023958,98.058369,-180.497895,103.051705,4.884678,1.424677,3.844064,-4.688270,-1.422386,-3.687660,4.609515,-0.219765,0.563646,-0.043161,-2.056082,188.495613,1001.772978,997.570856,0
0.025000,145.265856,-179.664312,15.523296,3.210798,-0.485373,4.788587,-3.729308,0.430192,-4.715850,3.691591,-0.212459,0.561947,-0.031958,6.177598,188.420218,1003.201913,997.714644,0
0.026042,168.937654,-150.452686,-63.867803,1.706568,-2.221459,5.018765,-2.206909,2.216607,-5.026405,2.314704,-0.194194,0.556264,-0.039427,15.372628,188.495711,1003.050099,998.063535,0
0.027083,179.849140,-70.803286,-123.143372,0.620808,-3.982397,4.661592,-0.180775,3.955237,-4.636113,0.268942,-0.157664,0.532551,-0.058098,19.444228,188.420274,1003.304606,998.163818,0
0.028125,170.729769,9.522645,-161.478599,-0.148272,-4.816712,3.752787,1.401325,4.841092,-3.750611,-1.303626,-0.102869,0.566520,-0.035692,32.722168,188.495598,1002.757013,997.457814,0
0.029167,124.032695,80.497956,-179.132008,-0.532812,-4.909019,1.772463,3.364026,4.896229,-1.878886,-3.075434,-0.069992,0.561490,-0.039427,32.088808,188.420321,1003.205506,997.195564,0
0.030208,45.054864,133.194859,-189.522160,-0.713772,-4.404880,-0.172143,4.449855,4.462490,0.085166,-4.324238,-0.062686,0.572073,-0.039427,34.452598,188.495740,1004.096698,997.468278,0
0.031250,-26.039929,175.490104,-154.584660,-0.080412,-3.215537,-1.961974,4.961052,3.315656,1.839384,-4.719159,-0.055380,0.573314,-0.039427,20.462128,188.420311,1004.538087,997.302129,0
0.032292,-98.076150,181.313099,-102.436932,0.960108,-1.294836,-3.696245,4.584184,1.407942,3.622978,-4.445205,-0.040768,0.562078,-0.031958,5.793058,188.495705,1004.100081,997.121649,0
0.033333,-144.795910,179.670097,-14.785417,2.622678,0.530007,-4.668548,3.666267,-0.426258,4.617595,-3.569975,-0.040768,0.554239,-0.050629,-0.382202,188.420358,1002.988937,997.719337,0
0.034375,-169.556588,151.086678,63.510038,4.059048,2.294495,-4.918569,2.132674,-2.256781,4.986904,-2.182414,-0.069992,0.556003,-0.020755,-10.368931,188.495712,1002.946913,998.215811,0
0.035417,-179.401879,73.164847,123.241099,5.156118,4.076735,-4.557428,0.072958,-3.932923,4.575628,-0.179347,-0.157664,0.554108,-0.017021,-15.401881,188.420274,1002.123631,999.284536,0
0.036458,-171.598238,-7.438945,161.847160,5.925198,4.889749,-3.644654,-1.512874,-4.892294,3.748879,1.375432,-0.175929,0.555545,-0.065566,-26.067211,188.495673,1002.060053,1000.268713,0
0.037500,-125.116671,-79.888126,178.577273,6.298428,4.935902,-1.636550,-3.397216,-4.903321,1.810007,3.175703,-0.205153,0.558550,-0.054364,-27.978601,188.420343,1001.279008,1000.314033,0
0.038542,-44.097190,-132.802486,190.284660,6.502008,4.502768,0.276307,-4.531553,-4.502664,-0.116275,4.413834,-0.234377,0.555219,-0.073035,-28.057771,188.495712,1001.368470,1001.043956,0
0.039583,26.929548,-174.783627,154.707008,5.891268,3.345377,2.002641,-5.072601,-3.374209,-1.815935,4.883469,-0.230724,0.574620,-0.054364,-15.662011,188.420235,1000.436127,1001.348026,0
0.040625,97.627354,-181.428124,102.940909,4.907298,1.428227,3.800410,-4.740509,-1.473846,-3.683464,4.620189,-0.267254,0.562405,-0.024490,-2.768611,188.495803,1000.370956,1002.070015,0
0.041667,144.585306,-179.277723,16.569697,3.233418,-0.396616,4.816367,-3.785279,0.341974,-4.665490,3.759190,-0.223418,0.559857,-0.058098,6.471658,188.420267,999.203062,1002.812806,0
0.042708,169.890424,-151.479563,-61.984280,1.706568,-2.189506,5.078294,-2.296462,2.165146,-5.047389,2.353840,-0.175929,0.557962,-0.043161,14.264248,188.495635,999.392651,1003.364996,0
0.043750,178.760260,-73.533571,-123.032576,0.575568,-3.914942,4.641749,-0.191969,3.918479,-4.648703,0.300963,-0.135746,0.545747,-0.061832,20.439508,188.344943,999.322916,1003.167900,0
0.044792,171.467032,8.713224,-161.121591,-0.159582,-4.788310,3.736912,1.419982,4.863147,-3.796774,-1.264490,-0.088257,0.557636,-0.058098,30.901258,188.495714,999.503868,1003.863028,0
0.045833,124.191490,81.295295,-178.270266,-0.532812,-4.869966,1.764526,3.289399,4.874174,-1.883082,-3.054087,-0.069992,0.559596,-0.031958,32.281078,188.420325,998.857322,1003.767377,0
0.046875,44.022696,133.134454,-190.223864,-0.679842,-4.419081,-0.112614,4.461049,4.488220,0.089363,-4.320680,-0.037115,0.546727,-0.069301,32.043568,188.495656,998.831309,1004.234149,0
0.047917,-25.631599,175.224324,-154.707766,-0.057792,-3.243939,-1.910383,4.953590,3.374468,1.755450,-4.729833,-0.066339,0.565606,-0.061832,19.353748,188.344885,998.005604,1005.206290,0
0.048958,-97.066667,181.445989,-103.766478,0.903558,-1.316138,-3.684340,4.632692,1.426321,3.660749,-4.491457,-0.037115,0.562666,-0.061832,6.222838,188.495736,999.131549,1005.482732,0
0.050000,-144.659800,179.488883,-16.582765,2.543508,0.569060,-4.656643,3.662536,-0.437285,4.651168,-3.555743,-0.055380,0.559792,-0.046895,-1.128662,188.420274,999.942122,1004.973164,0
0.051042,-169.692698,151.618237,62.869887,4.070358,2.305146,-4.958255,2.162525,-2.231051,5.003690,-2.129047,-0.051727,0.552802,-0.065566,-9.995701,188.495711,1000.248295,1004.447106,0
0.052083,-179.231741,72.742015,122.797917,5.201358,4.044782,-4.525679,0.043107,-3.925572,4.567234,-0.140210,-0.172276,0.530918,-0.099175,-15.085201,188.345001,1000.263129,1003.859159,0
0.053125,-171.915828,-8.393336,161.280872,5.936508,4.903950,-3.632748,-1.527800,-4.877591,3.732092,1.403895,-0.175929,0.569329,-0.035692,-24.710011,188.495734,1000.241945,1003.489672,0
0.054167,-125.286809,-79.574023,178.589584,6.343668,4.978505,-1.600833,-3.449455,-4.932727,1.851974,3.161472,-0.212459,0.561490,-0.017021,-27.413101,188.420258,1000.184181,1004.150637,0
0.055208,-45.946018,-132.283007,190.100001,6.524628,4.499218,0.264401,-4.557672,-4.528395,-0.145652,4.470759,-0.241683,0.569133,-0.035692,-27.865501,188.495642,1001.641188,1003.921908,0
0.056250,24.581650,-174.928598,154.916288,5.846028,3.334727,2.062170,-5.046482,-3.396264,-1.836919,4.894143,-0.219765,0.572269,-0.043161,-14.768521,188.420321,1002.505264,1003.643550,0
0.057292,96.867406,-181.343558,103.334849,4.895988,1.385624,3.800410,-4.692002,-1.455468,-3.649890,4.602399,-0.216112,0.557048,-0.054364,-1.999532,188.495732,1002.270372,1002.986452,0
0.058333,143.848043,-179.748879,16.064962,3.210798,-0.456971,4.804461,-3.826324,0.411814,-4.652900,3.666686,-0.219765,0.558289,-0.024490,6.053188,188.420274,1002.643767,1001.246064,0
0.059375,169.402697,-151.491644,-62.132008,1.763118,-2.175305,5.058451,-2.337507,2.172498,-5.064176,2.328935,-0.183235,0.557962,-0.058098,15.327388,188.495707,1002.863999,1000.980686,0
0.060417,178.680862,-74.161778,-122.515531,0.586878,-3.907841,4.641749,-0.191969,3.881722,-4.644506,0.350773,-0.128440,0.551365,-0.039427,19.376368,188.495696,1002.225352,1001.105720,0
0.061458,171.841334,6.852765,-161.158523,-0.125652,-4.749257,3.768661,1.378937,4.848444,-3.809364,-1.271606,-0.124787,0.563188,-0.024490,32.484658,188.495636,1002.682794,1000.763238,0
0.062500,126.028975,79.579807,-178.048675,-0.532812,-4.855765,1.776432,3.278205,4.899904,-1.891476,-2.990046,-0.102869,0.562535,-0.020755,32.122738,188.420267,1002.809144,1000.580595,0
0.063542,44.793986,132.675380,-190.457766,-0.781632,-4.411980,-0.124520,4.446123,4.491896,0.064183,-4.285102,-0.048074,0.559661,-0.080503,34.305568,188.495680,1002.476371,1000.494774,0
0.064583,-26.028587,174.547793,-154.904735,-0.057792,-3.293643,-1.854822,4.938664,3.374468,1.713483,-4.690696,-0.004238,0.554762,-0.054364,20.903218,188.420301,1001.539734,1000.299323,0
0.065625,-96.839817,182.098358,-103.495644,0.903558,-1.355191,-3.652591,4.647617,1.429996,3.622978,-4.491457,-0.029809,0.560706,-0.039427,6.132358,188.495826,1001.155626,1000.441071,0
0.066667,-143.967907,179.464721,-17.542992,2.520888,0.451901,-4.632831,3.699849,-0.360094,4.579824,-3.619784,0.006721,0.565736,-0.009553,-0.291722,188.420358,999.943222,1001.029480,0
0.067708,-170.577413,152.041069,60.986364,4.013808,2.287395,-4.930475,2.214764,-2.194293,5.028871,-2.239340,-0.077298,0.559530,-0.050629,-10.187971,188.495723,999.903493,1002.378708,0
0.068750,-178.097491,75.484380,122.699432,5.167428,3.995078,-4.505836,0.136391,-3.870435,4.600808,-0.218483,-0.128440,0.557179,-0.061832,-15.288781,188.420350,999.372242,1002.824030,0
0.069792,-172.369528,-7.583916,160.837690,5.925198,4.921701,-3.652591,-1.483023,-4.859212,3.765666,1.411011,-0.190541,0.566324,-0.035692,-26.044591,188.495718,999.538857,1002.819415,0
0.070833,-126.080784,-80.310958,177.235417,6.287118,4.950103,-1.676236,-3.352440,-4.895970,1.931711,3.090315,-0.223418,0.542676,-0.039427,-27.865501,188.420394,997.959860,1003.355724,0
0.071875,-44.947878,-132.113874,190.875569,6.524628,4.548922,0.173124,-4.565135,-4.568828,-0.070111,4.399602,-0.227071,0.564626,-0.058098,-28.136941,188.495631,996.556335,1004.416819,0
0.072917,24.388828,-174.034611,155.064016,5.857338,3.437685,1.970892,-5.035288,-3.466103,-1.715215,4.840775,-0.227071,0.570440,-0.039427,-16.408471,188.420296,994.590952,1005.089253,0
0.073958,95.506306,-182.104655,104.492046,4.895988,1.481481,3.744849,-4.699464,-1.536334,-3.637300,4.662883,-0.267254,0.566912,-0.046895,-3.322801,188.495653,994.970514,1006.205031,0
0.075000,143.598508,-179.120672,18.010038,3.267348,-0.364663,4.733027,-3.751696,0.297865,-4.631916,3.769863,-0.201500,0.560118,-0.031958,6.505588,188.420206,994.105975,1007.631444,0
0.076042,170.298754,-151.890314,-61.245644,1.763118,-2.107850,5.074325,-2.337507,2.139416,-5.034799,2.375187,-0.208806,0.554566,-0.043161,13.845778,188.495636,993.711131,1008.041300,0
0.077083,177.410502,-74.487962,-122.527841,0.632118,-3.851036,4.665561,-0.277791,3.793504,-4.640310,0.386351,-0.150358,0.545681,-0.050629,20.303788,188.420347,992.202421,1007.916579,0
0.078125,172.329062,7.746752,-160.469129,-0.103032,-4.781209,3.832158,1.326698,4.767577,-3.838741,-1.214680,-0.106522,0.563319,-0.050629,30.810778,188.420372,990.669379,1008.196418,0
0.079167,126.550730,79.797263,-177.002273,-0.487572,-4.873517,1.867709,3.252085,4.877850,-1.958623,-2.961583,-0.080951,0.558812,-0.013287,31.907848,188.420256,989.801228,1008.593521,0
0.080208,46.869664,132.204225,-190.580872,-0.747702,-4.447483,-0.064991,4.446123,4.488220,0.047396,-4.277986,-0.040768,0.567696,-0.050629,32.122738,188.495779,990.183765,1008.251702,0
0.081250,-23.623977,174.378661,-155.101705,-0.080412,-3.258140,-1.815137,4.901350,3.400198,1.684106,-4.704928,-0.037115,0.568414,-0.050629,19.579948,188.420359,990.494956,1008.178217,0
0.082292,-95.853020,182.243329,-103.988069,0.926178,-1.344540,-3.632748,4.606572,1.459402,3.551635,-4.470110,-0.055380,0.557701,-0.058098,6.098428,188.420339,989.619779,1007.954510,0
0.083333,-143.480179,179.573449,-16.989015,2.543508,0.490954,-4.601082,3.711043,-0.349067,4.563038,-3.577090,-0.051727,0.554239,-0.054364,-1.185212,188.420249,989.165025,1007.417447,0
0.084375,-170.259823,152.234364,61.454167,4.047738,2.248342,-4.942381,2.233421,-2.186942,5.003690,-2.239340,-0.106522,0.555415,-0.073035,-10.007011,188.495676,988.819303,1007.264114,0
0.085417,-177.881983,76.003859,122.403978,5.178738,4.027031,-4.537585,0.155048,-3.837354,4.638578,-0.254061,-0.139399,0.557701,-0.065566,-15.017341,188.420296,988.459261,1007.782842,0
0.086458,-172.834571,-5.675133,160.800758,5.925198,4.871997,-3.648622,-1.441978,-4.877591,3.736289,1.386106,-0.175929,0.563907,-0.039427,-24.596911,188.420287,988.951664,1007.296674,0
0.087500,-127.419199,-78.728359,177.272349,6.264498,4.967855,-1.700048,-3.322589,-4.899645,1.881351,3.125893,-0.219765,0.562209,-0.050629,-27.424411,188.420269,990.253746,1006.241538,0
0.088542,-46.365690,-131.642719,190.937122,6.513318,4.506318,0.192967,-4.535284,-4.476934,-0.061718,4.410276,-0.208806,0.532616,-0.017021,-27.786331,188.495703,990.423593,1004.985110,0
0.089583,24.581650,-173.792993,155.445644,5.879958,3.405732,1.947081,-5.035288,-3.414642,-1.698428,4.815870,-0.252642,0.534445,-0.050629,-15.107821,188.495703,990.113875,1004.269625,0
0.090625,95.597046,-182.056331,104.332008,4.895988,1.520534,3.732944,-4.766629,-1.495901,-3.603727,4.630862,-0.208806,0.563972,-0.050629,-2.418001,188.420267,989.682710,1003.555834,0
0.091667,143.110781,-179.362290,18.600947,3.301278,-0.364663,4.764775,-3.830055,0.268459,-4.610933,3.776979,-0.208806,0.559596,-0.035692,5.872228,188.420314,989.388553,1003.524964,0
0.092708,170.627687,-152.409793,-59.817614,1.729188,-2.086548,5.050513,-2.356164,2.098983,-5.080962,2.407208,-0.186888,0.559726,-0.043161,15.248218,188.495723,989.638547,1004.131897,0
0.093750,177.342447,-76.735010,-121.998485,0.609498,-3.854587,4.697310,-0.270328,3.797179,-4.623523,0.425487,-0.135746,0.554958,-0.039427,19.263268,188.495658,989.970195,1003.887633,0
0.094792,172.499199,6.973574,-160.272160,-0.125652,-4.763458,3.820252,1.285653,4.833741,-3.838741,-1.239585,-0.106522,0.543918,-0.054364,32.473348,188.420249,991.113132,1003.901452,0
0.095833,126.993087,80.183852,-176.559091,-0.476262,-4.841564,1.887552,3.207309,4.888877,-1.954426,-2.893984,-0.055380,0.551234,-0.058098,32.179288,188.420184,990.414051,1004.052670,0
0.096875,45.905551,131.926364,-190.900948,-0.679842,-4.454584,-0.017368,4.397616,4.521302,-0.028144,-4.242408,-0.040768,0.542415,-0.080503,34.135918,188.495712,989.290954,1005.047985,0
0.097917,-23.465182,173.726292,-155.446402,-0.057792,-3.311394,-1.787356,4.953590,3.436956,1.642139,-4.701370,-0.033462,0.568284,-0.031958,21.796708,188.495745,988.807552,1005.425587,0
0.098958,-94.639372,182.690323,-104.960606,0.914868,-1.440398,-3.612905,4.658811,1.521890,3.547438,-4.509246,-0.059033,0.562862,-0.039427,6.403798,188.420399,989.137806,1006.127069,0
0.100000,-142.981109,179.259346,-19.057197,2.486958,0.409297,-4.553459,3.707312,-0.279227,4.533661,-3.630458,-0.080951,0.561229,-0.035692,-0.393512,188.420392,988.634587,1006.548928,0
0.101042,-171.087826,152.500143,60.186174,4.013808,2.202188,-4.910632,2.293123,-2.128130,4.961723,-2.260687,-0.113828,0.556003,-0.035692,-9.735571,188.495758,987.927228,1006.534158,0
0.102083,-176.645651,76.438772,122.428599,5.190048,3.927623,-4.577271,0.196093,-3.807948,4.617595,-0.296756,-0.154011,0.542807,-0.046895,-15.085201,188.495696,987.010199,1006.370011,0
0.103125,-173.016051,-6.714090,160.283713,5.970438,4.850695,-3.759743,-1.371082,-4.815103,3.816026,1.332738,-0.164970,0.562209,-0.050629,-25.727911,188.420329,985.599999,1007.392571,0
0.104167,-128.428681,-79.042463,175.967425,6.264498,4.946553,-1.783388,-3.206916,-4.892294,1.982072,3.029831,-0.205153,0.551561,-0.058098,-27.503581,188.420312,983.980461,1008.359989,0
0.105208,-47.964983,-131.425263,191.035607,6.524628,4.566673,0.133438,-4.512896,-4.609261,0.034806,4.371139,-0.223418,0.570636,-0.028224,-28.148251,188.495649,983.629089,1010.266347,0
0.106250,22.222410,-173.031896,155.482576,5.857338,3.451886,1.843898,-4.953198,-3.517563,-1.585117,4.790965,-0.245336,0.572334,-0.035692,-16.668601,188.495830,982.432969,1011.030161,0
0.107292,94.224603,-182.962399,104.676705,4.907298,1.548937,3.689289,-4.755435,-1.554713,-3.544973,4.662883,-0.245336,0.557440,-0.020755,-3.334111,188.420345,982.027482,1011.740928,0
0.108333,142.203381,-179.168995,18.687121,3.289968,-0.268806,4.677467,-3.848712,0.250081,-4.564769,3.801884,-0.216112,0.553716,-0.054364,6.663928,188.420202,981.332782,1011.637673,0
0.109375,170.877222,-152.252741,-59.546780,1.819668,-2.036844,5.078294,-2.468105,2.069577,-5.068372,2.471249,-0.172276,0.556395,-0.050629,13.743988,188.495635,980.717999,1012.366582,0
0.110417,175.981347,-77.846453,-122.121591,0.609498,-3.811983,4.717152,-0.367344,3.753070,-4.682277,0.507318,-0.154011,0.565214,-0.020755,20.100208,188.495665,979.887646,1013.364489,0
