1-Time,2-VGERA,3-VGERB,4-VGERC,5-VN,6-IGERAN,7-IGERBN,8-IGERCN,9-IGERAT,10-IGERBT,11-IGERCT,12-IN,13-IFD,14-IFAULT,15-VFAULT,16-Speed (rad/s),17-Active Power,18-Reactive Power,19-FAULT 
0.000000,-53.903542,-98.964863,196.935006,4.131172,-0.563102,6.123841,-4.753910,0.825613,-6.029717,5.097002,-0.273164,0.364295,-0.097156,-3.337254,188.721949,1495.631009,-880.079176,0
0.001042,-5.483362,-158.840925,153.213292,3.275465,-2.962937,6.445658,-2.702474,3.139639,-6.304503,2.981189,-0.200241,0.314549,-0.093440,8.393920,188.495721,1495.820926,-879.880626,0
0.002083,45.547100,-204.482034,88.627156,2.059460,-5.146273,5.769841,-0.030307,5.196148,-5.746475,0.320338,-0.156487,0.319441,-0.086006,30.358912,188.495656,1495.966165,-879.947256,0
0.003125,118.555918,-176.200050,37.176978,1.046123,-6.283810,4.172820,2.501816,6.374923,-4.211898,-2.215609,-0.105440,0.315031,-0.074856,52.256353,188.495705,1496.859063,-879.200524,0
0.004167,183.801687,-127.928058,-12.146657,0.055305,-6.636079,2.258004,4.477554,6.741250,-2.364486,-4.301141,-0.050748,0.324677,-0.089723,65.147135,188.646473,1497.818630,-879.159999,0
0.005208,192.276631,-67.476491,-73.366779,-1.115662,-5.700364,-0.425151,6.059658,5.827246,0.294603,-5.841634,-0.021578,0.324884,-0.097156,61.589504,188.495769,1499.089991,-878.996196,0
0.006250,170.377376,-16.691068,-150.116737,-2.624408,-4.361006,-2.677876,6.669033,4.597693,2.611265,-6.689473,-0.006994,0.337493,-0.126890,45.107317,188.495680,1499.506891,-880.172327,0
0.007292,114.544445,32.884620,-192.088611,-3.423819,-2.019882,-4.476033,6.040733,2.374342,4.344535,-5.977894,-0.043455,0.349137,-0.108307,21.532385,188.495787,1500.369238,-881.291524,0
0.008333,54.926038,98.997282,-196.584730,-3.547671,0.611130,-6.141440,4.924176,-0.175439,6.086259,-4.963515,-0.050748,0.336528,-0.089723,5.117748,188.646460,1500.744815,-881.637124,0
0.009375,5.997362,159.718984,-152.462010,-2.691964,3.110041,-6.459235,2.857600,-2.507600,6.432913,-2.862843,-0.065333,0.328811,-0.089723,-7.637934,188.495535,1501.693891,-882.000139,0
0.010417,-45.338199,204.197337,-88.094605,-1.487219,5.234665,-5.735145,0.158939,-4.636649,5.798790,-0.164141,-0.138256,0.330809,-0.104590,-29.096301,188.495528,1501.822230,-883.074134,0
0.011458,-119.194511,175.856628,-36.134057,-0.462623,6.383210,-4.150192,-2.380754,-5.710241,4.272668,2.413440,-0.229410,0.311586,-0.104590,-51.984475,188.495718,1503.013752,-883.294177,0
0.012500,-183.423286,127.009131,13.140972,0.528196,6.684107,-2.239399,-4.265653,-6.127346,2.404119,4.483832,-0.265872,0.316340,-0.089723,-64.132207,188.646455,1504.123169,-883.228362,0
0.013542,-192.271128,65.606218,73.741359,1.755459,5.777747,0.564438,-5.931026,-5.177072,-0.305700,6.054605,-0.269518,0.323781,-0.104590,-61.362659,188.495785,1505.192401,-883.613364,0
0.014583,-170.371873,15.654690,150.236132,3.207909,4.445729,2.748776,-6.532831,-3.962027,-2.571633,6.800249,-0.287749,0.326469,-0.071140,-45.826171,188.495745,1506.333019,-883.808088,0
0.015625,-113.623648,-32.981397,192.924955,3.996060,2.071580,4.550956,-5.881821,-1.684271,-4.313357,6.126520,-0.295042,0.325297,-0.093440,-21.024082,188.495716,1507.887048,-885.208774,0
0.016667,-55.214334,-99.352449,196.424636,4.097394,-0.533746,6.160045,-4.784189,0.796597,-6.029717,5.138636,-0.243995,0.351548,-0.138040,-3.877653,188.571207,1508.434984,-885.162983,0
0.017708,-6.466456,-160.520461,152.544950,3.241687,-3.014310,6.493931,-2.702474,3.212179,-6.376371,2.977404,-0.182010,0.324195,-0.123173,8.011137,188.495712,1509.466679,-886.503759,0
0.018750,45.739199,-204.059214,88.772977,2.025683,-5.208654,5.765818,0.041606,5.283196,-5.780295,0.293843,-0.123671,0.321921,-0.093440,29.728446,188.495709,1509.937999,-887.639773,0
0.019792,119.742410,-175.835954,36.715215,0.989827,-6.390225,4.172820,2.588870,6.360415,-4.199215,-2.302664,-0.072625,0.314273,-0.104590,53.506027,188.495729,1509.858186,-888.098642,0
0.020833,183.699988,-127.011947,-12.960819,0.055305,-6.628740,2.237891,4.485123,6.766639,-2.347576,-4.365486,-0.043455,0.322059,-0.112023,63.649778,188.571189,1510.139272,-888.468791,0
0.021875,192.412230,-65.479840,-73.779936,-1.149440,-5.696694,-0.533765,6.116432,5.827246,0.370698,-5.913549,-0.021578,0.315720,-0.104590,61.094138,188.495740,1510.383493,-889.088338,0
0.022917,169.936678,-15.070256,-149.958766,-2.646927,-4.335320,-2.697990,6.703097,4.583185,2.640858,-6.704613,-0.003348,0.318338,-0.104590,43.835126,188.495569,1510.419325,-888.866755,0
0.023958,112.566958,33.295695,-192.963532,-3.457597,-1.990527,-4.520283,6.044518,2.374342,4.352990,-6.019529,-0.003348,0.309175,-0.089723,19.404562,188.495759,1511.124212,-888.335029,0
0.025000,53.829946,99.290907,-196.086511,-3.536412,0.607460,-6.181667,4.973380,-0.142796,6.132762,-5.016505,-0.072625,0.323919,-0.093440,4.588607,188.571087,1512.186903,-887.691999,0
0.026042,5.884363,160.294489,-152.012398,-2.658186,3.088024,-6.447167,2.880310,-2.500346,6.466733,-2.919618,-0.105440,0.327640,-0.097156,-8.189592,188.495613,1513.248400,-887.251683,0
0.027083,-45.654597,203.915457,-88.434852,-1.464701,5.219987,-5.743190,0.143800,-4.640276,5.862202,-0.194421,-0.149195,0.324470,-0.123173,-29.253917,188.495716,1514.177690,-887.094622,0
0.028125,-119.929006,175.422062,-36.936067,-0.518919,6.419905,-4.130079,-2.403464,-5.742884,4.306487,2.409655,-0.182010,0.317167,-0.130607,-52.705007,188.495617,1514.856800,-887.302752,0
0.029167,-184.067382,127.244031,12.727815,0.471899,6.698785,-2.215263,-4.314857,-6.109211,2.421029,4.468692,-0.214826,0.323230,-0.119457,-63.524257,188.571181,1514.963736,-887.165633,0
0.030208,-192.237228,66.228704,74.203122,1.732941,5.796095,0.512143,-6.006724,-5.173445,-0.267653,6.073530,-0.287749,0.325435,-0.112023,-59.246094,188.495727,1515.390214,-887.135445,0
0.031250,-170.157174,15.948315,150.612834,3.207909,4.453068,2.748776,-6.559325,-3.983789,-2.546268,6.853239,-0.265872,0.344107,-0.130607,-44.430139,188.495709,1516.186972,-887.157291,0
0.032292,-112.651854,-33.322002,193.010016,4.086135,2.049563,4.603251,-5.915886,-1.684271,-4.330267,6.137875,-0.258580,0.344314,-0.104590,-20.888982,188.495633,1516.378190,-886.920084,0
0.033333,-53.993942,-99.657819,196.327423,4.131172,-0.533746,6.188204,-4.795544,0.818359,-6.063537,5.153776,-0.243995,0.319785,-0.100873,-3.269704,188.646493,1516.814701,-886.856772,0
0.034375,-5.539862,-160.379521,151.645726,3.219168,-3.032657,6.542204,-2.706259,3.219433,-6.384826,2.984974,-0.192949,0.290916,-0.074856,8.483987,188.495758,1516.923283,-886.267285,0
0.035417,45.976498,-204.258879,87.618568,2.025683,-5.193977,5.814091,-0.045447,5.250553,-5.805660,0.335478,-0.149195,0.326675,-0.104590,30.358912,188.495752,1517.471769,-885.060897,0
0.036458,119.572911,-175.518839,36.131935,1.046123,-6.386555,4.261320,2.581300,6.425701,-4.245717,-2.314018,-0.079917,0.313515,-0.100873,52.796753,188.495747,1518.387523,-885.259675,0
0.037500,183.824287,-126.683087,-12.827151,0.100342,-6.672774,2.290186,4.488908,6.806536,-2.343349,-4.361701,-0.061686,0.326469,-0.097156,64.854418,188.571076,1518.724889,-885.343571,0
0.038542,192.208831,-66.125815,-74.278154,-1.160699,-5.762745,-0.465379,6.139141,5.881651,0.349560,-5.928689,-0.021578,0.327433,-0.093440,61.420629,188.495812,1519.647963,-885.417534,0
0.039583,170.230477,-15.962877,-150.469136,-2.658186,-4.441735,-2.681899,6.706882,4.648471,2.585901,-6.734893,0.003945,0.334048,-0.078573,45.051025,188.495660,1520.815087,-885.136703,0
0.040625,113.109354,33.131265,-193.243020,-3.502634,-2.034560,-4.568556,6.108862,2.399731,4.399492,-6.083873,-0.025225,0.348930,-0.104590,21.172119,188.495727,1522.014990,-885.903649,0
0.041667,55.072938,99.608022,-195.977146,-3.480115,0.581774,-6.169599,5.011230,-0.171812,6.145444,-5.027860,-0.032517,0.341075,-0.112023,5.174040,188.571107,1522.153811,-886.717718,0
0.042708,6.460659,161.363285,-151.161781,-2.680705,3.132057,-6.575894,2.910589,-2.547497,6.517463,-2.904478,-0.061686,0.336252,-0.119457,-7.536609,188.495629,1522.671379,-887.503308,0
0.043750,-45.643297,203.891967,-87.717903,-1.464701,5.297046,-5.751236,0.166509,-4.622141,5.921387,-0.183066,-0.138256,0.297324,-0.123173,-29.186367,188.495767,1523.149267,-887.183929,0
0.044792,-120.347103,175.234142,-35.781658,-0.473882,6.504303,-4.194442,-2.433743,-5.786408,4.293805,2.530775,-0.207533,0.312895,-0.100873,-52.524874,188.495741,1523.293974,-888.359194,0
0.045833,-183.400687,126.410135,13.298944,0.516936,6.728141,-2.215263,-4.379201,-6.149108,2.416801,4.495187,-0.258580,0.320681,-0.093440,-63.940815,188.571038,1523.491774,-888.356682,0
0.046875,-192.237228,64.678362,74.567672,1.744200,5.858476,0.528234,-6.029434,-5.191580,-0.356430,6.122735,-0.276811,0.320957,-0.067423,-61.148751,188.495779,1523.672616,-889.033654,0
0.047917,-169.908576,14.585894,150.211829,3.174131,4.464076,2.748776,-6.555540,-4.005551,-2.584315,6.838099,-0.273164,0.352375,-0.108307,-45.488421,188.495714,1523.707283,-888.697308,0
0.048958,-111.487962,-33.451197,194.018605,4.052357,2.038554,4.635433,-5.949950,-1.691525,-4.342950,6.187080,-0.251287,0.332463,-0.100873,-20.573749,188.495752,1524.642604,-888.574783,0
0.050000,-54.287740,-99.810504,195.975024,4.041097,-0.552093,6.212340,-4.784189,0.876391,-6.084674,5.138636,-0.240349,0.305936,-0.123173,-3.765070,188.495787,1524.306604,-889.383124,0
0.051042,-6.477756,-161.847647,151.317631,3.252946,-3.065682,6.562317,-2.694904,3.223060,-6.397508,3.000114,-0.225764,0.326744,-0.115740,7.988621,188.495785,1524.937086,-889.629715,0
0.052083,46.112097,-203.659883,88.529943,2.014423,-5.241680,5.822136,0.015112,5.290450,-5.771840,0.278703,-0.141902,0.323919,-0.086006,29.886062,188.495736,1524.184429,-890.781647,0
0.053125,120.759403,-175.507094,36.411423,0.978568,-6.467284,4.221093,2.672138,6.476479,-4.216125,-2.276169,-0.083563,0.313033,-0.086006,54.113977,188.495720,1524.786382,-890.822534,0
0.054167,183.609588,-126.718322,-13.021577,0.032786,-6.595715,2.201686,4.526758,6.784774,-2.309529,-4.369271,-0.072625,0.321783,-0.059989,63.368320,188.495731,1524.254326,-891.000049,0
0.055208,192.423530,-65.127489,-74.460429,-1.183218,-5.729720,-0.529742,6.154281,5.849008,0.383380,-5.962754,-0.006994,0.320405,-0.104590,61.049105,188.495915,1524.067522,-891.275678,0
0.056250,169.710680,-14.588711,-150.165344,-2.624408,-4.346328,-2.710058,6.699312,4.568677,2.640858,-6.662978,0.040407,0.331567,-0.108307,43.519893,188.495866,1522.474264,-891.085407,0
0.057292,111.504765,33.589321,-193.838452,-3.513893,-1.957501,-4.588669,6.093722,2.348953,4.450222,-6.011959,-0.014286,0.317029,-0.093440,19.111845,188.495745,1521.602259,-891.178033,0
0.058333,53.411849,99.807687,-195.600445,-3.513893,0.629477,-6.137417,4.927961,-0.229844,6.111624,-4.940805,-0.032517,0.358576,-0.071140,4.307149,188.495812,1520.133168,-890.837678,0
0.059375,5.398466,161.504225,-150.542046,-2.658186,3.157744,-6.483371,2.857600,-2.503973,6.437141,-2.851488,-0.076271,0.318407,-0.089723,-8.358467,188.495727,1518.960997,-889.626589,0
0.060417,-46.038794,203.844987,-87.730055,-1.430923,5.249343,-5.719054,0.109735,-4.625768,5.874885,-0.167926,-0.130964,0.332187,-0.078573,-29.332725,188.495788,1518.459602,-889.648961,0
0.061458,-120.618301,175.022732,-36.206967,-0.428845,6.438252,-4.162261,-2.505657,-5.724749,4.285350,2.474000,-0.207533,0.318614,-0.119457,-53.222890,188.495645,1518.021197,-888.625092,0
0.062500,-183.999583,126.738996,13.165275,0.516936,6.680438,-2.195149,-4.333782,-6.123719,2.404119,4.480047,-0.214826,0.324057,-0.100873,-63.242799,188.571013,1517.870036,-888.616476,0
0.063542,-192.158129,66.064273,74.932222,1.744200,5.770408,0.600643,-5.980230,-5.158937,-0.326838,6.069745,-0.233057,0.328053,-0.100873,-59.223577,188.495774,1517.436337,-888.275122,0
0.064583,-169.976375,15.736905,150.782957,3.196650,4.434720,2.780958,-6.532831,-3.947519,-2.575860,6.883519,-0.305980,0.340180,-0.086006,-44.362589,188.495680,1517.326678,-889.166859,0
0.065625,-112.211157,-33.474687,193.678358,4.041097,2.009199,4.639456,-5.870467,-1.684271,-4.355632,6.122735,-0.280457,0.359747,-0.123173,-20.742624,188.495669,1516.556747,-889.403482,0
0.066667,-53.892242,-100.256814,195.768446,4.108653,-0.585119,6.176136,-4.772835,0.847375,-6.050854,5.085647,-0.247641,0.328536,-0.115740,-3.179637,188.571196,1515.956430,-888.620609,0
0.067708,-5.370363,-161.448317,150.697895,3.230428,-3.080360,6.530136,-2.679764,3.226687,-6.359461,2.924414,-0.196595,0.326537,-0.071140,8.574054,188.495752,1514.771541,-888.274857,0
0.068750,46.507594,-203.976999,87.108197,2.003164,-5.171960,5.781909,0.064316,5.301331,-5.767613,0.297628,-0.149195,0.319234,-0.123173,30.494012,188.495749,1515.110160,-887.566891,0
0.069792,120.612504,-175.225214,35.439289,1.012346,-6.375547,4.192934,2.619149,6.440209,-4.178078,-2.382148,-0.098148,0.312551,-0.086006,53.179536,188.495653,1514.129339,-888.136020,0
0.070833,183.801687,-125.802211,-13.556251,0.077824,-6.643418,2.229845,4.488908,6.712234,-2.296846,-4.357916,-0.054394,0.324815,-0.097156,64.663027,188.495721,1513.343942,-887.286006,0
0.071875,192.084532,-64.563729,-75.080165,-1.228255,-5.806778,-0.493538,6.112647,5.859889,0.379153,-5.913549,-0.058040,0.301940,-0.089723,61.274271,188.571138,1513.317788,-886.368328,0
0.072917,169.891479,-15.011531,-150.554198,-2.601890,-4.401370,-2.730171,6.680387,4.623082,2.615493,-6.719753,-0.006994,0.328191,-0.097156,44.983475,188.495767,1514.575406,-886.437943,0
0.073958,112.307059,33.507106,-193.680480,-3.457597,-1.990527,-4.580624,6.082367,2.294548,4.365672,-6.008174,0.000299,0.345623,-0.082290,21.104569,188.495676,1513.835623,-886.261560,0
0.075000,54.971238,100.148293,-195.381714,-3.536412,0.611130,-6.141440,4.958241,-0.150050,6.124307,-5.024075,-0.054394,0.341695,-0.112023,5.140265,188.495781,1515.224326,-885.908148,0
0.076042,6.223360,162.067986,-150.323316,-2.658186,3.121049,-6.511530,2.842460,-2.558378,6.466733,-2.855273,-0.098148,0.328467,-0.100873,-7.716742,188.571047,1515.587363,-886.873136,0
0.077083,-46.208293,203.633577,-87.462718,-1.442182,5.267691,-5.755259,0.109735,-4.611260,5.845292,-0.137646,-0.156487,0.312551,-0.119457,-29.434050,188.495649,1514.960644,-886.779615,0
0.078125,-121.205898,174.881792,-35.417108,-0.473882,6.489625,-4.113988,-2.490517,-5.753765,4.247303,2.481570,-0.174718,0.311931,-0.067423,-52.772557,188.495691,1515.062533,-886.797968,0
0.079167,-183.524986,125.881610,14.100954,0.539455,6.654751,-2.179058,-4.375416,-6.116465,2.387209,4.491402,-0.251287,0.318476,-0.097156,-63.862007,188.495653,1514.815558,-886.395037,0
0.080208,-192.169429,64.243797,75.333228,1.755459,5.818111,0.592597,-6.044574,-5.162564,-0.411387,6.153015,-0.269518,0.321163,-0.097156,-61.047426,188.571100,1515.088073,-887.255756,0
0.081250,-169.682577,14.010389,150.199677,3.162872,4.412703,2.780958,-6.521476,-3.911249,-2.588543,6.845669,-0.313272,0.325091,-0.112023,-45.285771,188.495671,1514.309884,-886.593825,0
0.082292,-110.617868,-34.050193,194.468217,4.007319,2.001860,4.627388,-5.949950,-1.629866,-4.347177,6.122735,-0.298688,0.338113,-0.052556,-20.224741,188.495678,1514.127493,-886.287587,0
0.083333,-53.135147,-100.303794,195.622626,4.074875,-0.599797,6.156022,-4.765265,0.858256,-6.012807,5.153776,-0.214826,0.335701,-0.104590,-3.461095,188.495700,1514.576799,-885.604869,0
0.084375,-5.585062,-162.329193,150.588530,3.219168,-3.084030,6.505999,-2.664624,3.248449,-6.397508,2.950909,-0.207533,0.329225,-0.115740,8.225046,188.571246,1515.502504,-885.937470,0
0.085417,46.597994,-203.424983,88.177545,2.025683,-5.186638,5.745705,0.075671,5.308585,-5.721110,0.221928,-0.145548,0.320888,-0.100873,30.099970,188.495731,1514.350470,-886.997332,0
0.086458,121.527798,-175.084274,36.034721,1.057383,-6.382886,4.176843,2.656998,6.389431,-4.173850,-2.363223,-0.072625,0.316823,-0.097156,54.271593,188.571149,1514.177222,-886.476245,0
0.087500,183.779087,-126.436442,-13.762829,0.010268,-6.588376,2.189618,4.500263,6.752131,-2.254571,-4.320066,-0.058040,0.323230,-0.097156,63.266995,188.571131,1514.300944,-886.693142,0
0.088542,192.355730,-64.998294,-75.420411,-1.216996,-5.704033,-0.553879,6.089937,5.790976,0.408745,-5.940044,-0.032517,0.325091,-0.115740,61.004071,188.571227,1513.746278,-887.406358,0
0.089583,169.462082,-14.177635,-150.529894,-2.635668,-4.309634,-2.685921,6.646323,4.528780,2.623948,-6.598633,0.003945,0.339008,-0.115740,43.429827,188.495691,1511.651521,-886.655130,0
0.090625,111.188367,34.106101,-193.923514,-3.491375,-1.928146,-4.576601,6.021808,2.287294,4.412175,-5.943829,0.000299,0.343349,-0.108307,19.021779,188.571098,1511.164380,-886.482202,0
0.091667,53.095451,100.394938,-195.393866,-3.525153,0.688188,-6.093167,4.867402,-0.164558,6.111624,-4.891600,-0.047102,0.300700,-0.078573,4.093240,188.571047,1509.668489,-885.978215,0
0.092708,5.048168,161.703891,-150.165344,-2.691964,3.172422,-6.439121,2.819751,-2.489465,6.428686,-2.802283,-0.090856,0.292225,-0.074856,-8.572375,188.571138,1508.814892,-884.837190,0
0.093750,-46.535991,203.504382,-86.685011,-1.475960,5.242004,-5.706986,0.105950,-4.614887,5.803018,-0.145216,-0.127317,0.314204,-0.130607,-29.422792,188.495691,1508.451731,-884.332983,0
0.094792,-120.991199,174.752597,-35.052558,-0.395067,6.416236,-4.158238,-2.433743,-5.695733,4.247303,2.485355,-0.200241,0.315031,-0.074856,-53.324215,188.571118,1507.914485,-883.760356,0
0.095833,-184.067382,126.116510,14.052347,0.573233,6.603379,-2.138831,-4.322427,-6.058433,2.349161,4.427057,-0.240349,0.321232,-0.108307,-63.197766,188.571118,1507.104208,-883.174660,0
0.096875,-192.101629,65.500513,75.697778,1.800497,5.704358,0.584552,-5.923456,-5.097278,-0.331065,6.005400,-0.313272,0.327847,-0.119457,-59.144769,188.571087,1506.004553,-881.357098,0
0.097917,-169.750377,15.208380,151.183962,3.207909,4.372339,2.728663,-6.468487,-3.867725,-2.558950,6.788894,-0.291395,0.346312,-0.086006,-44.295039,188.495785,1505.285737,-881.266788,0
0.098958,-112.211157,-34.179388,193.666207,4.007319,1.965165,4.567047,-5.817477,-1.633493,-4.304902,6.039465,-0.262226,0.318338,-0.086006,-20.776399,188.646587,1504.166730,-881.014038,0
0.100000,-53.722744,-100.855810,195.586171,4.086135,-0.599797,6.127863,-4.685781,0.851002,-6.021262,5.021302,-0.233057,0.338250,-0.078573,-3.078312,188.495759,1502.932442,-881.389688,0
0.101042,-4.895766,-161.647982,150.467014,3.230428,-3.062013,6.453704,-2.588925,3.212179,-6.325641,2.947124,-0.182010,0.330947,-0.082290,8.844253,188.571174,1502.019440,-880.329545,0
0.102083,47.061290,-203.742098,86.901619,2.014423,-5.201315,5.721568,0.094595,5.279569,-5.712655,0.225713,-0.149195,0.316891,-0.082290,30.640370,188.495676,1502.059073,-879.390632,0
0.103125,120.962802,-174.908099,34.941071,1.001086,-6.331513,4.128570,2.604009,6.382177,-4.106210,-2.340513,-0.090856,0.311104,-0.097156,53.145761,188.646518,1501.234448,-878.898237,0
0.104167,183.812987,-125.543821,-14.285351,-0.023510,-6.529665,2.181573,4.469984,6.701353,-2.254571,-4.316281,-0.076271,0.319923,-0.071140,64.617994,188.495662,1500.734920,-878.150376,0
0.105208,191.903733,-63.800303,-75.590535,-1.205737,-5.652661,-0.549856,6.082367,5.794603,0.429882,-5.902194,-0.003348,0.298771,-0.104590,61.139171,188.571103,1500.360628,-877.406424,0
0.106250,169.281283,-13.872265,-150.614956,-2.613149,-4.309634,-2.697990,6.581979,4.510645,2.640858,-6.591063,0.007591,0.335288,-0.112023,44.758309,188.495703,1500.123127,-877.456547,0
0.107292,111.380465,34.317511,-193.607570,-3.502634,-1.939154,-4.560510,5.991529,2.294548,4.420630,-5.913549,0.003945,0.338733,-0.100873,21.037019,188.721831,1499.834128,-877.378292,0
0.108333,54.067244,100.723798,-195.102226,-3.502634,0.655163,-6.081099,4.852262,-0.233471,6.043984,-4.918095,-0.017932,0.344176,-0.067423,5.016423,188.495754,1499.354641,-877.725250,0
0.109375,5.387166,162.138456,-150.031676,-2.658186,3.113710,-6.439121,2.778116,-2.536616,6.377956,-2.806068,-0.094502,0.319303,-0.086006,-7.930650,188.571093,1498.975902,-878.045864,0
0.110417,-46.920188,203.269481,-87.219685,-1.509738,5.223657,-5.658713,0.109735,-4.564109,5.764970,-0.099796,-0.156487,0.317029,-0.123173,-29.636700,188.495694,1498.067695,-877.981643,0
