1-Time,2-VGERA,3-VGERB,4-VGERC,5-VN,6-IGERAN,7-IGERBN,8-IGERCN,9-IGERAT,10-IGERBT,11-IGERCT,12-IN,13-IFD,14-IFAULT,15-VFAULT,16-Speed (rad/s),17-Active Power,18-Reactive Power,19-FAULT 
0.000000,85.944578,52.578986,-206.670834,-0.939972,1.460180,-5.525762,3.558057,-0.837942,5.620604,-3.562859,-0.011544,0.185153,-0.028224,18.211438,188.569373,997.599997,-1285.179476,0
0.001042,38.192651,135.031156,-179.341288,-0.487572,3.735908,-5.982150,1.770731,-3.164691,6.073847,-1.815956,-0.091910,0.198087,0.012853,-59.703150,188.495332,997.092628,-1284.811823,0
0.002083,-5.510003,187.703898,-125.814773,0.541638,5.124067,-4.724108,-0.691973,-4.550449,5.024674,0.528665,-0.099216,0.199328,-0.050629,-124.068359,188.570790,996.793633,-1285.241486,0
0.003125,-72.430756,199.229080,-70.183144,1.570848,6.352463,-3.200172,-3.266618,-5.734041,3.404750,3.040505,-0.154011,0.179273,-0.039427,-182.190448,188.646308,996.567560,-1285.437235,0
0.004167,-145.612570,159.543310,-23.045833,2.475648,6.210452,-1.140477,-4.908421,-5.708310,1.465878,4.748271,-0.219765,0.186002,-0.058098,-205.025337,188.570667,996.465974,-1285.873307,0
0.005208,-197.232289,95.550762,25.421023,3.391758,4.996257,1.248610,-5.934548,-4.502664,-0.968203,5.641291,-0.238030,0.199720,-0.002084,-205.387257,188.495445,996.139970,-1285.090149,0
0.006250,-183.485179,49.945349,99.604735,4.805508,3.324076,3.375771,-6.147236,-2.911065,-3.154680,5.972170,-0.245336,0.212263,-0.043161,-155.917318,188.648034,995.429956,-1285.134593,0
0.007292,-138.092492,4.315775,172.815910,6.196638,1.421127,4.852084,-5.542754,-0.929835,-4.661293,5.438493,-0.227071,0.216117,-0.039427,-87.898980,188.574308,994.547670,-1284.982652,0
0.008333,-86.291292,-52.210775,207.014773,6.829998,-1.287736,5.737078,-3.658412,1.713029,-5.559385,3.666686,-0.175929,0.218142,-0.020755,-14.406601,188.574663,994.905117,-1284.863512,0
0.009375,-38.312515,-134.530055,179.389773,6.343668,-3.567014,6.229183,-1.863623,4.091239,-6.012628,1.916225,-0.150358,0.186982,-0.020755,64.740777,188.499453,994.354011,-1285.136024,0
0.010417,5.197317,-187.625628,126.158713,5.359698,-4.887718,4.983048,0.584155,5.443915,-5.005422,-0.389260,-0.117481,0.197499,-0.046895,127.624376,188.645538,994.598426,-1285.151396,0
0.011458,72.344920,-199.090406,70.256250,4.273938,-6.101913,3.427363,3.155069,6.664265,-3.364515,-2.943794,-0.040768,0.182801,-0.035692,186.164934,188.499592,993.777540,-1285.141950,0
0.012500,145.129746,-159.597931,23.168182,3.414378,-6.009606,1.335919,4.808066,6.638534,-1.400463,-4.573287,-0.015197,0.185871,0.005384,211.193964,188.562011,994.285858,-1285.057288,0
0.013542,196.862890,-95.170470,-25.446402,2.464338,-4.848665,-0.985703,5.815536,5.410834,0.995849,-5.565927,0.010374,0.199981,-0.017021,211.092174,188.495475,993.980596,-1284.683214,0
0.014583,183.127122,-49.734190,-99.433144,1.095828,-3.183584,-3.172392,6.061807,3.841288,3.186522,-5.868344,-0.000585,0.207233,-0.039427,162.730615,188.722409,994.378260,-1284.836644,0
0.015625,137.405503,-4.092534,-172.435038,-0.306612,-1.241582,-4.644737,5.513295,1.797571,4.697332,-5.341782,-0.004238,0.220951,-0.069301,92.269316,188.495790,994.205429,-1284.938754,0
0.016667,86.035318,52.409854,-206.966289,-0.928662,1.467280,-5.513857,3.558057,-0.823239,5.612211,-3.555743,-0.037115,0.208670,-0.046895,20.009728,188.567548,994.183145,-1284.847802,0
0.017708,38.340103,134.801619,-179.415152,-0.476262,3.718157,-5.982150,1.808045,-3.168367,6.111617,-1.805283,-0.077298,0.189268,0.001650,-58.673940,188.492723,994.264354,-1285.266654,0
0.018750,-5.373893,187.740140,-125.950190,0.519018,5.138268,-4.759826,-0.643465,-4.576179,5.041461,0.485971,-0.135746,0.195605,-0.061832,-124.294559,188.644090,994.830121,-1285.394447,0
0.019792,-72.634921,199.229080,-70.293940,1.604778,6.363114,-3.227952,-3.277812,-5.756095,3.442521,3.083199,-0.205153,0.181495,0.001650,-181.364818,188.568185,995.199939,-1286.030420,0
0.020833,-145.329007,159.543310,-23.439773,2.475648,6.224653,-1.156352,-4.942003,-5.711986,1.474272,4.723366,-0.205153,0.186329,-0.024490,-207.411747,188.569809,995.130054,-1285.801876,0
0.021875,-197.459139,95.538681,25.150189,3.414378,5.102765,1.228767,-5.956936,-4.513692,-0.959810,5.744468,-0.216112,0.202203,-0.017021,-206.914107,188.495559,995.609278,-1286.973849,0
0.022917,-183.303699,50.247372,99.383144,4.805508,3.416383,3.403551,-6.128579,-2.969877,-3.150484,6.036212,-0.230724,0.206318,-0.031958,-159.140668,188.646502,996.541842,-1287.440580,0
0.023958,-137.797587,4.472827,172.902084,6.162708,1.449529,4.867959,-5.587530,-0.970269,-4.673883,5.548787,-0.278213,0.222192,-0.009553,-89.063910,188.570930,997.994595,-1287.908970,0
0.025000,-86.472772,-52.029561,207.002463,6.829998,-1.312588,5.725173,-3.695726,1.731408,-5.580369,3.709380,-0.143052,0.208539,-0.020755,-13.682761,188.568232,998.378630,-1288.424169,0
0.026042,-38.391912,-134.638783,179.599054,6.343668,-3.609618,6.201403,-1.893474,4.083888,-6.104955,1.923341,-0.168623,0.191685,-0.017021,64.752087,188.548557,999.295866,-1289.129662,0
0.027083,4.857042,-187.287363,125.826326,5.314458,-4.948072,5.010828,0.595350,5.473321,-4.980242,-0.375028,-0.066339,0.205730,-0.046895,129.433976,188.713581,998.997519,-1289.137497,0
0.028125,72.344920,-199.428671,70.440909,4.285248,-6.219072,3.455143,3.143875,6.715725,-3.377105,-2.936678,-0.044421,0.174047,-0.024490,186.538164,188.498429,999.510485,-1289.709601,0
0.029167,145.004978,-159.175099,23.709849,3.414378,-6.052209,1.327982,4.849111,6.712049,-1.383676,-4.587519,-0.018850,0.186329,-0.050629,213.229764,188.519850,999.728525,-1290.405714,0
0.030208,197.146453,-95.110065,-25.027841,2.486958,-4.884167,-1.017451,5.834193,5.425537,1.033619,-5.594389,0.003068,0.200700,-0.024490,212.483304,188.517185,999.632810,-1291.161737,0
0.031250,182.673422,-49.999970,-99.137690,1.084518,-3.158732,-3.176361,6.054344,3.789828,3.186522,-5.879017,0.039598,0.202986,-0.024490,161.429965,188.649800,998.887211,-1291.264899,0
0.032292,137.586983,-4.394557,-172.804357,-0.295302,-1.255783,-4.656643,5.494638,1.786544,4.676348,-5.334667,0.017680,0.214222,-0.050629,92.880056,188.575367,998.745253,-1291.250720,0
0.033333,86.228141,52.228640,-206.720076,-0.917352,1.495683,-5.490045,3.554326,-0.834266,5.649981,-3.541512,-0.022503,0.197956,-0.035692,18.460258,188.573337,998.553993,-1291.731927,0
0.034375,38.328761,134.511677,-179.476705,-0.442332,3.757210,-6.001992,1.793119,-3.245558,6.057060,-1.748357,-0.077298,0.214941,-0.046895,-59.081100,188.499837,997.162886,-1292.321895,0
0.035417,-4.886166,187.498522,-125.790152,0.519018,5.099215,-4.720140,-0.725555,-4.590882,5.028871,0.517991,-0.132093,0.196454,-0.050629,-123.401069,188.725462,996.534787,-1292.659399,0
0.036458,-72.022426,199.168676,-70.417046,1.582158,6.359564,-3.172392,-3.289007,-5.715662,3.387964,3.111662,-0.190541,0.178294,-0.009553,-181.885078,188.498678,995.263245,-1292.658612,0
0.037500,-145.294980,159.676200,-23.673674,2.475648,6.235304,-1.100791,-4.904690,-5.737716,1.428108,4.712693,-0.212459,0.186002,-0.031958,-204.810447,188.571601,994.964443,-1293.031070,0
0.038542,-197.039467,95.393710,24.928599,3.414378,5.017559,1.248610,-5.919622,-4.495313,-0.955613,5.683985,-0.241683,0.200243,-0.043161,-205.330707,188.493881,994.406048,-1292.158140,0
0.039583,-183.632631,50.440666,99.001515,4.805508,3.313425,3.399583,-6.098728,-2.933119,-3.100123,6.004191,-0.216112,0.205142,-0.002084,-156.347098,188.720728,993.859770,-1291.546117,0
0.040625,-138.081149,4.919820,172.385038,6.174018,1.410476,4.879864,-5.572605,-0.948214,-4.640310,5.456283,-0.248989,0.216901,-0.024490,-88.362690,188.498047,992.424320,-1290.886615,0
0.041667,-86.631567,-51.715458,207.027084,6.818688,-1.291286,5.733110,-3.639755,1.735084,-5.576172,3.663128,-0.172276,0.214876,-0.002084,-14.825071,188.568797,991.734375,-1290.907757,0
0.042708,-38.391912,-134.010576,179.537501,6.309738,-3.598967,6.193466,-1.882280,4.076536,-6.008432,1.873531,-0.135746,0.213112,-0.013287,64.220517,188.492408,990.163064,-1290.193060,0
0.043750,4.607507,-187.565223,126.047917,5.325768,-4.969374,4.998922,0.599081,5.499052,-4.967652,-0.375028,-0.066339,0.197564,-0.020755,127.047566,188.718278,990.067156,-1290.615510,0
0.044792,71.845850,-199.030001,70.613258,4.330488,-6.183569,3.423394,3.177458,6.730428,-3.364515,-2.961583,-0.077298,0.180776,-0.024490,185.780394,188.491994,989.560544,-1290.984751,0
0.045833,144.891553,-159.694578,23.894508,3.391758,-5.995405,1.367668,4.837917,6.653237,-1.354299,-4.612424,-0.018850,0.185414,-0.046895,211.058244,188.568502,988.655361,-1291.241375,0
0.046875,196.681410,-95.025499,-24.609280,2.532198,-4.852215,-1.005545,5.811805,5.421861,0.974865,-5.565927,0.014027,0.199786,-0.039427,211.103484,188.493190,988.678838,-1290.338701,0
0.047917,183.127122,-50.157021,-98.780682,1.095828,-3.162283,-3.188267,6.058075,3.830261,3.182326,-5.925269,0.024986,0.204358,-0.046895,163.024675,188.720177,989.396714,-1290.831213,0
0.048958,137.586983,-4.648256,-172.435038,-0.351852,-1.227381,-4.684423,5.427474,1.797571,4.718315,-5.334667,0.014027,0.210499,-0.031958,92.676476,188.495278,989.326890,-1291.231430,0
0.050000,86.364251,51.854132,-206.966289,-0.928662,1.509884,-5.537668,3.561789,-0.915132,5.616408,-3.559301,-0.044421,0.221996,-0.046895,20.496058,188.570778,988.745833,-1291.781852,0
0.051042,38.317418,134.378787,-179.304357,-0.453642,3.799813,-5.970244,1.752074,-3.186746,6.107421,-1.783935,-0.066339,0.217358,-0.043161,-58.244160,188.495428,989.655345,-1291.352708,0
0.052083,-4.818111,187.607250,-125.814773,0.530328,5.113416,-4.763794,-0.721824,-4.550449,5.054051,0.525107,-0.124787,0.192338,-0.009553,-123.774299,188.724014,989.806647,-1291.102293,0
0.053125,-72.011084,199.084109,-70.577084,1.582158,6.416368,-3.176361,-3.296469,-5.763447,3.471898,3.083199,-0.168623,0.178816,-0.031958,-180.855868,188.498984,991.129809,-1291.254432,0
0.054167,-145.090815,159.664119,-23.759849,2.464338,6.221103,-1.120634,-4.953198,-5.752419,1.449092,4.730482,-0.201500,0.183781,-0.043161,-207.208167,188.575150,991.345214,-1291.452831,0
0.055208,-197.220947,95.260820,24.780871,3.436998,5.028209,1.200987,-5.934548,-4.510016,-0.943023,5.712448,-0.252642,0.199198,-0.043161,-206.789697,188.497352,991.698475,-1291.709131,0
0.056250,-183.371754,50.537314,98.841478,4.771578,3.384431,3.407520,-6.147236,-2.929443,-3.158877,6.054001,-0.227071,0.206449,-0.028224,-159.479968,188.724478,991.652301,-1292.726964,0
0.057292,-138.126519,5.185600,172.360417,6.174018,1.399825,4.887802,-5.628575,-0.933511,-4.728440,5.488303,-0.248989,0.217097,-0.039427,-89.742510,188.499878,991.795739,-1294.053192,0
0.058333,-86.676937,-51.485921,206.940910,6.852618,-1.323238,5.784701,-3.658412,1.742435,-5.605549,3.645339,-0.197847,0.204554,-0.046895,-14.078611,188.574302,991.579624,-1294.405196,0
0.059375,-38.505337,-134.107223,179.611364,6.332358,-3.609618,6.268869,-1.844966,4.116970,-6.104955,1.891320,-0.150358,0.184565,-0.065566,64.197897,188.494051,992.489492,-1295.583095,0
0.060417,4.289917,-187.094068,126.010985,5.371008,-4.916120,4.998922,0.610275,5.513755,-5.001225,-0.371470,-0.106522,0.203836,-0.054364,128.868476,188.721989,992.649748,-1295.808976,0
0.061458,71.800480,-199.307862,70.699432,4.319178,-6.187120,3.471017,3.222234,6.708374,-3.402285,-2.929562,-0.059033,0.179600,-0.028224,186.085764,188.495531,993.159335,-1295.375211,0
0.062500,144.676046,-159.416717,24.177652,3.414378,-6.052209,1.343856,4.837917,6.715725,-1.375283,-4.630213,0.006721,0.185349,-0.054364,213.026184,188.568357,993.711179,-1295.839970,0
0.063542,196.953630,-94.977175,-24.461553,2.520888,-4.887718,-1.013483,5.871507,5.458618,1.025226,-5.594389,0.024986,0.200635,-0.017021,212.426754,188.493414,993.846836,-1296.733179,0
0.064583,183.013697,-50.350316,-98.756061,1.118448,-3.176484,-3.188267,6.106583,3.833937,3.157146,-5.886133,0.017680,0.209715,-0.002084,162.018085,188.717744,993.635597,-1296.130669,0
0.065625,138.063368,-4.950278,-172.348864,-0.272682,-1.234481,-4.692360,5.517027,1.793896,4.730905,-5.377361,-0.018850,0.218664,0.009119,93.581276,188.492877,993.948677,-1296.766570,0
0.066667,86.693183,51.781647,-206.880114,-0.906042,1.460180,-5.557511,3.584177,-0.848969,5.624801,-3.534396,-0.044421,0.203966,-0.013287,18.867418,188.565832,994.071475,-1296.341409,0
0.067708,38.351446,134.137169,-179.525948,-0.498882,3.774961,-6.017867,1.793119,-3.179394,6.103224,-1.794609,-0.073645,0.205273,-0.035692,-58.922760,188.493631,994.102395,-1296.274791,0
0.068750,-4.477836,187.498522,-125.864016,0.507708,5.141818,-4.795543,-0.677048,-4.583531,5.070837,0.489529,-0.117481,0.204750,-0.028224,-123.095699,188.718971,994.505189,-1296.519173,0
0.069792,-71.523356,199.168676,-70.626326,1.570848,6.387966,-3.180329,-3.281544,-5.767122,3.425734,3.118777,-0.186888,0.180123,-0.054364,-181.602328,188.493523,993.628266,-1297.011010,0
0.070833,-145.215582,160.026547,-23.944508,2.453028,6.235304,-1.156352,-4.912152,-5.781825,1.440698,4.726924,-0.201500,0.186721,-0.035692,-204.855687,188.570971,993.831967,-1297.390458,0
0.071875,-196.892014,95.321225,24.546970,3.425688,5.099215,1.240673,-5.934548,-4.506340,-0.943023,5.716006,-0.238030,0.198871,-0.046895,-205.240227,188.495562,993.609656,-1297.394929,0
0.072917,-183.814111,50.730608,98.693750,4.771578,3.373780,3.363865,-6.169624,-2.973552,-3.125304,6.043327,-0.263601,0.206187,-0.039427,-156.856048,188.723590,994.146403,-1297.074383,0
0.073958,-138.489479,5.366814,172.237311,6.162708,1.453079,4.844147,-5.636038,-0.948214,-4.661293,5.477630,-0.230724,0.213700,-0.091706,-88.894260,188.498883,994.075620,-1296.332374,0
0.075000,-87.005870,-51.401354,207.211743,6.829998,-1.269984,5.748984,-3.650949,1.709353,-5.571975,3.698706,-0.194194,0.198806,-0.035692,-15.322711,188.498371,994.748532,-1295.984104,0
0.076042,-38.664132,-133.575663,179.623675,6.366288,-3.584766,6.241089,-1.878549,4.069185,-6.054595,1.912667,-0.150358,0.214614,-0.043161,63.790737,188.498186,994.468107,-1295.050895,0
0.077083,4.176492,-187.504819,126.035606,5.348388,-4.965824,5.002890,0.587887,5.484349,-5.047389,-0.346565,-0.099216,0.212001,-0.031958,126.617786,188.724893,995.228914,-1294.843458,0
0.078125,71.392150,-199.126649,70.687121,4.285248,-6.165818,3.455143,3.181189,6.627507,-3.372908,-2.908215,-0.040768,0.181690,-0.050629,185.565504,188.499460,994.371571,-1293.849620,0
0.079167,144.868868,-160.057005,24.165341,3.403068,-6.034458,1.379573,4.845380,6.704698,-1.392069,-4.615981,0.006721,0.186459,-0.024490,211.216584,188.498774,994.598058,-1293.776567,0
0.080208,196.465903,-95.001337,-24.289205,2.498268,-4.909019,-1.001577,5.852850,5.469646,1.033619,-5.576600,0.021333,0.199981,-0.039427,210.933834,188.498273,994.376524,-1293.602135,0
0.081250,183.353972,-49.697947,-98.411364,1.095828,-3.158732,-3.172392,6.095389,3.863343,3.178129,-5.896806,0.024986,0.201941,-0.058098,163.024675,188.647239,994.763382,-1293.768244,0
0.082292,138.074710,-5.228139,-172.336554,-0.261372,-1.248683,-4.700297,5.517027,1.819626,4.726709,-5.384476,-0.004238,0.217358,-0.020755,93.287216,188.496780,994.990163,-1293.679572,0
0.083333,86.693183,51.552110,-207.187879,-0.917352,1.467280,-5.497982,3.572983,-0.841617,5.591227,-3.555743,-0.059033,0.218142,-0.061832,20.914528,188.493975,995.111339,-1293.410814,0
0.084387,37.829691,135.985548,-178.873485,-0.487572,3.831766,-6.013898,1.737149,-3.241882,6.111617,-1.769704,-0.091910,0.217358,-0.020755,-59.556120,188.492146,995.451772,-1293.921995,0
0.085428,-5.113016,187.752221,-124.940720,0.552948,5.159570,-4.743951,-0.766600,-4.601910,5.028871,0.567801,-0.128440,0.195605,-0.065566,-124.283249,188.644260,994.649424,-1294.081400,0
0.086459,-71.591411,199.192837,-70.860227,1.536918,6.409268,-3.231921,-3.262887,-5.763447,3.434127,3.136567,-0.194194,0.178490,-0.054364,-180.607048,188.488710,994.613316,-1294.298849,0
0.087500,-145.034102,160.002385,-24.042992,2.453028,6.242405,-1.144446,-4.964392,-5.767122,1.461682,4.719808,-0.212459,0.184761,-0.046895,-207.309957,188.491978,994.607780,-1294.020181,0
0.088542,-197.062152,95.381629,24.386932,3.425688,5.077913,1.252579,-5.923354,-4.521043,-0.930433,5.723121,-0.238030,0.196650,-0.069301,-206.699217,188.625102,994.876279,-1294.110528,0
0.089583,-183.541891,50.778932,98.496781,4.782888,3.380880,3.383708,-6.195744,-2.929443,-3.146287,6.021980,-0.230724,0.208016,-0.020755,-159.887128,188.645966,994.022329,-1294.128597,0
0.090625,-138.455452,5.427218,172.323485,6.196638,1.453079,4.939393,-5.594993,-0.959241,-4.661293,5.513208,-0.212459,0.216835,-0.050629,-90.093120,188.495170,994.489385,-1294.282349,0
0.091667,-87.073925,-51.135575,207.014773,6.796068,-1.305487,5.792639,-3.632293,1.720381,-5.571975,3.691591,-0.194194,0.206906,-0.046895,-14.519701,188.495387,994.187633,-1294.361386,0
0.092709,-38.698160,-133.648149,179.611364,6.354978,-3.634470,6.237120,-1.859892,4.098591,-6.071382,1.887762,-0.135746,0.198348,-0.005818,64.050867,188.495251,993.990153,-1294.890039,0
0.093751,4.131122,-187.130311,126.010985,5.359698,-4.955173,4.987016,0.610275,5.543161,-4.967652,-0.371470,-0.099216,0.201027,-0.024490,128.608346,188.498088,992.877530,-1295.331245,0
0.094792,71.437520,-199.223296,71.044129,4.285248,-6.197770,3.447206,3.222234,6.689995,-3.356122,-2.958025,-0.059033,0.180711,-0.028224,185.769084,188.500901,992.733071,-1296.573614,0
0.095833,144.607991,-159.682497,24.386932,3.403068,-6.059310,1.383542,4.882694,6.712049,-1.446626,-4.648002,-0.018850,0.186002,-0.039427,213.060114,188.497764,993.113781,-1296.621181,0
0.096875,196.704095,-95.085903,-24.178409,2.509578,-4.859316,-1.033326,5.826730,5.443915,1.016832,-5.590831,0.024986,0.200700,-0.017021,212.268414,188.497964,993.042364,-1296.662149,0
0.097917,183.172492,-50.507368,-98.399053,1.084518,-3.172933,-3.180329,6.046881,3.804531,3.199112,-5.900364,-0.018850,0.199002,-0.028224,162.493105,188.573919,992.145108,-1297.203061,0
0.098958,138.380958,-5.252301,-172.090341,-0.317922,-1.301937,-4.652674,5.531952,1.786544,4.726709,-5.366687,-0.033462,0.220885,-0.058098,94.090226,188.496458,991.587348,-1297.367222,0
0.100000,87.010773,51.431301,-206.941667,-0.985212,1.463730,-5.557511,3.599102,-0.815887,5.616408,-3.545070,-0.033462,0.208082,-0.020755,19.308508,188.493309,991.630666,-1297.443039,0
0.101042,38.635008,133.508962,-179.575190,-0.487572,3.743009,-6.013898,1.767000,-3.194097,6.111617,-1.801725,-0.084604,0.219710,-0.050629,-58.572150,188.496938,991.110431,-1297.204382,0
0.102083,-4.148903,187.450199,-126.221023,0.507708,5.138268,-4.779669,-0.665853,-4.601910,5.075034,0.500202,-0.110175,0.215855,-0.039427,-122.654609,188.646507,991.751807,-1297.533151,0
0.103125,-71.058314,199.096190,-70.971023,1.582158,6.402167,-3.251764,-3.289007,-5.745068,3.421537,3.093872,-0.190541,0.179731,-0.069301,-181.308268,188.494402,991.503106,-1296.986525,0
0.104167,-145.056787,160.437297,-24.289205,2.475648,6.253055,-1.140477,-4.945735,-5.781825,1.449092,4.755387,-0.208806,0.184891,-0.028224,-204.946167,188.494077,991.428658,-1297.765736,0
0.105208,-196.517712,95.587005,24.189962,3.380448,5.053061,1.276390,-5.945742,-4.502664,-0.951417,5.683985,-0.252642,0.197956,-0.035692,-205.036647,188.492700,990.694818,-1297.434712,0
0.106250,-183.995591,50.851417,98.546023,4.771578,3.391531,3.395614,-6.121116,-2.988255,-3.100123,6.018422,-0.238030,0.207559,-0.024490,-157.342378,188.642099,991.591216,-1296.996319,0
0.107292,-138.920494,5.680917,171.892614,6.162708,1.463730,4.915582,-5.606187,-0.970269,-4.673883,5.509650,-0.227071,0.220167,-0.031958,-89.550240,188.491889,991.482765,-1297.213618,0
0.108333,-87.402857,-50.918118,207.236364,6.852618,-1.269984,5.756921,-3.650949,1.683623,-5.550992,3.691591,-0.186888,0.212132,-0.035692,-15.854281,188.494104,991.575865,-1296.884881,0
0.109375,-38.800242,-132.947456,179.845266,6.388908,-3.577665,6.205371,-1.904668,4.072861,-6.058792,1.919783,-0.143052,0.189334,-0.043161,63.700257,188.495414,991.643401,-1296.493455,0
0.110417,4.029039,-187.504819,126.367993,5.371008,-4.919670,5.002890,0.535648,5.425537,-5.038995,-0.357239,-0.113828,0.200700,-0.017021,126.436826,188.571344,992.421337,-1295.609848,0
