1-Time,2-VGERA,3-VGERB,4-VGERC,5-VN,6-IGERAN,7-IGERBN,8-IGERCN,9-IGERAT,10-IGERBT,11-IGERCT,12-IN,13-IFD,14-IFAULT,15-VFAULT,16-Speed (rad/s),17-Active Power,18-Reactive Power,19-FAULT 
0.000000,-146.871587,184.067546,-5.577083,2.792328,2.724079,-6.466317,3.181189,-2.668465,6.585844,-3.185727,-0.055380,0.601273,-0.058098,7.930648,188.646333,1603.899331,889.252875,0
0.001039,-176.135238,136.094276,64.334849,4.070358,4.790341,-5.966275,0.655051,-4.649694,6.048667,-0.805528,-0.099216,0.596308,-0.002084,5.623408,188.570884,1603.536056,889.320082,0
0.002080,-195.837162,53.654187,119.215531,5.144808,6.150097,-4.763794,-1.729294,-6.145725,4.932347,1.588903,-0.172276,0.586705,-0.013287,-0.416132,188.570734,1603.747006,888.831761,0
0.003122,-162.841828,-16.451299,168.371781,6.083538,6.533527,-2.823157,-3.893488,-6.465515,3.031245,3.606202,-0.248989,0.588992,-0.039427,-14.395291,188.495423,1602.659454,887.924122,0
0.004164,-115.067216,-85.324533,185.766667,6.400218,5.937081,-0.164206,-5.628575,-5.954586,0.353755,5.431378,-0.296478,0.572791,0.001650,-23.296261,188.721666,1602.081004,886.955366,0
0.005205,-33.854912,-136.402595,190.173864,6.547248,4.463715,2.308222,-6.386044,-4.495313,-2.034163,6.114484,-0.245336,0.608263,-0.031958,-18.885361,188.570832,1601.143179,887.478078,0
0.006247,41.890306,-170.639877,161.477841,5.981748,2.379702,4.451257,-6.229326,-2.455272,-4.287787,6.086022,-0.292825,0.602514,-0.028224,-15.435811,188.570893,1600.687118,888.245837,0
0.007289,100.519691,-188.761233,85.632197,4.545378,-0.314959,6.122031,-5.087527,0.213323,-5.945481,4.972416,-0.223418,0.599444,-0.009553,-9.859981,188.495528,1600.826276,888.511674,0
0.008330,146.298023,-184.351703,6.044129,3.063768,-2.558735,6.622073,-3.330052,2.573155,-6.616952,3.350037,-0.190541,0.597353,-0.043161,-2.610271,188.721748,1602.093314,888.835093,0
0.009372,175.516304,-135.266990,-64.901894,1.672638,-4.699553,6.114094,-0.721824,4.550708,-6.088169,0.895123,-0.186888,0.589710,-0.054364,-0.664952,188.570970,1601.758147,888.756153,0
0.010414,195.513133,-51.884591,-119.240909,0.688668,-6.066410,4.951299,1.535655,6.157011,-4.950865,-1.424593,-0.117481,0.555807,-0.043161,4.266208,188.570926,1602.432375,888.990316,0
0.011455,162.472429,16.638297,-168.741857,-0.295302,-6.400136,2.951133,3.774477,6.436368,-3.028780,-3.491702,-0.069992,0.591278,-0.031958,19.568638,188.495504,1603.187595,889.301793,0
0.012497,115.832067,85.100780,-185.619698,-0.566742,-5.835642,0.288213,5.531952,5.896033,-0.376470,-5.320435,-0.037115,0.605584,-0.035692,25.924858,188.721655,1603.869272,889.177710,0
0.013539,35.039436,136.770806,-190.223864,-0.759012,-4.326774,-2.215963,6.274495,4.400002,2.095382,-6.028447,-0.004238,0.606172,-0.058098,24.115258,188.570879,1605.639173,888.732410,0
0.014580,-41.737950,170.693985,-161.564773,-0.193512,-2.193057,-4.374873,6.043150,2.323204,4.353203,-5.935943,-0.022503,0.604866,-0.061832,20.145448,188.570941,1607.321713,888.348555,0
0.015622,-100.673583,189.793894,-83.946402,1.276788,0.487404,-6.017867,4.908813,-0.367446,5.994110,-4.786758,-0.011544,0.597027,-0.039427,13.766608,188.495550,1607.570740,888.248559,0
0.016664,-146.236407,184.562863,-4.764583,2.781018,2.727629,-6.490128,3.184920,-2.672141,6.590040,-3.182169,-0.106522,0.590560,-0.043161,8.009818,188.721795,1607.584663,888.248803,0
0.017705,-176.418801,135.139884,64.839584,4.115598,4.822293,-5.982150,0.602812,-4.690128,6.031880,-0.695234,-0.099216,0.590364,-0.031958,5.419828,188.570718,1608.011874,887.120705,0
0.018747,-195.735079,53.364245,119.326326,5.144808,6.206902,-4.736014,-1.762876,-6.182482,4.936543,1.628040,-0.150358,0.596570,-0.084238,0.160678,188.570922,1608.646082,886.986522,0
0.019789,-163.023308,-15.206966,169.147349,6.072228,6.554829,-2.771565,-3.964384,-6.502272,3.010261,3.666686,-0.208806,0.609112,-0.028224,-13.976821,188.495401,1610.157571,886.415197,0
0.020831,-116.564426,-84.780892,185.446591,6.411528,5.954832,-0.132457,-5.680815,-6.020749,0.341165,5.420704,-0.252642,0.608067,-0.031958,-23.567701,188.721610,1611.007865,886.395807,0
0.021872,-33.956995,-136.668375,190.592425,6.490698,4.428212,2.395531,-6.393506,-4.443852,-2.084524,6.150063,-0.245336,0.599313,-0.069301,-17.957941,188.570908,1611.955178,885.630217,0
0.022914,42.911131,-170.120398,161.391667,5.981748,2.351300,4.483006,-6.180818,-2.363378,-4.321361,6.071790,-0.270907,0.571289,-0.054364,-14.711971,188.570888,1612.066850,884.549846,0
0.023955,100.553719,-189.836433,84.216478,4.545378,-0.350462,6.185528,-5.057676,0.268459,-5.979055,4.922606,-0.223418,0.603233,-0.043161,-8.932561,188.495484,1612.500987,884.017774,0
0.024997,146.014461,-184.110085,6.204167,3.097698,-2.587137,6.657790,-3.318857,2.562127,-6.604362,3.342922,-0.197847,0.600489,-0.043161,-2.259662,188.721536,1612.137210,883.777706,0
0.026039,176.185512,-135.713983,-63.843182,1.706568,-4.713754,6.122031,-0.718093,4.624223,-6.029415,0.902239,-0.164970,0.595851,-0.046895,-1.253072,188.646252,1612.921534,882.870816,0
0.027080,195.377023,-53.551755,-119.117803,0.643428,-6.041558,4.887802,1.617745,6.116578,-4.917291,-1.492192,-0.106522,0.596243,-0.046895,4.763848,188.570899,1613.297944,881.269766,0
0.028122,162.835389,16.336274,-168.581819,-0.283992,-6.378835,2.879698,3.796865,6.399610,-3.024583,-3.523723,-0.018850,0.594349,-0.039427,19.500778,188.495497,1613.443412,880.645144,0
0.029164,114.958694,85.547773,-185.545834,-0.578052,-5.814340,0.312024,5.479713,5.899708,-0.342896,-5.306204,-0.026156,0.588796,-0.069301,27.361228,188.721534,1613.110467,880.647079,0
0.030205,33.213293,136.649997,-190.593182,-0.702462,-4.326774,-2.184215,6.263300,4.396327,2.107972,-6.014215,-0.007891,0.584680,-0.050629,23.402728,188.721780,1612.666171,880.964523,0
0.031247,-42.123595,170.597338,-161.540152,-0.182202,-2.221459,-4.351062,6.065538,2.282770,4.340613,-5.932385,0.006721,0.608393,-0.065566,20.224618,188.570785,1612.483644,880.634641,0
0.032289,-100.424048,189.322739,-85.214394,1.276788,0.487404,-5.998024,4.905082,-0.374797,5.943750,-4.811663,-0.018850,0.602775,-0.039427,14.999398,188.570884,1612.281879,880.319154,0
0.033330,-146.667422,184.562863,-6.057197,2.735778,2.724079,-6.494097,3.173726,-2.639059,6.594237,-3.132359,-0.073645,0.596700,-0.054364,8.100298,188.721764,1612.283833,879.694628,0
0.034372,-176.203293,135.707687,64.778030,4.047738,4.783240,-5.954369,0.614006,-4.660722,6.052864,-0.705908,-0.128440,0.587424,-0.076769,5.702578,188.721773,1612.232048,879.920746,0
0.035414,-195.803134,52.301126,119.080114,5.190048,6.157198,-4.783637,-1.714368,-6.182482,4.932347,1.635155,-0.168623,0.592977,-0.054364,-0.438752,188.570883,1611.946530,880.013967,0
0.036455,-162.841828,-16.608351,168.482576,6.151398,6.569030,-2.751722,-3.938265,-6.498597,2.972491,3.613318,-0.234377,0.579389,-0.050629,-14.383981,188.570930,1610.879520,880.149343,0
0.037497,-115.702396,-84.865459,185.717425,6.434148,6.025838,-0.128488,-5.628575,-6.042804,0.349558,5.463398,-0.238030,0.605323,-0.073035,-23.115301,188.721648,1611.270314,880.642494,0
0.038539,-34.932450,-136.511323,190.198485,6.490698,4.442413,2.339971,-6.423357,-4.521043,-2.101311,6.150063,-0.267254,0.611594,-0.031958,-18.851431,188.719320,1611.717404,881.029018,0
0.039580,41.243784,-170.579472,161.600947,5.981748,2.376152,4.486975,-6.184550,-2.481002,-4.346541,6.128716,-0.274560,0.609373,-0.073035,-15.311401,188.566896,1612.730675,882.233633,0
0.040622,100.372239,-189.208226,84.893561,4.466208,-0.371764,6.201403,-5.042750,0.242729,-5.949678,4.961742,-0.241683,0.599313,-0.020755,-9.701641,188.646388,1612.410064,882.549888,0
0.041664,145.832981,-184.387946,5.243939,3.007218,-2.611989,6.669696,-3.326320,2.584182,-6.583378,3.314459,-0.212459,0.591213,-0.058098,-2.553721,188.721905,1612.263722,882.206231,0
0.042705,175.561674,-135.073696,-64.692614,1.763118,-4.656950,6.122031,-0.714361,4.591141,-6.079775,0.888007,-0.161317,0.590102,-0.035692,-0.676262,188.646504,1611.857251,882.810352,0
0.043747,195.445078,-52.996034,-119.105493,0.722598,-6.105463,4.860021,1.632670,6.123929,-4.955062,-1.495750,-0.084604,0.598987,-0.061832,4.232278,188.571160,1611.973784,883.373687,0
0.044789,162.812704,15.442287,-169.012690,-0.283992,-6.453390,2.891604,3.845373,6.406962,-2.982616,-3.541512,-0.059033,0.592519,-0.046895,19.546018,188.646446,1612.518046,882.625803,0
0.045830,116.376507,84.822919,-185.730493,-0.600672,-5.832092,0.228684,5.550609,5.965872,-0.347093,-5.323993,-0.015197,0.591474,-0.035692,26.004028,188.721788,1613.767369,882.797749,0
0.046872,34.302173,136.855373,-190.543940,-0.713772,-4.298372,-2.263587,6.315540,4.377948,2.162529,-6.021331,0.014027,0.584615,-0.050629,24.036088,188.646538,1614.599328,881.933224,0
0.047914,-42.611323,170.549014,-161.490910,-0.193512,-2.161104,-4.418528,6.069269,2.286446,4.411957,-5.932385,-0.007891,0.600032,-0.050629,19.975798,188.571132,1615.292156,881.868529,0
0.048955,-100.582843,190.252968,-83.724811,1.355958,0.526457,-6.073427,4.942396,-0.451988,6.019290,-4.804547,-0.018850,0.596766,-0.043161,13.868398,188.709715,1616.526444,881.645803,0
0.049997,-146.395202,184.514539,-5.737121,2.826258,2.748931,-6.561563,3.196114,-2.734629,6.623614,-3.128802,-0.033462,0.596112,-0.031958,8.032438,188.721672,1617.634700,881.107406,0
0.051039,-177.076666,135.611040,64.014773,4.115598,4.868447,-6.009930,0.576693,-4.752615,6.107421,-0.688119,-0.110175,0.594087,-0.050629,5.397208,188.646346,1619.459185,881.113488,0
0.052080,-195.803134,53.859562,119.338637,5.167428,6.224653,-4.736014,-1.781533,-6.230267,4.923953,1.670734,-0.172276,0.599117,-0.020755,0.205918,188.570671,1620.767091,880.457892,0
0.053122,-163.148075,-15.702283,168.999622,6.083538,6.579681,-2.712036,-3.983041,-6.483894,2.947311,3.752074,-0.197847,0.587947,-0.050629,-14.169091,188.570850,1622.540895,879.118972,0
0.054164,-115.498231,-85.421180,185.545076,6.411528,5.929980,-0.068960,-5.714397,-6.006046,0.303394,5.520324,-0.212459,0.600489,-0.050629,-23.748661,188.721362,1623.068797,878.439857,0
0.055205,-33.128992,-136.789184,190.764773,6.547248,4.442413,2.459028,-6.453208,-4.436501,-2.155868,6.203431,-0.263601,0.582263,-0.069301,-17.844841,188.646092,1623.702575,877.901431,0
0.056247,42.502801,-170.156641,161.502463,5.993058,2.322897,4.550472,-6.199475,-2.389108,-4.375918,6.086022,-0.241683,0.611268,-0.046895,-14.892931,188.570830,1623.493706,876.737603,0
0.057289,100.065991,-190.041809,84.819697,4.511448,-0.368214,6.221246,-5.046482,0.290514,-6.025218,4.983089,-0.241683,0.604213,-0.043161,-9.158761,188.495320,1625.097873,876.580696,0
0.058330,146.354736,-183.989276,6.524242,3.007218,-2.604889,6.669696,-3.307663,2.628291,-6.646329,3.318017,-0.190541,0.602253,-0.035692,-2.248352,188.721434,1626.381763,876.404198,0
0.059372,176.616527,-135.460284,-63.966288,1.683948,-4.738606,6.102188,-0.714361,4.697738,-6.071382,0.859545,-0.157664,0.592258,-0.054364,-1.400102,188.646134,1628.156091,875.687864,0
0.060414,195.342995,-52.259099,-118.883902,0.666048,-6.059310,4.871927,1.677447,6.094523,-4.904701,-1.545560,-0.084604,0.600358,-0.020755,4.775158,188.570662,1627.716148,874.705673,0
0.061455,162.778676,17.085290,-168.667993,-0.283992,-6.478242,2.915415,3.875224,6.432692,-2.970026,-3.545070,-0.055380,0.576058,-0.061832,19.534708,188.707540,1627.631446,875.204434,0
0.062497,115.253599,85.269913,-185.484281,-0.623292,-5.878245,0.236621,5.580460,5.899708,-0.292536,-5.331109,-0.029809,0.599248,-0.035692,27.214198,188.773393,1627.041685,874.295510,0
0.063539,34.597078,136.649997,-190.765531,-0.747702,-4.316123,-2.259618,6.330465,4.344866,2.166726,-6.039120,-0.037115,0.606695,-0.028224,23.300938,188.626021,1627.337803,873.789542,0
0.064581,-41.374990,170.645661,-161.700190,-0.216132,-2.175305,-4.390747,6.043150,2.271743,4.386777,-5.960848,-0.011544,0.600489,-0.050629,20.145448,188.507953,1627.626537,873.478409,0
0.065622,-100.219883,190.011350,-84.315720,1.288098,0.561959,-6.053584,4.867768,-0.404203,6.010897,-4.800990,-0.011544,0.598464,-0.065566,14.908918,188.716219,1627.290637,873.582710,0
0.066664,-146.349832,184.659510,-5.023106,2.792328,2.784434,-6.521877,3.140144,-2.701547,6.648794,-3.093223,-0.059033,0.590298,-0.039427,8.088988,188.714014,1627.118597,873.733492,0
0.067705,-176.282691,135.248613,64.728788,4.126908,4.879098,-5.974212,0.576693,-4.715858,6.057060,-0.688119,-0.113828,0.585791,-0.046895,5.747818,188.561484,1625.877878,873.484569,0
0.068747,-195.927902,52.832685,119.067803,5.167428,6.174949,-4.716171,-1.788996,-6.182482,4.940740,1.684965,-0.168623,0.583831,-0.061832,-0.461372,188.562775,1625.204966,873.643765,0
0.069789,-163.182103,-15.400260,168.839584,6.083538,6.600983,-2.743785,-4.001698,-6.557409,3.018655,3.691591,-0.208806,0.604017,-0.039427,-14.316121,188.635883,1625.269866,875.132575,0
0.070830,-116.530398,-84.213090,185.815910,6.388908,5.990335,-0.104677,-5.710666,-6.028101,0.315985,5.491861,-0.223418,0.597484,-0.005818,-23.149231,188.705340,1625.511110,874.890129,0
0.071872,-34.807682,-136.342190,190.580114,6.558558,4.435313,2.375688,-6.434551,-4.480610,-2.130687,6.139389,-0.270907,0.606368,-0.024490,-18.738331,188.572086,1624.996509,874.678175,0
0.072914,42.162526,-170.531149,161.588637,5.993058,2.298045,4.538566,-6.195744,-2.348675,-4.384311,6.075348,-0.270907,0.582982,-0.043161,-15.119131,188.552698,1625.257399,874.066712,0
0.073955,100.292841,-189.812272,84.191856,4.545378,-0.403716,6.169654,-5.024094,0.327271,-5.995841,4.936837,-0.216112,0.595132,-0.039427,-9.735571,188.699086,1624.608807,873.379001,0
0.074997,146.014461,-184.496674,5.884091,3.109008,-2.636841,6.701444,-3.300201,2.620939,-6.608559,3.325132,-0.175929,0.596047,-0.061832,-2.587651,188.713010,1624.164473,873.419630,0
0.076039,176.049402,-135.581094,-63.855493,1.717878,-4.720855,6.137905,-0.725555,4.631575,-6.075579,0.902239,-0.132093,0.596766,-0.069301,-0.642332,188.568998,1623.159367,873.905491,0
0.077080,195.581188,-53.781292,-119.130114,0.699978,-6.098363,4.911613,1.666253,6.138632,-4.929881,-1.474403,-0.124787,0.594414,-0.043161,4.266208,188.562603,1623.797559,874.642676,0
0.078122,162.914786,15.563097,-168.889584,-0.250062,-6.446290,2.871761,3.882686,6.417989,-3.016190,-3.569975,-0.073645,0.602841,-0.061832,19.693048,188.570399,1624.269982,874.463827,0
0.079164,115.627902,85.088699,-185.681251,-0.589362,-5.832092,0.228684,5.576728,5.921763,-0.271552,-5.348898,-0.029809,0.588077,-0.035692,26.173678,188.722186,1624.951607,874.334106,0
0.080205,33.224636,136.637916,-190.876326,-0.691152,-4.301922,-2.303272,6.315540,4.396327,2.183513,-6.039120,-0.007891,0.569590,-0.028224,23.968228,188.571330,1624.894491,875.204093,0
0.081247,-42.634008,170.561095,-161.663258,-0.136962,-2.154004,-4.398685,6.121508,2.249689,4.428743,-5.935943,-0.015197,0.600162,-0.039427,20.179378,188.495922,1624.965339,875.041956,0
0.082289,-100.185855,190.325454,-84.537311,1.322028,0.579711,-6.089301,4.849111,-0.426258,6.040274,-4.797432,-0.022503,0.601077,-0.054364,14.083288,188.495969,1625.620270,874.792265,0
0.083330,-146.553997,184.574944,-6.697349,2.735778,2.816386,-6.565531,3.147607,-2.753007,6.669777,-3.107454,-0.077298,0.598725,-0.039427,8.077678,188.646820,1626.685595,874.237614,0
0.084372,-177.348886,135.731849,63.768561,4.059048,4.914600,-5.934527,0.520722,-4.770994,6.065454,-0.627635,-0.135746,0.591605,-0.046895,5.498998,188.495928,1628.171590,873.333513,0
0.085414,-195.984614,52.772281,119.055493,5.122188,6.224653,-4.712203,-1.867355,-6.237618,4.919757,1.752564,-0.135746,0.586575,-0.065566,0.171988,188.495987,1629.262750,872.604445,0
0.086455,-163.034650,-16.632513,168.790341,6.094848,6.586782,-2.716005,-4.053937,-6.502272,2.917934,3.737843,-0.194194,0.592715,-0.024490,-14.169091,188.495895,1628.981265,871.242679,0
0.087497,-115.566286,-85.107077,185.446591,6.434148,5.990335,-0.061022,-5.710666,-6.020749,0.299198,5.545229,-0.227071,0.594087,-0.028224,-23.612941,188.722047,1629.161968,871.398047,0
0.088539,-34.285927,-136.692537,190.887879,6.535938,4.456615,2.451091,-6.483059,-4.510016,-2.168458,6.228335,-0.270907,0.615710,0.001650,-17.833531,188.495957,1630.621557,872.073704,0
0.089580,41.357209,-170.265369,161.822538,5.981748,2.305146,4.570315,-6.225595,-2.392784,-4.388508,6.132274,-0.230724,0.608524,-0.073035,-14.983411,188.495957,1631.233796,872.604653,0
0.090622,99.725716,-190.392155,84.770455,4.488828,-0.428568,6.241089,-5.020362,0.323596,-6.037808,4.943953,-0.248989,0.600228,-0.073035,-9.079591,188.495933,1632.136774,872.480808,0
0.091664,146.025803,-184.242975,5.760985,2.995908,-2.629741,6.693507,-3.266618,2.617264,-6.637935,3.321575,-0.201500,0.598529,-0.054364,-2.259662,188.571467,1632.287574,872.654279,0
0.092705,176.469075,-135.085776,-64.187879,1.729188,-4.749257,6.126000,-0.691973,4.679359,-6.117546,0.834640,-0.150358,0.589384,-0.054364,-1.422722,188.495895,1633.339865,872.435970,0
0.093747,195.399708,-52.319503,-118.785417,0.688668,-6.059310,4.899707,1.658790,6.182741,-4.917291,-1.506423,-0.095563,0.573510,-0.043161,4.763848,188.495966,1633.501809,872.336822,0
0.094789,163.039554,15.780553,-168.889584,-0.306612,-6.471142,2.895572,3.834179,6.443720,-2.991009,-3.559301,-0.051727,0.599248,-0.035692,19.376368,188.493141,1633.672488,872.338087,0
0.095831,116.183684,84.581301,-185.484281,-0.578052,-5.881796,0.212810,5.576728,5.907060,-0.292536,-5.331109,-0.018850,0.604735,-0.061832,27.112408,188.721703,1633.400333,872.096863,0
0.096878,34.075323,137.459418,-190.900948,-0.736392,-4.284170,-2.319147,6.315540,4.330163,2.175119,-6.092488,-0.007891,0.608655,-0.039427,23.165218,188.495607,1634.129044,871.663418,0
0.097914,-41.885403,170.645661,-161.724811,-0.148272,-2.203707,-4.402653,6.084195,2.312176,4.399367,-5.935943,-0.000585,0.584223,-0.039427,19.975798,188.495468,1633.824056,872.241787,0
0.098956,-100.208540,190.132159,-83.860228,1.310718,0.572610,-6.081364,4.953590,-0.444636,6.002503,-4.776085,-0.029809,0.600032,-0.050629,14.818438,188.495475,1633.090935,871.937650,0
0.100001,-146.281777,184.429973,-4.998485,2.781018,2.805735,-6.553626,3.166263,-2.723601,6.585844,-3.164380,-0.059033,0.594936,-0.024490,7.964578,188.570888,1631.521782,872.858421,0
0.101050,-177.632448,134.185493,64.814962,4.115598,4.953654,-5.998024,0.516991,-4.822455,6.073847,-0.613404,-0.106522,0.593238,-0.069301,5.781748,188.495633,1631.665424,873.328744,0
0.102083,-195.939244,53.678349,119.424811,5.144808,6.217553,-4.724108,-1.785264,-6.248646,4.949133,1.645829,-0.161317,0.598856,-0.046895,-0.540542,188.495450,1631.369119,874.550031,0
0.103122,-163.533720,-14.808296,168.839584,6.094848,6.569030,-2.743785,-3.986773,-6.550057,3.010261,3.695149,-0.219765,0.611529,-0.054364,-14.372671,188.495439,1631.867780,875.517584,0
0.104164,-116.224151,-84.406384,185.975948,6.411528,5.986784,-0.108645,-5.677083,-6.035452,0.332771,5.484745,-0.248989,0.608720,-0.043161,-23.364121,188.495656,1631.502049,875.782520,0
0.105205,-33.866255,-136.197220,190.801705,6.569868,4.392710,2.367751,-6.434551,-4.465907,-2.118097,6.189199,-0.307437,0.588143,-0.043161,-18.760951,188.495504,1630.271428,875.457182,0
0.106247,42.457431,-170.567392,161.760985,5.981748,2.347749,4.606032,-6.244251,-2.389108,-4.388508,6.128716,-0.256295,0.599248,-0.031958,-15.209611,188.495591,1630.150100,875.907408,0
0.107289,100.168074,-189.522330,85.299811,4.522758,-0.375314,6.193466,-5.061407,0.268459,-6.046202,5.022225,-0.259948,0.602318,-0.069301,-9.916531,188.495445,1630.180403,877.210149,0
0.108330,146.502188,-184.714130,6.770455,3.075078,-2.604889,6.689539,-3.344977,2.609912,-6.679902,3.360711,-0.205153,0.598333,-0.058098,-2.689441,188.420066,1631.072913,877.799739,0
0.109372,176.038059,-136.160977,-63.683144,1.729188,-4.727955,6.133937,-0.729287,4.657305,-6.121742,0.884450,-0.135746,0.592781,-0.095440,-0.721502,188.495622,1630.983697,878.009235,0
0.110414,195.739983,-53.358461,-118.760796,0.733908,-6.116114,4.911613,1.658790,6.127605,-4.921488,-1.513539,-0.113828,0.604801,-0.039427,4.220968,188.495512,1630.861018,877.632213,0
