1-Time,2-VGERA,3-VGERB,4-VGERC,5-VN,6-IGERAN,7-IGERBN,8-IGERCN,9-IGERAT,10-IGERBT,11-IGERCT,12-IN,13-IFD,14-IFAULT,15-VFAULT,16-Speed (rad/s),17-Active Power,18-Reactive Power,19-FAULT 
0.000000,-142.300559,175.973340,-12.126326,2.713158,4.616377,-4.791574,-0.139730,-4.326228,4.961723,-0.044148,-0.117481,0.442076,-0.031958,-53.573130,188.571060,1611.516369,-21.511519,0
0.001042,-189.939062,127.843018,51.125568,3.900708,5.674360,-3.577188,-2.218103,-5.465711,3.857993,2.065655,-0.164970,0.443317,-0.043161,-71.838780,188.570966,1611.083755,-20.717900,0
0.002083,-191.470299,52.687715,108.689962,4.952538,5.677910,-1.537336,-4.113639,-5.469387,1.801614,3.944198,-0.216112,0.446845,-0.073035,-76.193130,188.495725,1610.593281,-20.726581,0
0.003125,-165.995043,-13.757258,167.313069,6.038298,5.308681,0.387427,-5.412156,-5.120190,-0.221192,5.257043,-0.223418,0.454357,-0.054364,-68.966040,188.721757,1609.672826,-20.357117,0
0.004167,-110.042488,-73.654380,192.500569,6.547248,3.583246,2.562211,-5.662158,-3.506536,-2.235605,5.442051,-0.252642,0.470035,-0.054364,-45.373381,188.495665,1608.740815,-19.457771,0
0.005208,-33.083622,-131.280292,195.910607,6.615108,1.701599,4.439352,-5.475589,-1.495901,-4.237427,5.353105,-0.245336,0.434041,-0.017021,-13.377391,188.571027,1608.182836,-18.781915,0
0.006250,32.169783,-172.512417,151.100000,5.823408,-0.481822,5.427529,-4.199461,0.658089,-5.265617,4.132764,-0.201500,0.403926,-0.031958,11.323648,188.495703,1607.265781,-19.064716,0
0.007292,82.938815,-207.438311,75.956061,4.443588,-2.846308,5.748984,-2.158401,2.988514,-5.647516,2.211526,-0.179582,0.447041,-0.043161,32.778718,188.719726,1606.640477,-18.670075,0
0.008333,142.078613,-175.786342,12.507197,3.222108,-4.422631,5.046545,0.031913,4.616872,-4.997029,0.155091,-0.150358,0.441684,-0.076769,58.859577,188.495855,1606.688105,-18.738210,0
0.009375,189.694430,-127.740587,-51.052462,1.966698,-5.459313,3.867876,2.125211,5.723272,-3.834545,-1.901344,-0.059033,0.441880,-0.013287,77.622867,188.571136,1605.797320,-17.931260,0
0.010417,191.078215,-52.416150,-108.456819,0.858318,-5.537419,1.716903,4.039404,5.763706,-1.744592,-3.751425,-0.029809,0.445146,-0.002084,80.529537,188.495794,1605.522184,-17.991541,0
0.011458,165.478192,14.318763,-166.956819,-0.216132,-5.139787,-0.243577,5.326727,5.377752,0.185887,-5.153216,0.003068,0.456186,-0.031958,73.019697,188.723980,1605.861282,-17.516668,0
0.012500,109.366842,74.034672,-192.698296,-0.691152,-3.446305,-2.378675,5.587923,3.804531,2.254857,-5.384476,-0.029809,0.445930,-0.050629,50.874717,188.573191,1606.588320,-17.183519,0
0.013542,32.816306,131.298157,-195.862122,-0.770322,-1.522054,-4.251847,5.367772,1.742435,4.311236,-5.220815,-0.018850,0.461739,-0.028224,18.211438,188.571216,1607.499378,-18.047107,0
0.014583,-32.062797,173.291379,-150.817614,0.066618,0.643616,-5.263836,4.162539,-0.363770,5.322639,-4.075189,-0.033462,0.454030,-0.031958,-6.546151,188.495868,1609.338190,-18.357189,0
0.015625,-82.922569,207.480338,-76.079924,1.502988,3.047154,-5.597197,2.095360,-2.778738,5.679358,-2.100584,-0.088257,0.448021,-0.028224,-28.611961,188.721976,1610.190053,-18.366176,0
0.016667,-142.720232,175.864612,-12.631061,2.679228,4.676732,-4.894758,-0.188238,-4.385040,5.028871,0.019893,-0.110175,0.439790,-0.043161,-53.821950,188.495618,1611.478867,-19.261365,0
0.017708,-189.814294,128.012151,51.248674,3.889398,5.706313,-3.612905,-2.255417,-5.524523,3.799240,2.119022,-0.183235,0.442011,-0.020755,-73.444800,188.495745,1611.872372,-20.572332,0
0.018750,-191.334189,52.071588,108.689962,4.986468,5.731164,-1.493681,-4.177073,-5.535550,1.768040,3.979776,-0.197847,0.442925,-0.017021,-76.340160,188.495922,1612.650344,-20.954142,0
0.019792,-166.210550,-14.288817,166.771402,6.106158,5.305131,0.454893,-5.516634,-5.101812,-0.258962,5.299737,-0.256295,0.445212,-0.024490,-69.576780,188.721960,1612.839998,-21.682005,0
0.020833,-109.259855,-73.702703,193.005304,6.569868,3.650701,2.589992,-5.740517,-3.535942,-2.294358,5.523882,-0.227071,0.459714,-0.058098,-47.567521,188.494983,1614.318733,-21.896134,0
0.021875,-33.197047,-130.857460,196.021402,6.682968,1.701599,4.455226,-5.501709,-1.517955,-4.258411,5.388684,-0.267254,0.443840,-0.024490,-14.191711,188.476177,1614.910410,-21.844514,0
0.022918,31.750111,-173.104381,150.792235,5.812098,-0.499574,5.479121,-4.281551,0.650737,-5.332764,4.207478,-0.216112,0.446649,-0.035692,11.176618,188.641272,1616.443146,-21.473665,0
0.023958,82.757335,-207.208773,76.423864,4.398348,-2.839207,5.733110,-2.191984,2.988514,-5.727253,2.279126,-0.219765,0.450960,-0.009553,33.378148,188.519531,1617.727200,-20.922936,0
0.025000,142.339491,-175.858827,12.839583,3.188178,-4.479436,5.094168,0.039375,4.627899,-4.997029,0.147975,-0.121134,0.439724,-0.009553,58.135737,188.500124,1617.921758,-21.152055,0
0.026042,189.456238,-127.728506,-51.138637,1.978008,-5.523218,3.832158,2.121480,5.745327,-3.884905,-1.976059,-0.095563,0.441096,-0.058098,77.815137,188.495964,1618.758031,-21.619139,0
0.027083,191.157613,-51.944995,-108.210606,0.880938,-5.526768,1.724840,4.035673,5.778409,-1.786559,-3.794119,-0.015197,0.442337,-0.035692,82.248657,188.495879,1619.333119,-21.427252,0
0.028125,165.478192,14.596624,-166.858334,-0.182202,-5.153989,-0.227703,5.364040,5.396131,0.232051,-5.096291,-0.022503,0.449066,-0.017021,74.037597,188.722181,1618.918453,-21.459283,0
0.029167,109.287444,73.938025,-192.636743,-0.702462,-3.432104,-2.315178,5.614042,3.771449,2.254857,-5.338224,-0.007891,0.467814,-0.031958,51.937857,188.495962,1618.083878,-21.724014,0
0.030208,32.873018,131.213591,-195.985228,-0.770322,-1.539805,-4.228035,5.412548,1.826977,4.223106,-5.224373,-0.022503,0.422544,-0.013287,18.720388,188.571333,1617.612774,-20.099712,0
0.031250,-31.654467,172.687334,-151.420834,0.055308,0.657817,-5.263836,4.184927,-0.330688,5.251295,-4.046726,-0.040768,0.450960,-0.035692,-6.048511,188.496004,1616.430344,-20.009796,0
0.032292,-82.752432,207.335367,-76.670834,1.491678,3.032953,-5.533700,2.099092,-2.690520,5.628998,-2.125489,-0.073645,0.444689,-0.054364,-27.243451,188.722204,1615.443367,-19.131244,0
0.033333,-142.357272,176.214958,-12.828030,2.679228,4.598626,-4.855072,-0.121073,-4.311525,4.995297,-0.033475,-0.139399,0.442141,-0.046895,-53.539200,188.495883,1614.464649,-18.359395,0
0.034375,-189.950404,127.818857,51.039394,3.866778,5.699212,-3.600999,-2.210641,-5.476738,3.849600,2.090560,-0.190541,0.441227,-0.046895,-71.770920,188.495986,1614.202428,-17.458213,0
0.035417,-191.504327,51.950779,108.111364,4.986468,5.674360,-1.557179,-4.136027,-5.473062,1.759647,3.894388,-0.197847,0.441684,-0.031958,-76.102650,188.495964,1612.707178,-16.981460,0
0.036458,-165.711480,-14.228413,167.042235,6.060918,5.322882,0.407270,-5.438276,-5.127542,-0.204405,5.253485,-0.230724,0.470884,-0.050629,-68.920800,188.722110,1612.375092,-15.813152,0
0.037500,-109.724898,-73.630218,192.365152,6.569868,3.632950,2.514588,-5.662158,-3.569024,-2.231408,5.481188,-0.208806,0.484145,-0.024490,-45.576961,188.495883,1611.652840,-14.930533,0
0.038542,-33.457925,-130.978269,196.132198,6.682968,1.690948,4.415540,-5.475589,-1.521631,-4.266804,5.392241,-0.238030,0.453116,-0.024490,-13.875031,188.495924,1611.872872,-15.019960,0
0.039583,31.228356,-172.319123,151.764773,5.823408,-0.417917,5.447372,-4.233043,0.599277,-5.290797,4.211036,-0.212459,0.450438,-0.080503,10.803388,188.495857,1611.315652,-14.744556,0
0.040625,82.689280,-207.281259,77.014773,4.409658,-2.821456,5.729141,-2.221835,2.995866,-5.672696,2.279126,-0.168623,0.446126,-0.058098,32.586448,188.646715,1610.808663,-15.060726,0
0.041667,142.112641,-176.076284,12.913447,3.188178,-4.422631,5.078294,0.002062,4.642602,-5.009619,0.169322,-0.117481,0.441031,0.005384,58.689927,188.495993,1611.114667,-14.956631,0
0.042708,189.637718,-127.535211,-50.953977,1.978008,-5.540969,3.863907,2.143868,5.752678,-3.863922,-1.940481,-0.088257,0.441619,-0.035692,77.509767,188.496076,1610.902865,-14.745743,0
0.043750,191.259695,-51.630892,-107.952084,0.903558,-5.562271,1.736746,4.031941,5.818842,-1.790755,-3.758540,-0.069992,0.421433,-0.039427,80.529537,188.495877,1611.057840,-14.265068,0
0.044792,165.444164,14.826161,-166.809091,-0.216132,-5.153989,-0.219766,5.393891,5.396131,0.202674,-5.160332,0.003068,0.439594,-0.024490,73.064937,188.646715,1611.691210,-14.200698,0
0.045833,109.230732,73.925944,-192.513637,-0.645912,-3.524411,-2.319147,5.643893,3.771449,2.225480,-5.359571,-0.011544,0.458342,-0.028224,51.214017,188.495960,1611.738088,-13.899672,0
0.046875,33.530883,131.116943,-195.948296,-0.792942,-1.564657,-4.259784,5.475981,1.808599,4.298646,-5.288415,-0.015197,0.444950,-0.043161,18.788248,188.495863,1613.115885,-14.742178,0
0.047917,-30.985260,173.037680,-151.507008,0.077928,0.682669,-5.315427,4.207316,-0.327012,5.331032,-4.092978,-0.033462,0.447367,-0.054364,-6.105061,188.495855,1614.544781,-14.893969,0
0.048958,-82.741089,207.432014,-76.941667,1.446438,3.040054,-5.621008,2.114017,-2.719926,5.704538,-2.136162,-0.106522,0.449000,-0.061832,-28.544101,188.571379,1615.750475,-15.127323,0
0.050000,-142.459354,176.214958,-12.766477,2.656608,4.673182,-4.938412,-0.162119,-4.377689,5.028871,0.019893,-0.124787,0.438222,-0.005818,-53.618370,188.499352,1616.696628,-16.008957,0
0.051042,-189.814294,127.879261,51.125568,3.878088,5.724064,-3.660528,-2.236760,-5.502468,3.866387,2.143927,-0.194194,0.439267,-0.009553,-73.320390,188.496009,1617.283188,-16.547778,0
0.052083,-191.527012,51.624595,108.148296,4.929918,5.709863,-1.529398,-4.180804,-5.520847,1.772237,3.972661,-0.186888,0.440900,-0.024490,-76.351470,188.495966,1618.455571,-16.934515,0
0.053125,-165.983700,-14.772053,166.648296,6.049608,5.312232,0.415208,-5.471858,-5.164299,-0.200209,5.328200,-0.241683,0.460628,-0.050629,-69.565470,188.571353,1619.577513,-16.999485,0
0.054167,-109.509390,-73.497328,192.845266,6.558558,3.661352,2.562211,-5.721860,-3.484482,-2.235605,5.513208,-0.223418,0.434302,-0.020755,-48.042540,188.495866,1619.486817,-17.857273,0
0.055208,-34.047735,-130.712489,196.046023,6.649038,1.733551,4.439352,-5.490515,-1.499577,-4.245821,5.402915,-0.216112,0.449980,-0.002084,-14.734591,188.495930,1619.325829,-18.161768,0
0.056250,30.649888,-172.741954,151.653978,5.823408,-0.499574,5.483089,-4.259163,0.599277,-5.336961,4.243057,-0.212459,0.456447,-0.054364,10.871248,188.495864,1620.230434,-18.238685,0
0.057292,82.564513,-207.172531,77.051705,4.398348,-2.839207,5.760890,-2.191984,3.010569,-5.685286,2.257778,-0.183235,0.445799,-0.043161,33.242428,188.571332,1620.292394,-18.654093,0
0.058333,141.953846,-176.076284,12.704167,3.176868,-4.479436,5.102105,0.013256,4.583790,-5.043192,0.155091,-0.132093,0.438548,-0.028224,57.943467,188.496129,1620.037147,-18.204057,0
0.059375,189.286100,-127.438564,-51.064773,1.966698,-5.533868,3.828190,2.102823,5.749003,-3.851331,-1.940481,-0.095563,0.439071,-0.009553,77.645487,188.495946,1619.763125,-18.279856,0
0.060428,190.908078,-49.782513,-109.060038,0.869628,-5.544519,1.693092,4.039404,5.793112,-1.752985,-3.758540,-0.055380,0.432081,-0.013287,82.248657,188.496006,1619.233876,-17.838893,0
0.061473,165.171944,16.734944,-166.846023,-0.216132,-5.111385,-0.279295,5.341652,5.363049,0.236247,-5.096291,-0.011544,0.429272,-0.002084,73.924497,188.496114,1618.203205,-17.347766,0
0.062500,109.843227,73.636002,-192.316667,-0.679842,-3.471157,-2.267555,5.606579,3.760422,2.183513,-5.356014,-0.018850,0.451809,-0.028224,52.390257,188.496111,1617.898349,-17.262607,0
0.063541,34.200091,130.911568,-195.997538,-0.804252,-1.564657,-4.212161,5.423742,1.819626,4.248286,-5.242163,-0.026156,0.459191,-0.028224,19.251958,188.498414,1616.989437,-17.181946,0
0.064583,-30.758410,172.288664,-152.048675,0.032688,0.615214,-5.279710,4.177465,-0.308634,5.259689,-4.085862,-0.040768,0.458473,-0.024490,-5.958031,188.497323,1615.974862,-17.040941,0
0.065625,-82.729747,207.238719,-76.855493,1.412508,2.972598,-5.541637,2.125211,-2.668465,5.679358,-2.153952,-0.077298,0.446714,-0.039427,-27.096421,188.495955,1615.386651,-16.323468,0
0.066666,-141.699407,176.408252,-12.347917,2.656608,4.570223,-4.823323,-0.076297,-4.293147,5.007887,-0.033475,-0.124787,0.436066,-0.031958,-53.256450,188.495973,1614.277891,-15.260276,0
0.067708,-189.587444,127.432268,50.965530,3.878088,5.667259,-3.612905,-2.188252,-5.439981,3.824420,2.044308,-0.175929,0.435478,-0.054364,-71.669130,188.496092,1612.688178,-14.269342,0
0.068750,-191.617752,51.576271,107.557387,4.986468,5.681461,-1.561147,-4.083788,-5.462035,1.810007,3.851694,-0.194194,0.437699,-0.028224,-75.978240,188.496091,1611.129652,-12.961173,0
0.069791,-165.643425,-13.950552,166.968372,6.128778,5.294480,0.395365,-5.445738,-5.072406,-0.166635,5.242812,-0.238030,0.415031,-0.005818,-69.045210,188.571418,1609.268177,-12.812398,0
0.070833,-110.904518,-73.146982,192.057387,6.603798,3.647151,2.478871,-5.647232,-3.539618,-2.151671,5.424262,-0.241683,0.453116,-0.020755,-46.199011,188.496107,1608.164656,-11.793648,0
0.071875,-34.887080,-130.736651,196.021402,6.660348,1.744202,4.359980,-5.505440,-1.551037,-4.229034,5.374452,-0.259948,0.457231,0.001650,-14.383981,188.496071,1607.927052,-11.454530,0
0.072916,30.502436,-171.884210,152.392614,5.812098,-0.453420,5.407686,-4.218118,0.555168,-5.269814,4.196805,-0.197847,0.458995,-0.061832,10.769458,188.496022,1606.573115,-11.356408,0
0.073958,82.394375,-207.172531,77.014773,4.398348,-2.793054,5.721204,-2.210641,2.970136,-5.676893,2.275568,-0.179582,0.445995,-0.050629,32.462038,188.420734,1606.298994,-10.809466,0
0.075000,141.545515,-176.342064,12.421023,3.165558,-4.397779,5.030671,-0.035252,4.536005,-5.030602,0.190669,-0.139399,0.436915,-0.039427,58.384557,188.496074,1605.727541,-10.149547,0
0.076041,189.342813,-127.221108,-51.027841,1.955388,-5.512567,3.883750,2.069241,5.778409,-3.859725,-1.922691,-0.095563,0.437046,-0.054364,77.407977,188.496022,1606.030896,-9.907289,0
0.077083,191.237010,-51.292626,-107.570455,0.880938,-5.466413,1.804212,3.972239,5.833545,-1.794952,-3.690941,-0.062686,0.407258,-0.035692,80.450367,188.495997,1606.103351,-9.629193,0
0.078125,165.262684,14.065064,-166.784470,-0.238752,-5.153989,-0.172143,5.341652,5.410834,0.156510,-5.135427,0.010374,0.429272,-0.035692,73.155417,188.420761,1606.923608,-9.579240,0
0.079166,110.637202,73.321899,-192.082766,-0.691152,-3.467606,-2.279461,5.602848,3.797179,2.208693,-5.327551,-0.000585,0.459975,-0.031958,51.892617,188.496051,1607.027367,-9.794088,0
0.080208,35.039436,130.827002,-195.899054,-0.804252,-1.600160,-4.247878,5.393891,1.790220,4.239892,-5.242163,-0.018850,0.458799,-0.046895,19.138858,188.496101,1606.904091,-10.359498,0
0.081250,-30.531560,172.506120,-151.937879,0.032688,0.657817,-5.251930,4.151345,-0.297606,5.280672,-4.075189,-0.033462,0.459844,-0.035692,-6.286021,188.496125,1607.057225,-10.425533,0
0.082291,-82.570952,207.226639,-76.646212,1.423818,3.018752,-5.581323,2.065509,-2.716250,5.641588,-2.121931,-0.073645,0.444558,-0.009553,-28.419691,188.420801,1606.651114,-11.248787,0
0.083333,-141.778804,176.372010,-12.077083,2.679228,4.634128,-4.882852,-0.154656,-4.311525,4.986904,-0.015686,-0.121134,0.434890,-0.031958,-53.414790,188.496006,1606.583862,-11.577385,0
0.084375,-189.496704,127.444349,51.150190,3.889398,5.681461,-3.628779,-2.169596,-5.487765,3.828616,2.047866,-0.168623,0.433061,-0.017021,-73.173360,188.496002,1607.166407,-11.673509,0
0.085416,-191.481642,51.672919,107.717425,5.020398,5.709863,-1.537336,-4.072594,-5.465711,1.801614,3.897946,-0.223418,0.441749,-0.035692,-76.227060,188.496062,1607.524128,-12.176420,0
0.086458,-166.040413,-13.527720,166.796023,6.072228,5.312232,0.391396,-5.423350,-5.076081,-0.166635,5.264159,-0.234377,0.442795,-0.043161,-69.554160,188.420652,1607.852055,-12.515639,0
0.087500,-111.188081,-72.857040,192.389773,6.581178,3.636500,2.526494,-5.662158,-3.535942,-2.197834,5.488303,-0.234377,0.455337,-0.035692,-48.675900,188.437321,1608.958236,-13.293878,0
0.088541,-35.442862,-130.434628,196.082955,6.682968,1.758403,4.423477,-5.460664,-1.558389,-4.271001,5.381568,-0.234377,0.458342,-0.031958,-14.938171,188.496177,1609.430799,-13.794628,0
0.089583,30.445723,-172.186233,152.060228,5.857338,-0.460521,5.447372,-4.233043,0.599277,-5.286600,4.221710,-0.201500,0.460302,-0.024490,10.973038,188.496074,1609.934712,-14.091328,0
0.090625,82.280950,-207.160450,76.793182,4.409658,-2.860509,5.725173,-2.191984,2.970136,-5.655909,2.286241,-0.194194,0.442468,-0.039427,33.072778,188.420777,1609.691257,-13.956139,0
0.091666,141.307323,-176.342064,12.310227,3.176868,-4.387129,5.042576,-0.016595,4.565411,-5.013815,0.179996,-0.139399,0.438744,-0.013287,57.739887,188.496114,1609.705278,-14.391212,0
0.092708,188.923140,-127.233189,-51.003220,1.978008,-5.459313,3.859938,2.065509,5.726948,-3.838741,-1.901344,-0.084604,0.437960,-0.058098,77.555007,188.496145,1608.734308,-14.236166,0
0.093750,191.327750,-51.812105,-107.299622,0.914868,-5.494815,1.831992,3.934926,5.782084,-1.849509,-3.666036,-0.044421,0.431363,-0.058098,82.282587,188.496199,1608.200622,-13.723033,0
0.094791,165.444164,13.388534,-166.882955,-0.204822,-5.122036,-0.120551,5.270756,5.374076,0.148117,-5.053597,-0.011544,0.450960,-0.020755,74.162007,188.345361,1607.045637,-13.631506,0
0.095833,111.601314,72.983633,-191.861175,-0.713772,-3.503109,-2.219932,5.561803,3.797179,2.120562,-5.338224,-0.000585,0.466312,-0.035692,52.978377,188.496201,1606.824463,-13.075593,0
0.096875,35.391053,130.730354,-196.009849,-0.804252,-1.575308,-4.184381,5.352846,1.815950,4.181139,-5.224373,-0.007891,0.463045,-0.031958,19.172788,188.496208,1606.230237,-12.531704,0
0.097916,-30.905862,171.708781,-152.528788,0.021378,0.611663,-5.192401,4.147614,-0.279227,5.255492,-4.060957,-0.055380,0.454292,-0.035692,-6.263401,188.496192,1605.688299,-12.426523,0
0.098958,-82.582294,207.299124,-76.646212,1.423818,2.969048,-5.541637,2.132674,-2.657438,5.633194,-2.157509,-0.106522,0.443056,-0.031958,-27.005941,188.420661,1605.468086,-11.460347,0
0.100000,-141.188994,176.891489,-12.003220,2.690538,4.520520,-4.843166,-0.016595,-4.245362,5.007887,-0.022801,-0.132093,0.434237,-0.073035,-53.086800,188.496111,1605.082975,-10.989745,0
0.101041,-189.258511,127.492672,50.817803,3.912018,5.642408,-3.644654,-2.117356,-5.432629,3.816026,2.037192,-0.161317,0.435543,-0.017021,-71.578650,188.496228,1604.207873,-10.961927,0
0.102083,-191.538354,52.373611,107.372728,4.963848,5.660159,-1.600833,-4.020355,-5.451008,1.843581,3.812557,-0.219765,0.443513,-0.039427,-75.808590,188.496163,1603.588459,-10.045057,0
0.103125,-165.734165,-12.464601,167.251516,6.094848,5.294480,0.331867,-5.419619,-5.098136,-0.120472,5.246370,-0.216112,0.450176,-0.076769,-69.158310,188.420708,1603.633735,-9.519930,0
0.104166,-112.379043,-72.663745,191.614205,6.581178,3.686204,2.423311,-5.639770,-3.613133,-2.130687,5.452725,-0.252642,0.469186,-0.054364,-46.628791,188.496127,1603.397715,-8.431527,0
0.105208,-35.681055,-130.507114,196.230682,6.615108,1.776155,4.387760,-5.442007,-1.613525,-4.170280,5.360221,-0.259948,0.460955,-0.017021,-14.270881,188.496132,1602.526768,-7.152690,0
0.106250,30.899423,-171.316408,152.786553,5.834718,-0.389515,5.395780,-4.229312,0.500032,-5.227847,4.218152,-0.227071,0.457427,-0.046895,11.074828,188.494021,1601.591771,-5.903740,0
0.107291,82.417060,-207.208773,76.768561,4.409658,-2.775302,5.717236,-2.210641,2.929702,-5.613942,2.279126,-0.168623,0.442403,0.012853,32.416798,188.419066,1600.849226,-5.540020,0
0.108333,140.796910,-176.801138,12.347159,3.210798,-4.355176,5.046545,-0.050177,4.517626,-5.001225,0.229806,-0.157664,0.438352,-0.035692,58.260147,188.496103,1600.332679,-4.871563,0
0.109375,189.025223,-127.438564,-50.646212,2.000628,-5.445111,3.855970,2.054315,5.686515,-3.830348,-1.851535,-0.084604,0.437373,-0.039427,77.441907,188.496275,1599.677291,-4.412898,0
0.110416,191.373120,-52.536959,-107.336553,0.914868,-5.484164,1.855804,3.897612,5.737975,-1.891476,-3.666036,-0.084604,0.441423,-0.050629,80.325957,188.496159,1599.450239,-4.244509,0
