1-Time,2-VGERA,3-VGERB,4-VGERC,5-VN,6-IGERAN,7-IGERBN,8-IGERCN,9-IGERAT,10-IGERBT,11-IGERCT,12-IN,13-IFD,14-IFAULT,15-VFAULT,16-Speed (rad/s),17-Active Power,18-Reactive Power,19-FAULT 
0.000000,90.057506,54.976984,-207.800723,-3.750339,-0.823634,-5.135759,5.525981,1.326139,5.151985,-5.512339,0.007591,0.327226,-0.126890,56.815975,188.495720,1476.438510,-872.706522,0
0.001042,37.580653,128.030947,-180.994135,-3.254929,1.660599,-6.093167,3.970372,-1.089443,6.005937,-3.888576,-0.039809,0.329707,-0.093440,19.528403,188.646496,1476.425481,-872.147969,0
0.002083,-13.901807,186.802977,-130.710518,-2.230333,3.843935,-6.089145,1.892441,-3.269270,6.259586,-1.837109,-0.068979,0.327364,-0.074856,-22.059848,188.495671,1475.852394,-872.258893,0
0.003125,-71.960823,194.413744,-66.865635,-0.969291,5.697019,-4.990941,-0.934908,-5.035619,5.105482,0.975142,-0.149195,0.314618,-0.112023,-72.024292,188.571055,1476.600673,-872.705682,0
0.004167,-149.919008,168.316331,-12.839302,0.134120,6.643743,-3.414034,-3.080967,-5.945996,3.668137,3.242354,-0.160133,0.315031,-0.104590,-126.593392,188.495731,1476.883705,-871.916602,0
0.005208,-188.485653,105.797643,37.189130,1.046123,6.119008,-1.020514,-4.791759,-5.474486,1.292290,4.953172,-0.218472,0.325366,-0.082290,-152.296147,188.646471,1477.143370,-871.768270,0
0.006250,-194.395514,47.789038,108.665263,2.419758,5.355758,1.328755,-5.999154,-4.774475,-1.100468,6.364975,-0.243995,0.330051,-0.104590,-145.147111,188.495705,1477.476944,-872.377591,0
0.007292,-152.314592,-4.699412,169.326408,3.613244,3.469649,3.336094,-6.120273,-3.011753,-3.070476,6.368760,-0.225764,0.343694,-0.100873,-105.101250,188.571140,1478.191370,-872.395434,0
0.008333,-89.837305,-55.226446,207.677084,4.333839,0.948721,5.234819,-5.291371,-0.599798,-5.006665,5.687461,-0.276811,0.341075,-0.097156,-56.296413,188.495644,1478.052671,-872.654784,0
0.009375,-36.897155,-128.562289,181.198591,3.860949,-1.616240,6.216363,-3.777396,1.746871,-5.962077,4.075053,-0.211179,0.339077,-0.097156,-16.689627,188.646438,1479.281681,-872.317652,0
0.010417,14.302807,-187.005459,130.671941,2.881389,-3.748204,6.176136,-1.635121,3.981103,-6.114266,2.008446,-0.160133,0.299529,-0.074856,22.883384,188.495721,1479.115196,-872.648368,0
0.011458,72.226224,-194.674951,66.887816,1.654126,-5.637983,5.094024,1.154378,5.685793,-4.977073,-0.796236,-0.076271,0.316271,-0.089723,73.039220,188.571060,1479.947076,-872.719198,0
0.012500,149.958411,-168.248678,13.080214,0.561974,-6.503978,3.545276,3.319363,6.668710,-3.518590,-3.071017,-0.050748,0.318476,-0.115740,126.403679,188.495705,1480.252824,-872.031965,0
0.013542,188.423356,-105.964889,-37.154797,-0.440104,-6.030616,1.107506,5.064219,6.150049,-1.193472,-4.770480,-0.003348,0.330603,-0.108307,152.691867,188.571152,1480.727008,-871.963566,0
0.014583,194.254118,-47.592189,-108.728144,-1.836257,-5.168290,-1.217628,6.214840,5.406514,1.207740,-6.140648,-0.006994,0.335839,-0.089723,145.160048,188.495649,1480.465667,-871.810137,0
0.015625,152.591293,5.107671,-169.109800,-2.984706,-3.362910,-3.200830,6.301894,3.672808,3.127019,-6.189853,0.022176,0.346932,-0.074856,103.729413,188.571082,1480.965768,-871.604441,0
0.016667,89.899307,55.528999,-207.545538,-3.615227,-0.845651,-5.119669,5.544906,1.322512,5.092800,-5.538834,0.018530,0.338113,-0.097156,55.836500,188.495721,1481.034558,-870.821506,0
0.017708,37.026957,128.312827,-180.981983,-3.254929,1.671607,-6.052940,3.981727,-1.064054,5.993255,-3.877221,-0.014286,0.309312,-0.082290,17.614488,188.571022,1481.026251,-870.248097,0
0.018750,-14.263404,186.943917,-130.321664,-2.297889,3.832927,-6.081099,1.907581,-3.225746,6.225766,-1.874959,-0.083563,0.319992,-0.123173,-22.555214,188.495644,1481.021314,-869.089421,0
0.019792,-72.085122,194.284549,-66.416023,-0.991810,5.733714,-4.974851,-0.874349,-4.973960,5.088572,0.944862,-0.116379,0.320130,-0.104590,-72.429592,188.571031,1480.651607,-867.951939,0
0.020833,-150.258006,168.010961,-12.571965,0.100342,6.577692,-3.414034,-3.069613,-5.942369,3.651227,3.223429,-0.196595,0.319854,-0.100873,-126.447034,188.495718,1480.577117,-867.580037,0
0.021875,-188.203155,105.891603,37.626590,1.068642,6.082314,-1.068787,-4.829609,-5.445470,1.334565,4.945602,-0.233057,0.329638,-0.093440,-152.149789,188.571017,1480.591522,-866.959011,0
0.022917,-194.316414,47.518903,109.297150,2.464795,5.278699,1.316687,-5.961305,-4.741832,-1.058193,6.304415,-0.240349,0.334599,-0.112023,-144.617970,188.495689,1480.166668,-865.833472,0
0.023958,-152.506691,-5.380623,169.083375,3.556947,3.499005,3.344139,-6.089993,-2.968229,-3.028201,6.349835,-0.265872,0.339353,-0.097156,-103.660185,188.571151,1479.604197,-865.337807,0
0.025000,-89.464407,-55.719736,207.640629,4.300061,0.978077,5.218728,-5.295156,-0.668711,-4.998210,5.706386,-0.214826,0.338802,-0.100873,-55.271905,188.495720,1480.370512,-864.382815,0
0.026042,-36.569457,-128.480074,181.162136,3.849689,-1.517165,6.123841,-3.731977,1.746871,-5.902892,4.082623,-0.196595,0.338457,-0.071140,-16.723402,188.571221,1479.944284,-863.775001,0
0.027083,14.698304,-187.346064,130.392452,2.892649,-3.689493,6.172113,-1.691895,3.883174,-6.114266,2.061436,-0.134610,0.336735,-0.063706,23.390009,188.495611,1480.440928,-862.064565,0
0.028125,72.576522,-194.440050,66.766299,1.654126,-5.615966,5.085978,1.101389,5.653150,-4.964390,-0.773526,-0.120025,0.317374,-0.089723,73.410745,188.495673,1480.272232,-861.349892,0
0.029167,150.274808,-168.107738,12.667057,0.595751,-6.481961,3.545276,3.277728,6.643321,-3.539727,-3.040738,-0.017932,0.319992,-0.097156,127.326862,188.495655,1480.456077,-860.515149,0
0.030208,188.265157,-106.094084,-37.665167,-0.440104,-6.008599,1.111528,5.045294,6.146422,-1.231520,-4.770480,-0.010640,0.333565,-0.100873,152.173984,188.571053,1480.817077,-860.090553,0
0.031250,194.389717,-47.275074,-109.250665,-1.836257,-5.230671,-1.149242,6.207270,5.453665,1.161238,-6.144433,0.014883,0.335632,-0.093440,145.993164,188.495626,1481.818412,-859.401876,0
0.032292,152.376595,5.589217,-169.401440,-3.007225,-3.399604,-3.249103,6.335958,3.683689,3.135474,-6.189853,0.044053,0.348861,-0.108307,103.875772,188.495785,1482.099659,-859.221312,0
0.033333,89.549010,55.916585,-207.606296,-3.750339,-0.875007,-5.099555,5.567616,1.289869,5.058980,-5.550189,-0.014286,0.349412,-0.119457,56.478225,188.495700,1481.963853,-858.973391,0
0.034375,36.574960,129.017528,-180.787557,-3.164855,1.612896,-6.069031,4.008221,-1.045919,6.048212,-3.933996,-0.054394,0.325848,-0.104590,18.841646,188.570993,1483.359486,-858.699471,0
0.035417,-14.828401,186.920427,-130.431029,-2.219074,3.799901,-6.109258,1.907581,-3.240254,6.289179,-1.893884,-0.054394,0.308555,-0.071140,-22.836672,188.495779,1484.361663,-858.825109,0
0.036458,-72.921317,194.319784,-66.209444,-1.014329,5.693349,-4.990941,-0.900843,-4.970333,5.113937,0.933507,-0.123671,0.323644,-0.097156,-72.834892,188.495658,1484.984696,-858.411686,0
0.037500,-150.167606,167.963981,-11.927927,0.089083,6.599709,-3.486443,-3.046903,-5.935115,3.668137,3.219644,-0.196595,0.322197,-0.126890,-126.818558,188.495593,1485.174587,-858.001025,0
0.038542,-188.643852,105.445292,38.124809,1.068642,6.137356,-1.048673,-4.829609,-5.503502,1.275380,4.953172,-0.225764,0.330671,-0.097156,-152.543830,188.495631,1485.673761,-858.494058,0
0.039583,-194.248615,47.049102,109.528032,2.431017,5.341080,1.260369,-6.044574,-4.774475,-1.058193,6.277920,-0.236703,0.334461,-0.112023,-144.966978,188.495712,1485.939275,-857.988226,0
0.040625,-151.715696,-5.732973,169.897537,3.624503,3.513683,3.324026,-6.112703,-3.051650,-3.053566,6.372545,-0.240349,0.357198,-0.134323,-104.448267,188.571065,1487.237378,-857.570601,0
0.041667,-89.306208,-56.048596,207.519112,4.345098,0.956060,5.214705,-5.348145,-0.694100,-5.002438,5.653396,-0.254934,0.362021,-0.104590,-55.756013,188.495761,1486.867208,-857.178104,0
0.042708,-36.298259,-129.302224,180.858345,3.838430,-1.535512,6.147977,-3.784966,1.783141,-5.962077,4.097763,-0.218472,0.328536,-0.126890,-16.171744,188.495698,1487.688775,-857.708625,0
0.043750,15.161601,-186.946734,130.404604,2.870130,-3.726187,6.168090,-1.722175,3.937579,-6.071992,2.061436,-0.145548,0.296290,-0.078573,23.536367,188.495655,1487.279920,-857.991686,0
0.044792,73.254517,-194.663206,66.328839,1.665385,-5.579271,5.134251,1.097604,5.667658,-5.036257,-0.765956,-0.101794,0.321232,-0.089723,73.894853,188.495705,1488.536821,-857.745314,0
0.045833,150.320008,-167.966798,12.132383,0.618270,-6.485631,3.517116,3.289083,6.621559,-3.548182,-3.025598,-0.025225,0.322472,-0.100873,126.516262,188.495660,1488.527400,-857.146415,0
0.046875,188.694555,-105.577304,-37.896049,-0.428845,-6.041625,1.111528,5.056649,6.131914,-1.197700,-4.785620,-0.017932,0.333427,-0.115740,153.052133,188.420240,1488.354939,-857.345866,0
0.047917,194.107219,-47.051919,-109.590912,-1.847517,-5.212324,-1.169355,6.233765,5.410141,1.165465,-6.110368,0.040407,0.324195,-0.078573,144.946140,188.495682,1487.647388,-856.976333,0
0.048958,152.071497,5.906332,-169.753839,-3.018484,-3.392265,-3.204853,6.335958,3.636538,3.118564,-6.163358,0.025822,0.355751,-0.078573,103.234047,188.420321,1487.044953,-856.731597,0
0.050000,89.345611,56.445110,-207.411869,-3.739079,-0.897024,-5.103578,5.525981,1.282615,5.071662,-5.493414,0.000299,0.349688,-0.126890,55.318617,188.495714,1486.485286,-856.645569,0
0.051042,36.145563,129.264173,-180.690343,-3.243670,1.623904,-6.040872,4.000651,-1.060427,6.048212,-3.903716,-0.003348,0.334805,-0.123173,16.961505,188.495749,1486.216851,-856.701460,0
0.052083,-15.099599,187.037877,-129.932811,-2.275370,3.810910,-6.073054,1.945430,-3.203984,6.204629,-1.859819,-0.076271,0.310001,-0.093440,-23.253230,188.495622,1484.998544,-855.961134,0
0.053125,-73.249014,194.296294,-65.808439,-0.946773,5.667663,-4.966805,-0.881918,-4.970333,5.071662,0.941077,-0.109087,0.329776,-0.104590,-73.240191,188.495772,1484.595827,-855.834081,0
0.054167,-150.585703,167.717336,-11.794258,0.111601,6.581362,-3.458284,-3.039333,-5.916980,3.647000,3.189364,-0.185656,0.318407,-0.086006,-126.615908,188.495727,1484.371201,-855.314197,0
0.055208,-188.553453,105.210392,38.416449,1.034864,6.100661,-1.036605,-4.753910,-5.438216,1.313427,4.934247,-0.207533,0.329225,-0.126890,-152.487538,188.420305,1483.908975,-854.434182,0
0.056250,-194.056516,46.884672,110.111312,2.464795,5.308055,1.248301,-5.961305,-4.723697,-1.028600,6.277920,-0.222118,0.335012,-0.156624,-144.268961,188.495731,1483.623195,-854.030493,0
0.057292,-151.681796,-6.191029,169.630200,3.658281,3.447632,3.328048,-6.086208,-3.008126,-3.045111,6.338480,-0.247641,0.349481,-0.123173,-102.950910,188.420386,1482.821396,-853.839368,0
0.058333,-88.933311,-56.506652,207.519112,4.390136,0.956060,5.182524,-5.329220,-0.646949,-4.972845,5.702601,-0.211179,0.341213,-0.112023,-54.720247,188.495649,1483.046029,-853.765921,0
0.059375,-35.801062,-129.290479,180.700373,3.860949,-1.542851,6.119818,-3.720622,1.761379,-5.881755,4.048558,-0.189302,0.322886,-0.108307,-16.205519,188.420318,1481.883241,-852.857226,0
0.060417,15.511899,-187.369554,129.991447,2.903908,-3.733526,6.160045,-1.703250,3.857785,-6.080447,2.042511,-0.149195,0.353753,-0.126890,23.986700,188.495653,1481.866077,-851.894298,0
0.061458,73.717814,-194.393070,65.891379,1.597829,-5.590280,5.069887,1.105174,5.642269,-4.951708,-0.777311,-0.112733,0.321852,-0.104590,74.378961,188.420305,1480.780368,-851.493472,0
0.062500,150.704206,-167.837602,11.950108,0.573233,-6.481961,3.537230,3.296653,6.643321,-3.573547,-3.040738,-0.054394,0.321094,-0.067423,127.349378,188.495645,1481.379762,-851.563348,0
0.063542,188.604155,-105.342404,-38.309206,-0.451364,-6.045294,1.075324,5.022585,6.142795,-1.155425,-4.759125,0.029468,0.334530,-0.104590,152.511734,188.420320,1481.156862,-851.461196,0
0.064583,194.028119,-46.734803,-110.089131,-1.813739,-5.193977,-1.205560,6.214840,5.381125,1.157010,-6.095228,0.040407,0.338182,-0.123173,145.599123,188.495676,1480.933979,-851.093500,0
0.065625,151.483900,6.117742,-170.191299,-2.995965,-3.403274,-3.204853,6.354883,3.658300,3.211568,-6.204993,0.025822,0.335357,-0.097156,103.110205,188.420343,1481.731539,-851.999121,0
0.066667,88.746715,56.633030,-207.399718,-3.761598,-0.875007,-5.135759,5.544906,1.326139,5.113937,-5.535049,0.011237,0.327089,-0.123173,55.937825,188.495662,1482.732854,-851.799392,0
0.067708,35.772665,130.051088,-180.362248,-3.277448,1.649590,-6.081099,3.959017,-1.074935,6.035529,-3.869651,-0.006994,0.329707,-0.104590,18.177404,188.420301,1482.454081,-851.679012,0
0.068750,-15.517696,186.861702,-129.847749,-2.275370,3.843935,-6.109258,1.850807,-3.247508,6.263814,-1.886314,-0.105440,0.345072,-0.108307,-23.444622,188.495754,1483.415254,-852.015710,0
0.069792,-73.983510,194.296294,-65.395282,-0.924254,5.730044,-5.019100,-0.950047,-5.031992,5.126620,1.028132,-0.116379,0.319579,-0.115740,-73.870658,188.420289,1484.206717,-853.170803,0
0.070833,-150.438804,167.646866,-11.271737,0.145379,6.603379,-3.470352,-3.058258,-5.985893,3.718867,3.246139,-0.192949,0.320819,-0.112023,-126.863592,188.495606,1485.555254,-853.743745,0
0.071875,-189.231448,104.681867,38.683786,1.079901,6.104330,-1.008446,-4.856103,-5.488994,1.283835,4.949387,-0.229410,0.330878,-0.115740,-153.095488,188.420233,1486.240991,-854.096860,0
0.072917,-193.841818,46.544067,110.427255,2.476055,5.315394,1.300596,-6.014294,-4.763594,-1.053965,6.327125,-0.284103,0.331360,-0.089723,-144.482870,188.420312,1487.042845,-854.522060,0
0.073958,-150.811702,-6.155794,171.137007,3.635763,3.462310,3.352185,-6.150552,-3.048023,-3.049339,6.372545,-0.236703,0.352375,-0.100873,-103.637668,188.420396,1488.199900,-854.304887,0
0.075000,-88.571713,-56.788532,207.118107,4.300061,0.974407,5.238842,-5.329220,-0.654203,-5.006665,5.725311,-0.233057,0.352444,-0.104590,-55.148064,188.495689,1488.604018,-854.326759,0
0.076042,-35.450764,-130.500215,180.469491,3.838430,-1.557529,6.164068,-3.796321,1.808530,-5.966304,4.075053,-0.203887,0.321025,-0.100873,-15.586311,188.344824,1489.911624,-855.086848,0
0.077083,16.009096,-186.899754,129.821323,2.903908,-3.733526,6.172113,-1.680540,3.894055,-6.110039,2.057651,-0.152841,0.360643,-0.115740,24.301933,188.420283,1490.341122,-855.237576,0
0.078125,74.452309,-194.733676,65.417464,1.620348,-5.660000,5.081955,1.139238,5.725690,-5.006665,-0.818945,-0.098148,0.305867,-0.130607,75.099494,188.420311,1491.614429,-856.177737,0
0.079167,150.579906,-167.602702,11.451890,0.550714,-6.533334,3.529185,3.296653,6.650575,-3.565092,-3.063447,-0.058040,0.322472,-0.093440,126.561296,188.495569,1491.571535,-856.290846,0
0.080208,189.519449,-104.661193,-38.540088,-0.462623,-6.059972,1.055210,5.120993,6.186319,-1.125833,-4.789405,-0.014286,0.335081,-0.089723,153.806441,188.420233,1492.300494,-856.763110,0
0.081250,193.745621,-46.535138,-110.587349,-1.847517,-5.234341,-1.217628,6.241335,5.421022,1.148555,-6.178498,0.000299,0.337906,-0.108307,144.270640,188.345062,1493.529124,-857.139966,0
0.082292,150.885004,6.352642,-171.151281,-3.063521,-3.388596,-3.289330,6.388947,3.640165,3.177749,-6.193638,0.036760,0.352651,-0.089723,102.254573,188.420356,1493.520765,-856.571554,0
0.083333,88.407717,57.044106,-207.010864,-3.694042,-0.856660,-5.123691,5.578970,1.322512,5.135075,-5.531264,-0.003348,0.338319,-0.104590,54.834509,188.495635,1493.528798,-856.521710,0
0.084375,35.422367,130.579614,-180.240731,-3.198633,1.667938,-6.105236,4.000651,-1.114832,6.052439,-3.949136,-0.028871,0.330740,-0.097156,16.477397,188.420388,1494.639964,-856.583805,0
0.085417,-15.879294,187.073112,-129.434592,-2.264111,3.810910,-6.085122,1.881086,-3.236627,6.229994,-1.897669,-0.061686,0.314342,-0.093440,-23.962505,188.420247,1494.473725,-855.988724,0
0.086458,-74.412907,194.425489,-64.994277,-0.969291,5.755730,-5.007032,-0.897058,-5.013857,5.088572,1.009207,-0.105440,0.319303,-0.100873,-74.534899,188.420311,1494.234613,-855.419456,0
0.087500,-150.834302,167.306260,-10.992248,0.167898,6.574023,-3.450239,-3.080967,-5.985893,3.697729,3.189364,-0.200241,0.324746,-0.097156,-126.582134,188.495691,1494.195860,-854.636703,0
0.088542,-189.457447,104.165086,39.024033,1.136198,6.155703,-1.000401,-4.886383,-5.503502,1.250015,4.960742,-0.233057,0.331292,-0.074856,-153.410721,188.420274,1494.290662,-854.830023,0
0.089583,-193.717518,46.297422,111.095597,2.498573,5.267691,1.288528,-5.980230,-4.767221,-1.058193,6.334695,-0.262226,0.350032,-0.086006,-143.559687,188.420365,1494.607640,-854.739423,0
0.090625,-150.551804,-6.472909,171.112704,3.647022,3.469649,3.360230,-6.124057,-3.011753,-3.062021,6.368760,-0.251287,0.360850,-0.086006,-101.948919,188.420235,1494.226549,-854.888034,0
0.091667,-88.040617,-57.211352,207.130259,4.311321,0.952391,5.218728,-5.329220,-0.665084,-5.019347,5.713956,-0.218472,0.348448,-0.089723,-54.247398,188.495758,1494.335247,-854.613880,0
0.092708,-34.998767,-130.652901,180.190003,3.804652,-1.553859,6.196250,-3.747116,1.761379,-5.902892,4.067483,-0.182010,0.344176,-0.052556,-15.698894,188.344587,1493.867121,-853.369107,0
0.093750,16.167295,-187.357809,129.383863,2.858871,-3.729857,6.184181,-1.650261,3.915817,-6.076219,2.046296,-0.171072,0.318752,-0.130607,24.617166,188.345247,1493.601555,-853.385614,0
0.094792,74.813907,-194.569245,65.223037,1.642866,-5.648991,5.098046,1.150593,5.700301,-4.968618,-0.849225,-0.079917,0.311862,-0.089723,75.504793,188.420672,1492.937206,-853.293403,0
0.095833,150.885004,-167.320822,11.245311,0.561974,-6.500309,3.533207,3.326932,6.661456,-3.582002,-3.067232,-0.036163,0.324608,-0.071140,127.349378,188.496056,1493.302901,-853.146329,0
0.096875,189.621148,-104.144413,-38.941093,-0.485141,-6.045294,1.103483,5.113423,6.168184,-1.193472,-4.853750,0.014883,0.333083,-0.093440,153.367367,188.345236,1493.972967,-852.946072,0
0.097917,193.632622,-46.077083,-110.964051,-1.858776,-5.223332,-1.189469,6.248904,5.457292,1.144328,-6.144433,0.007591,0.337355,-0.089723,144.912365,188.345297,1494.276474,-852.298404,0
0.098958,150.105310,6.493582,-171.710258,-3.063521,-3.384926,-3.289330,6.362453,3.654673,3.181976,-6.223918,0.014883,0.350859,-0.100873,101.928081,188.420703,1494.826755,-852.138530,0
0.100000,88.012220,57.466926,-206.962258,-3.761598,-0.900693,-5.163918,5.582755,1.242718,5.168895,-5.569114,-0.003348,0.351135,-0.093440,55.498751,188.496071,1494.989439,-852.993077,0
0.101042,35.015570,131.460490,-179.827575,-3.221151,1.686285,-6.109258,4.012006,-1.136594,6.082032,-3.903716,-0.036163,0.329087,-0.100873,17.659522,188.345301,1494.945839,-853.267648,0
0.102083,-16.184392,186.849957,-129.264469,-2.252852,3.821918,-6.109258,1.865946,-3.272897,6.259586,-1.856034,-0.061686,0.318752,-0.071140,-24.030055,188.420663,1494.929778,-853.925703,0
0.103125,-75.215201,194.495959,-64.629727,-0.969291,5.785086,-5.035191,-0.923553,-5.053754,5.168895,0.986497,-0.145548,0.308003,-0.074856,-75.120332,188.420765,1496.502983,-853.727446,0
0.104167,-150.698703,167.141830,-10.542636,0.134120,6.636404,-3.470352,-3.084752,-6.022163,3.651227,3.295344,-0.207533,0.321094,-0.104590,-126.897367,188.496134,1496.273664,-855.228495,0
0.105208,-190.463140,103.378171,39.400734,1.091161,6.196067,-1.000401,-4.950727,-5.543399,1.237332,5.009947,-0.222118,0.333290,-0.097156,-154.018671,188.345303,1497.235896,-855.687034,0
0.106250,-193.480220,46.015541,111.435844,2.498573,5.319063,1.340824,-6.006724,-4.778102,-1.104695,6.342265,-0.214826,0.335632,-0.115740,-143.863662,188.345292,1497.318142,-856.036201,0
0.107292,-149.591310,-6.449419,172.631663,3.703318,3.491666,3.412526,-6.222466,-3.048023,-3.091614,6.463385,-0.236703,0.347483,-0.093440,-102.500577,188.420835,1499.080257,-856.404449,0
0.108333,-87.724219,-57.610683,206.814315,4.277543,0.963399,5.267001,-5.325436,-0.628814,-5.032030,5.732881,-0.225764,0.335563,-0.112023,-54.540114,188.496042,1499.115341,-856.610561,0
0.109375,-34.693669,-131.933107,180.019879,3.872208,-1.634588,6.284749,-3.796321,1.862935,-6.038172,4.109118,-0.203887,0.316960,-0.086006,-15.181011,188.345305,1500.923726,-858.324126,0
