1-Time,2-VGERA,3-VGERB,4-VGERC,5-VN,6-IGERAN,7-IGERBN,8-IGERCN,9-IGERAT,10-IGERBT,11-IGERCT,12-IN,13-IFD,14-IFAULT,15-VFAULT,16-Speed (rad/s),17-FAULT 
0.000000,-139.170029,168.110123,-23.362436,2.430408,7.083820,-3.874681,-3.415864,-6.678708,4.010408,3.217592,-0.157664,0.305481,-0.035692,119.628206,188.420383,0
0.001042,-181.057884,110.997411,23.827563,3.391758,6.750094,-1.729741,-5.167182,-6.472866,2.076572,4.919274,-0.212459,0.327888,-0.054364,166.225405,188.495732,0
0.002083,-195.769107,56.039450,91.238472,4.715028,6.004536,0.799993,-6.769619,-5.708310,-0.505905,6.643798,-0.241683,0.332330,-0.024490,194.771844,188.420253,0
0.003125,-162.365443,5.023970,157.396653,6.015678,3.931173,2.891596,-6.738275,-3.727081,-2.621038,6.609536,-0.259948,0.345526,-0.054364,182.975514,188.420271,0
0.004167,-95.694225,-42.250296,199.871198,6.875238,1.431778,4.926051,-6.134913,-1.209192,-4.703940,6.042308,-0.248989,0.328933,-0.043161,137.724205,188.420350,0
0.005208,-46.762678,-114.955346,178.574835,6.456768,-1.163476,6.011855,-4.520722,1.382212,-5.880357,4.542391,-0.194194,0.330631,-0.035692,94.599176,188.495635,0
0.006250,1.465634,-185.162307,133.464835,5.574588,-3.545713,6.084242,-2.134698,3.859667,-6.061655,2.250640,-0.175929,0.311949,0.001650,46.158447,188.420314,0
0.007292,56.386022,-194.657414,73.404836,4.387038,-5.594223,5.207979,0.827264,5.907060,-5.135025,-0.676863,-0.073645,0.303064,-0.024490,-21.215221,188.344874,0
0.008333,138.834658,-168.042701,23.733018,3.436998,-6.946879,4.049787,3.307319,7.278115,-4.031127,-3.185607,-0.048074,0.305808,-0.054364,-113.911979,188.420269,0
0.009375,180.688485,-110.953668,-23.799709,2.453028,-6.623804,1.992473,5.074310,7.039191,-2.077146,-4.872062,-0.015197,0.332853,-0.058098,-162.081268,188.495698,0
0.010417,195.490448,-55.841795,-91.068799,1.129758,-5.817891,-0.525831,6.704172,6.223174,0.509359,-6.585165,0.006721,0.334747,-0.080503,-189.926487,188.419310,0
0.011458,162.449744,-4.755280,-157.238799,-0.193512,-3.808433,-2.655532,6.614059,4.223566,2.620464,-6.531869,0.043251,0.342521,-0.031958,-177.519418,188.416375,0
0.012500,95.733156,42.412432,-199.937889,-1.041762,-1.330339,-4.720466,6.006779,1.731408,4.650992,-6.036972,0.017680,0.337948,-0.017021,-132.516929,188.420269,0
0.013542,46.778924,115.081965,-178.665162,-0.645912,1.282666,-5.791031,4.439603,-0.848969,5.879783,-4.460917,-0.000585,0.329064,-0.024490,-90.398490,188.495716,0
0.014583,-1.143141,185.454676,-133.484253,0.281508,3.693305,-5.893897,2.037907,-3.271288,6.024821,-2.207235,-0.066339,0.316979,-0.031958,-43.281031,188.420327,0
0.015625,-56.324406,194.855068,-73.376981,1.446438,5.720514,-4.979535,-0.908383,-5.296626,5.170710,0.754530,-0.135746,0.302738,-0.046895,25.970098,188.344939,0
0.016667,-139.385537,168.110123,-23.764254,2.407788,7.069619,-3.855632,-3.411946,-6.722817,4.070841,3.251854,-0.175929,0.305481,-0.013287,118.723406,188.420365,0
0.017708,-180.933116,111.246036,23.579382,3.380448,6.810449,-1.786889,-5.171100,-6.465515,2.060457,4.915467,-0.212459,0.329260,-0.035692,165.863485,188.495825,0
0.018750,-195.825819,56.288075,91.203017,4.703718,5.993885,0.784754,-6.804880,-5.697283,-0.534106,6.659026,-0.212459,0.333636,-0.054364,195.020664,188.420368,0
0.019792,-162.762430,5.201559,157.148471,6.026988,3.948925,2.880166,-6.730440,-3.741784,-2.604922,6.647605,-0.241683,0.345264,-0.028224,182.229054,188.344956,0
0.020833,-95.762280,-42.084546,200.178471,6.829998,1.474381,4.929860,-6.138831,-1.242274,-4.687825,6.099412,-0.234377,0.339908,-0.039427,137.792065,188.420334,0
0.021875,-47.205035,-114.730400,178.633926,6.456768,-1.159926,6.049954,-4.536394,1.404266,-5.832011,4.565233,-0.197847,0.330566,-0.046895,95.571836,188.495752,0
0.022917,1.000592,-185.635879,133.216653,5.563278,-3.595416,6.141390,-2.185631,3.833937,-6.065683,2.262061,-0.135746,0.317828,-0.017021,47.312067,188.420338,0
0.023958,56.057089,-194.846843,73.168472,4.387038,-5.590673,5.246077,0.823346,5.929114,-5.199486,-0.676863,-0.106522,0.302803,-0.020755,-21.294391,188.344807,0
0.025000,139.027480,-168.066380,23.874836,3.403068,-6.989482,4.129794,3.295565,7.311197,-4.051271,-3.162766,-0.048074,0.308029,-0.031958,-114.172109,188.420439,0
0.026042,180.733855,-110.918150,-23.421527,2.464338,-6.673508,2.007713,5.117407,7.042867,-2.101319,-4.872062,0.010374,0.332134,-0.058098,-161.832448,188.495812,0
0.027083,195.479105,-55.936510,-90.785163,1.107138,-5.924399,-0.579169,6.743351,6.274635,0.509359,-6.638462,0.043251,0.333636,-0.043161,-189.485397,188.420329,0
0.028125,162.177524,-4.885512,-157.238799,-0.204822,-3.833285,-2.697441,6.676746,4.282378,2.640608,-6.577551,0.046904,0.353038,-0.065566,-177.508108,188.345003,0
0.029167,95.381538,42.282200,-200.233344,-0.973902,-1.369392,-4.697607,6.108645,1.771841,4.715453,-6.116917,0.046904,0.338536,-0.039427,-131.114489,188.420311,0
0.030208,46.835636,115.164840,-178.617889,-0.611982,1.296867,-5.901517,4.490537,-0.856320,5.956331,-4.514214,0.010374,0.330893,-0.031958,-89.697270,188.495740,0
0.031250,-1.029716,185.478354,-133.425162,0.247578,3.703956,-5.981523,2.045743,-3.326424,6.129571,-2.237690,-0.044421,0.319526,-0.020755,-43.190551,188.420414,0
0.032292,-56.245008,195.020818,-72.927890,1.457748,5.787969,-5.017633,-0.935808,-5.329708,5.206970,0.754530,-0.135746,0.301627,-0.069301,28.073758,188.269590,0
0.033333,-139.204057,168.441623,-23.433345,2.419098,7.129974,-3.893731,-3.443289,-6.737520,4.086956,3.270888,-0.164970,0.305220,-0.013287,119.458556,188.420294,0
0.034375,-181.216679,110.642233,23.295745,3.335208,6.831751,-1.760220,-5.245541,-6.557409,2.080601,5.025867,-0.186888,0.330436,-0.073035,166.508155,188.495712,0
0.035417,-196.064012,55.968414,90.706654,4.692408,6.086192,0.777134,-6.871485,-5.741392,-0.538135,6.704708,-0.238030,0.332395,-0.035692,194.624814,188.420428,0
0.036458,-162.127250,5.308113,157.514835,6.026988,3.973777,2.910645,-6.785291,-3.760163,-2.649240,6.697095,-0.234377,0.343435,-0.017021,182.364774,188.269608,0
0.037500,-95.660197,-41.788564,200.273016,6.818688,1.467280,4.956529,-6.197600,-1.220220,-4.728113,6.114639,-0.223418,0.334355,-0.005818,137.079535,188.420383,0
0.038542,-46.819390,-114.683043,178.503926,6.456768,-1.181227,6.122341,-4.555984,1.400590,-5.928703,4.591881,-0.186888,0.329913,-0.061832,94.135466,188.495707,0
0.039583,1.125359,-185.410932,133.263926,5.574588,-3.588316,6.190918,-2.154287,3.848640,-6.118058,2.281095,-0.157664,0.315607,-0.039427,46.271547,188.420367,0
0.040625,55.909637,-194.846843,72.920290,4.375728,-5.622625,5.253697,0.874279,5.914411,-5.183371,-0.684477,-0.113828,0.302411,-0.020755,-20.819371,188.269563,0
0.041667,138.551095,-168.125576,23.591200,3.403068,-6.957530,4.099315,3.307319,7.292818,-4.083501,-3.200835,-0.048074,0.305481,-0.031958,-113.640539,188.420443,0
0.042708,180.733855,-110.314347,-23.232436,2.464338,-6.691259,1.996283,5.117407,7.053894,-2.085204,-4.894903,-0.022503,0.329194,-0.054364,-162.194368,188.495778,0
0.043750,195.490448,-54.811778,-90.324254,1.163688,-5.874695,-0.617268,6.735515,6.237877,0.577849,-6.592779,0.024986,0.325797,-0.020755,-189.632427,188.495769,0
0.044792,161.905304,-4.838155,-157.049708,-0.170892,-3.804883,-2.716490,6.645403,4.238269,2.668810,-6.562324,0.050557,0.343827,-0.005818,-176.874748,188.269519,0
0.045833,95.063948,41.986218,-200.162434,-1.007832,-1.312588,-4.735705,6.034204,1.727732,4.711424,-6.036972,0.046904,0.338666,-0.005818,-131.725229,188.420414,0
0.046875,46.359251,114.584715,-178.594253,-0.600672,1.318169,-5.871038,4.408260,-0.845293,5.887841,-4.502793,-0.051727,0.325144,-0.017021,-89.889540,188.495772,0
0.047917,-1.063743,185.466515,-133.023344,0.247578,3.718157,-5.886277,2.022235,-3.297018,6.073167,-2.180587,-0.059033,0.316587,-0.043161,-43.382821,188.495756,0
0.048958,-55.666541,195.080015,-72.549708,1.446438,5.766667,-4.994774,-0.963234,-5.285599,5.154595,0.788792,-0.124787,0.298884,-0.024490,25.596868,188.269606,0
0.050000,-138.716329,168.145641,-23.397891,2.407788,7.119323,-3.863252,-3.404110,-6.678708,4.046668,3.301343,-0.150358,0.301039,-0.039427,118.350176,188.420408,0
0.051042,-180.989829,110.488322,23.083018,3.346518,6.803348,-1.718311,-5.210279,-6.483894,2.020169,4.949729,-0.197847,0.324295,-0.039427,165.773005,188.495671,0
0.052083,-195.678367,55.151503,90.363926,4.692408,5.986784,0.849521,-6.816634,-5.664201,-0.610654,6.685674,-0.259948,0.323184,-0.035692,194.590884,188.420408,0
0.053125,-162.195305,4.976613,156.829380,5.981748,3.888570,2.887786,-6.746111,-3.693999,-2.669384,6.605729,-0.212459,0.339777,-0.024490,181.720104,188.268937,0
0.054167,-94.820852,-41.610975,200.273016,6.852618,1.431778,4.933670,-6.111405,-1.139353,-4.691854,6.046115,-0.234377,0.338405,-0.028224,137.068225,188.420622,0
0.055208,-46.240923,-114.091079,178.645744,6.411528,-1.238032,6.023285,-4.454117,1.459402,-5.852156,4.496709,-0.164970,0.313712,-0.080503,94.972406,188.496127,0
0.056250,0.977907,-185.446450,132.838471,5.540658,-3.588316,6.065193,-2.115108,3.867019,-5.993164,2.197344,-0.143052,0.308160,-0.020755,47.402547,188.420799,0
0.057292,55.353854,-194.941557,72.719381,4.375728,-5.580022,5.188930,0.897787,5.892357,-5.102794,-0.714932,-0.099216,0.294376,-0.031958,-20.694961,188.270013,0
0.058333,138.346930,-167.841433,23.473018,3.425688,-6.946879,4.011689,3.338663,7.259736,-4.002925,-3.235097,-0.044421,0.298557,-0.050629,-113.798879,188.420710,0
0.059375,180.575060,-110.148597,-23.244254,2.509578,-6.598952,1.920086,5.070392,6.991406,-2.004628,-4.883483,-0.004238,0.323642,-0.028224,-161.662798,188.496234,0
0.060417,195.263598,-54.764420,-90.052436,1.141068,-5.814340,-0.617268,6.719844,6.179065,0.658426,-6.611813,0.043251,0.321355,-0.017021,-189.236577,188.420727,0
0.061458,161.859934,-4.494816,-156.683344,-0.159582,-3.744528,-2.689821,6.625813,4.230918,2.664781,-6.505220,0.032292,0.333440,-0.013287,-177.089638,188.345326,0
0.062500,94.394741,41.927022,-200.256980,-0.973902,-1.234481,-4.682368,6.018533,1.668920,4.703366,-5.987483,0.010374,0.331350,-0.043161,-130.515059,188.421012,0
0.063542,45.826154,114.418965,-178.594253,-0.645912,1.360772,-5.821510,4.353409,-0.841617,5.883812,-4.422848,-0.015197,0.298361,-0.017021,-89.109150,188.420822,0
0.064583,-1.267908,185.123176,-132.999708,0.258888,3.732358,-5.867228,2.014399,-3.333776,6.024821,-2.127290,-0.069992,0.304567,-0.031958,-43.122691,188.420784,0
0.065625,-55.496403,195.151050,-72.431527,1.480368,5.756016,-4.960486,-1.002413,-5.248842,5.114307,0.815440,-0.099216,0.293984,-0.046895,27.496948,188.269955,0
0.066667,-138.228602,168.287712,-23.208800,2.430408,7.051868,-3.806104,-3.427617,-6.671357,3.974149,3.289923,-0.172276,0.296793,-0.043161,118.983536,188.420777,0
0.067708,-180.865061,110.204179,23.071200,3.380448,6.767846,-1.691643,-5.167182,-6.458163,1.955708,4.961150,-0.230724,0.319918,-0.058098,166.055755,188.496082,0
0.068750,-195.655682,55.198860,89.903017,4.692408,5.937081,0.849521,-6.836224,-5.598038,-0.626769,6.681867,-0.190541,0.323119,-0.054364,194.319444,188.496190,0
0.069792,-161.968455,4.763505,156.628471,6.015678,3.892120,2.914455,-6.714768,-3.646215,-2.657297,6.632377,-0.241683,0.336641,-0.043161,182.172504,188.269948,0
0.070833,-94.854880,-41.551778,200.083925,6.829998,1.378523,4.918431,-6.076144,-1.098920,-4.720056,6.030888,-0.259948,0.309793,-0.058098,136.785475,188.420680,0
0.071875,-45.946018,-113.877971,178.693016,6.468078,-1.248683,6.019475,-4.446281,1.470430,-5.823954,4.481481,-0.183235,0.329586,-0.031958,93.716996,188.496206,0
0.072917,1.261469,-184.913682,133.086653,5.585898,-3.552813,6.065193,-2.083764,3.929506,-5.989136,2.185923,-0.146705,0.287256,-0.002084,46.305477,188.496241,0
0.073958,55.115662,-195.024432,72.719381,4.353108,-5.530318,5.108923,0.901705,5.870302,-5.070564,-0.745387,-0.091910,0.289803,-0.020755,-20.016361,188.269964,0
0.075000,137.779805,-168.007183,23.236654,3.414378,-6.872323,4.015499,3.283812,7.226654,-3.974723,-3.200835,-0.029809,0.298100,-0.031958,-113.414339,188.496165,0
0.076042,180.302840,-110.314347,-23.185163,2.486958,-6.563449,1.984854,5.027294,6.991406,-2.000599,-4.853028,0.003068,0.321225,-0.031958,-161.685418,188.420746,0
0.077083,195.274940,-54.740742,-89.662436,1.152378,-5.782388,-0.586789,6.664993,6.105550,0.622166,-6.547096,0.032292,0.324752,-0.035692,-189.700287,188.496225,0
0.078125,162.234236,-4.151476,-156.033344,-0.114342,-3.744528,-2.644103,6.531783,4.146376,2.620464,-6.463345,0.035945,0.348727,-0.039427,-177.044398,188.269935,0
0.079167,94.655618,42.033575,-199.772434,-1.007832,-1.284185,-4.651889,5.971517,1.668920,4.659049,-5.907538,0.017680,0.308944,-0.031958,-131.646059,188.496092,0
0.080208,45.587961,113.684929,-178.925162,-0.600672,1.346571,-5.756743,4.361245,-0.933511,5.779063,-4.407621,-0.015197,0.337948,-0.024490,-89.742510,188.496210,0
0.081250,-1.301936,184.720640,-132.999708,0.236268,3.686204,-5.844369,1.998728,-3.278640,5.964389,-2.089221,-0.059033,0.316521,-0.031958,-43.235791,188.496206,0
0.082292,-55.212841,195.186568,-72.691527,1.457748,5.663709,-4.884289,-0.959316,-5.223111,5.069989,0.754530,-0.106522,0.300059,-0.058098,24.873028,188.270016,0
0.083333,-137.661477,167.908855,-23.433345,2.430408,6.991513,-3.741337,-3.388438,-6.542706,3.925803,3.278502,-0.197847,0.296140,-0.039427,117.841226,188.496152,0
0.084375,-180.490759,110.997411,23.153927,3.391758,6.668438,-1.767839,-5.061398,-6.362594,1.975852,4.888819,-0.201500,0.320441,-0.039427,165.049165,188.496123,0
0.085417,-195.304064,55.151503,89.524835,4.715028,5.912229,0.822852,-6.726522,-5.553929,-0.606625,6.586695,-0.248989,0.322988,-0.024490,194.432544,188.496091,0
0.086458,-162.898540,4.420166,155.576653,6.004368,3.867268,2.868737,-6.569804,-3.616809,-2.560605,6.521977,-0.227071,0.320702,-0.028224,182.398704,188.269928,0
0.087500,-94.945620,-41.468903,199.599380,6.818688,1.399825,4.830805,-5.997785,-1.128326,-4.579047,5.962364,-0.230724,0.321355,-0.039427,137.520625,188.496232,0
0.088542,-46.002730,-113.143936,179.248471,6.422838,-1.156375,5.928039,-4.395348,1.422645,-5.747406,4.412957,-0.201500,0.322009,-0.020755,95.311706,188.496129,0
0.089583,1.238784,-184.511147,133.275744,5.597208,-3.510210,5.988996,-2.091600,3.852316,-5.892444,2.178309,-0.157664,0.287321,-0.035692,47.617437,188.496167,0
0.090625,55.127004,-195.095468,72.991199,4.364418,-5.477064,5.063205,0.850772,5.804139,-5.034304,-0.699704,-0.080951,0.296858,-0.020755,-19.914571,188.269991,0
0.091667,137.337448,-167.616487,23.520291,3.414378,-6.801318,3.946922,3.244632,7.131085,-3.938464,-3.174186,-0.051727,0.296467,-0.046895,-113.380409,188.496118,0
0.092708,180.144045,-111.119418,-23.208800,2.509578,-6.453390,1.942945,4.941100,6.895837,-1.960310,-4.742628,0.006721,0.319526,-0.039427,-160.701448,188.496163,0
0.093750,194.889295,-54.835456,-89.378799,1.186308,-5.686530,-0.602028,6.551372,6.050414,0.561734,-6.493800,0.003068,0.323380,-0.035692,-189.236577,188.496214,0
0.094792,162.858074,-4.021244,-155.501526,-0.136962,-3.701925,-2.647913,6.422080,4.142700,2.604348,-6.402434,0.032292,0.329390,-0.046895,-177.926578,188.345361,0
0.095833,94.905153,41.927022,-199.382434,-1.007832,-1.255783,-4.594741,5.885323,1.668920,4.574444,-5.842821,0.024986,0.320963,-0.046895,-131.725229,188.496103,0
0.096875,45.837496,113.365268,-179.279707,-0.611982,1.275565,-5.707215,4.325983,-0.830590,5.771005,-4.316255,-0.026156,0.314758,-0.028224,-89.787750,188.496358,0
0.097917,-1.551471,184.069480,-133.661526,0.281508,3.622299,-5.745313,1.986974,-3.245558,5.879783,-2.085414,-0.059033,0.315672,-0.050629,-43.314961,188.496219,0
0.098958,-55.167471,195.328640,-73.211527,1.446438,5.589153,-4.815712,-0.935808,-5.175327,4.977327,0.792599,-0.121134,0.284120,-0.005818,26.671318,188.269957,0
0.100000,-137.117037,167.944373,-23.787891,2.441718,6.909857,-3.733717,-3.364930,-6.520651,3.889544,3.244240,-0.183235,0.294703,-0.031958,118.372796,188.496239,0
0.101042,-180.297936,111.707769,23.130291,3.380448,6.625835,-1.737361,-5.049644,-6.303782,2.004054,4.835522,-0.208806,0.320310,-0.013287,164.947375,188.495986,0
0.102083,-195.213324,55.542200,89.300290,4.703718,5.827022,0.811423,-6.659917,-5.495117,-0.550222,6.480101,-0.216112,0.325014,-0.028224,194.330754,188.496177,0
0.103125,-163.397610,4.668791,155.281199,5.970438,3.885020,2.830638,-6.538461,-3.583727,-2.540461,6.449646,-0.197847,0.326320,-0.054364,183.416604,188.345314,0
0.104167,-95.796307,-41.468903,198.961198,6.829998,1.396275,4.796516,-6.021293,-1.143029,-4.534730,5.939522,-0.227071,0.328541,-0.050629,138.278395,188.496047,0
0.105208,-46.274950,-112.954507,179.378471,6.445458,-1.142174,5.867081,-4.383594,1.407942,-5.747406,4.393923,-0.186888,0.319461,-0.065566,94.599176,188.496147,0
0.106250,1.329524,-183.646879,134.055744,5.642448,-3.460506,5.935658,-2.040667,3.775125,-5.852156,2.147854,-0.157664,0.316848,-0.046895,46.633467,188.496129,0
0.107292,55.070292,-195.095468,73.853927,4.409658,-5.370556,5.044156,0.819428,5.745327,-4.981929,-0.692090,-0.069992,0.296336,-0.028224,-19.349071,188.345346,0
0.108333,136.588843,-167.794076,24.134836,3.482238,-6.730312,3.946922,3.244632,7.039191,-3.874002,-3.143731,-0.044421,0.298034,-0.050629,-112.566089,188.496073,0
0.109375,179.883167,-112.232311,-23.161527,2.498268,-6.421438,1.950565,4.870577,6.822322,-1.988512,-4.693138,-0.011544,0.320963,-0.046895,-160.384768,188.496150,0
0.110417,194.673788,-55.581331,-89.047890,1.163688,-5.665229,-0.567740,6.504357,5.969548,0.569792,-6.398627,0.021333,0.325536,-0.031958,-189.643737,188.496158,0
0.111458,163.878899,-4.376423,-154.863344,-0.148272,-3.669972,-2.533617,6.394655,4.127997,2.527801,-6.295841,0.006721,0.336249,-0.020755,-178.514698,188.420783,0
0.112500,96.243569,41.927022,-198.649707,-0.996522,-1.252233,-4.522354,5.846143,1.683623,4.497896,-5.785717,0.003068,0.325536,-0.061832,-133.376489,188.496217,0
0.113542,46.472676,112.820661,-179.716980,-0.668532,1.232962,-5.577680,4.228035,-0.812211,5.650140,-4.350517,-0.029809,0.314104,-0.061832,-90.997920,188.496174,0
0.114583,-1.313278,183.181533,-134.299708,0.236268,3.565495,-5.669116,1.975220,-3.157340,5.819351,-2.077800,-0.033462,0.305743,-0.024490,-43.461991,188.497128,0
0.115625,-55.190156,195.328640,-74.239708,1.446438,5.493296,-4.785233,-0.892711,-5.072406,4.989413,0.724075,-0.124787,0.287386,-0.039427,24.058708,188.424637,0
0.116667,-136.527227,167.778623,-24.402436,2.419098,6.824650,-3.695619,-3.313997,-6.406703,3.889544,3.149068,-0.183235,0.299994,-0.017021,117.230486,188.496246,0
0.117708,-180.331964,113.270554,23.295745,3.369138,6.519326,-1.744980,-4.943860,-6.292755,2.024198,4.732736,-0.227071,0.322988,-0.039427,164.166985,188.496134,0
0.118750,-194.861707,56.489342,88.981199,4.681098,5.752466,0.769514,-6.565886,-5.410575,-0.526049,6.403964,-0.234377,0.323446,-0.024490,194.375994,188.496074,0
0.119792,-164.826765,5.059488,154.643017,5.981748,3.842416,2.731582,-6.444430,-3.587403,-2.492115,6.373508,-0.238030,0.333049,-0.020755,183.993414,188.496176,0
0.120833,-97.112037,-41.468903,198.216653,6.807378,1.428227,4.697460,-5.915508,-1.161408,-4.482355,5.844350,-0.230724,0.328410,-0.020755,139.002235,188.496051,0
0.121875,-47.125638,-112.469096,180.123016,6.502008,-1.056968,5.775645,-4.309154,1.360157,-5.646686,4.416764,-0.230724,0.311949,-0.043161,96.193886,188.496045,0
0.122917,1.068647,-182.829968,134.812108,5.631138,-3.435654,5.878511,-2.044585,3.745719,-5.759493,2.140240,-0.150358,0.310119,-0.035692,47.945427,188.496071,0
0.123958,54.888812,-195.367771,74.787563,4.443588,-5.338603,5.021297,0.788085,5.649757,-4.949699,-0.631180,-0.084604,0.295095,-0.031958,-18.975841,188.496149,0
0.125000,136.157828,-167.569130,24.784836,3.448308,-6.694809,3.908823,3.170191,6.928919,-3.890118,-3.006683,-0.040768,0.298622,-0.058098,-112.452989,188.496139,0
0.126042,180.087332,-113.700382,-23.315163,2.498268,-6.385935,1.973424,4.815726,6.829673,-2.040887,-4.628421,-0.022503,0.323772,-0.054364,-159.898438,188.496078,0
0.127083,194.208745,-56.504795,-88.858799,1.141068,-5.636826,-0.544881,6.445588,5.976899,0.509359,-6.295841,0.014027,0.325405,-0.005818,-189.157407,188.496045,0
