1-Time,2-VGERA,3-VGERB,4-VGERC,5-VN,6-IGERAN,7-IGERBN,8-IGERCN,9-IGERAT,10-IGERBT,11-IGERCT,12-IN,13-IFD,14-IFAULT,15-VFAULT,16-Speed (rad/s),17-Active Power,18-Reactive Power,19-FAULT 
0.000000,154.930378,-170.538955,-5.548299,0.190417,-0.757528,4.848745,-3.616115,0.795906,-4.850326,3.533151,0.077375,0.576438,0.018727,107.151944,188.571113,982.626840,1007.370115,0
0.001042,170.264376,-123.570659,-78.774273,-1.194477,-2.540892,4.877362,-1.806768,2.729040,-4.876208,1.648269,0.059144,0.571064,0.003860,119.310935,188.646455,982.891714,1006.841570,0
0.002083,188.468556,-42.530090,-130.479636,-2.230333,-4.107757,4.509430,0.021910,4.267192,-4.483656,-0.149032,-0.021072,0.550738,0.003860,131.143434,188.721761,982.160139,1006.227535,0
0.003125,154.003784,26.483589,-169.838901,-3.029743,-4.735236,3.397458,1.653416,4.966006,-3.297371,-1.896832,-0.042949,0.552254,0.000144,114.706280,188.721831,982.757359,1005.676037,0
0.004167,104.431011,96.025794,-179.487328,-3.232411,-4.863668,1.357480,3.640605,5.060954,-1.308727,-3.694133,-0.075764,0.559075,0.018727,81.978330,188.571091,981.727116,1005.982252,0
0.005208,24.777838,143.534360,-176.984083,-3.198633,-4.170138,-0.351359,4.529814,4.308969,0.498739,-4.615631,-0.119518,0.579056,0.011294,28.670163,188.646442,981.530694,1006.574810,0
0.006250,-52.118154,169.537812,-149.387637,-2.669446,-2.940864,-2.276870,4.943489,2.987298,2.353656,-4.920258,-0.115872,0.584844,-0.014723,-30.762533,188.721851,981.721496,1007.079559,0
0.007292,-117.284823,174.776087,-77.862897,-1.216996,-1.010722,-3.883506,4.556877,1.042770,3.971317,-4.455702,-0.093995,0.581054,-0.011006,-73.048800,188.646402,981.468466,1006.087967,0
0.008333,-155.275172,170.136808,5.448964,0.336788,0.827684,-4.799247,3.571014,-0.742246,4.821128,-3.484702,-0.068472,0.575611,0.007577,-105.821783,188.571017,981.173619,1005.559774,0
0.009375,-170.496172,123.544353,78.796454,1.766719,2.596370,-4.831952,1.796462,-2.660188,4.795245,-1.592205,-0.032010,0.572993,0.022444,-120.063564,188.721833,981.126938,1005.446005,0
0.010417,-188.519553,42.844389,130.902822,2.791315,4.210938,-4.455844,-0.055412,-4.186946,4.411320,0.167018,0.008098,0.568308,0.003860,-128.653665,188.721833,980.917049,1004.603430,0
0.011458,-153.806182,-26.415936,170.310694,3.590725,4.805393,-3.343872,-1.717847,-4.840186,3.229350,1.903394,0.055498,0.579607,0.022444,-112.914527,188.721826,980.418204,1004.674502,0
0.012500,-103.950912,-96.604116,179.691784,3.759615,4.963180,-1.312070,-3.708902,-4.942729,1.201882,3.742582,0.073729,0.523454,0.007577,-81.762743,188.571082,979.611161,1004.001493,0
0.013542,-23.529343,-143.842547,176.933355,3.782133,4.144888,0.470355,-4.493726,-4.186946,-0.579702,4.610770,0.062790,0.557077,0.007577,-26.292978,188.721880,979.203375,1003.914092,0
0.014583,53.886445,-169.540629,149.349060,3.219168,2.900937,2.318191,-5.000188,-2.872871,-2.369913,4.919205,0.062790,0.563485,-0.025873,30.786728,188.797242,978.652967,1004.389837,0
0.015625,118.126521,-175.178234,77.119523,1.789237,1.007489,3.941180,-4.563316,-1.008099,-4.056593,4.504150,0.048206,0.581054,-0.007290,76.270360,188.721820,978.169489,1004.973040,0
0.016667,155.212876,-170.069154,-5.742726,0.201676,-0.786884,4.832393,-3.658642,0.788310,-4.833070,3.548382,0.073729,0.584637,0.022444,107.298302,188.570988,977.755342,1005.192269,0
0.017708,170.784173,-123.324014,-78.652756,-1.216996,-2.584925,4.893715,-1.841563,2.751827,-4.906404,1.602575,0.026329,0.570375,0.011294,119.716234,188.721882,978.458379,1005.036881,0
0.018750,188.186058,-43.352241,-130.990006,-2.252852,-4.184816,4.476725,0.064438,4.286181,-4.444832,-0.160456,-0.017425,0.576782,-0.011006,129.713627,188.797181,978.806594,1004.545224,0
0.019792,153.506587,25.955064,-170.859641,-3.029743,-4.757253,3.393370,1.715274,4.928027,-3.206782,-1.893024,-0.057533,0.578780,-0.014723,112.916206,188.646462,978.614965,1003.387428,0
0.020833,104.668310,96.800965,-179.183536,-3.187373,-4.904032,1.349304,3.679266,5.034369,-1.304414,-3.751251,-0.072118,0.585395,-0.014723,81.156472,188.646504,979.095280,1003.225866,0
0.021875,23.738245,144.239061,-176.801808,-3.187373,-4.104087,-0.461739,4.537546,4.252000,0.563445,-4.611823,-0.057533,0.580847,-0.018440,26.452273,188.721826,979.238529,1002.467122,0
0.022917,-54.445939,168.762642,-149.035239,-2.658186,-2.819772,-2.321839,4.885497,2.922733,2.392480,-4.924066,-0.104934,0.572579,0.000144,-33.329431,188.797284,979.237758,1002.040598,0
0.023958,-117.974119,175.985823,-75.043710,-1.183218,-0.926324,-3.940740,4.514349,0.940226,4.027396,-4.474741,-0.072118,0.573613,-0.018440,-74.095824,188.570980,980.140097,1002.172826,0
0.025000,-154.936175,169.678752,7.381079,0.426862,0.835023,-4.844217,3.543951,-0.814406,4.829755,-3.526588,-0.064826,0.576576,-0.011006,-106.992649,188.646447,980.389774,1002.578195,0
0.026042,-171.332366,121.829581,79.367583,1.811756,2.669760,-4.840129,1.730738,-2.701965,4.782304,-1.561742,-0.061180,0.569961,-0.022156,-119.894689,188.721797,980.463724,1002.506125,0
0.027083,-188.146655,42.221903,131.340282,2.825093,4.181583,-4.459932,-0.144333,-4.255308,4.402693,0.208905,0.048206,0.574922,-0.033307,-128.405982,188.797295,981.298118,1002.417194,0
0.028125,-153.241186,-26.145801,171.331434,3.590725,4.827410,-3.327520,-1.814500,-4.885761,3.156016,2.029053,0.048206,0.581054,-0.007290,-113.556252,188.571047,983.209671,1001.502415,0
0.029167,-104.911405,-97.015192,178.901925,3.748356,4.886121,-1.307982,-3.751429,-4.976910,1.163058,3.750198,0.048206,0.581399,-0.037023,-83.575333,188.721875,983.809728,1001.359103,0
0.030208,-24.150839,-144.770403,176.872596,3.737096,4.141218,0.523501,-4.594245,-4.183148,-0.661663,4.614578,0.077375,0.581812,0.018727,-25.932711,188.721878,984.772053,1000.927593,0
0.031250,54.474041,-168.788948,149.203240,3.230428,2.856903,2.383601,-4.965393,-2.808306,-2.443247,4.869703,0.117483,0.580021,-0.014723,32.576802,188.797193,985.086676,999.509627,0
0.032292,118.250820,-176.787300,74.786402,1.744200,0.959785,3.990237,-4.536253,-0.913151,-4.086790,4.454648,0.066437,0.575887,-0.022156,75.110752,188.571096,985.600778,998.771269,0
0.033333,155.145076,-169.411434,-7.747752,0.167898,-0.845595,4.816040,-3.565855,0.868066,-4.828757,3.487456,0.059144,0.572855,0.011294,108.063868,188.721882,985.731108,997.926837,0
0.034375,171.699467,-120.928032,-79.746407,-1.239515,-2.647306,4.803776,-1.686918,2.850573,-4.833070,1.526418,0.070083,0.561349,-0.033307,120.448025,188.721918,985.995680,996.911297,0
0.035417,187.835760,-40.744848,-131.269495,-2.241592,-4.166468,4.505342,0.106965,4.301373,-4.431891,-0.206150,0.000805,0.558868,0.018727,130.681842,188.797286,985.712603,996.854469,0
0.036458,153.156289,27.423190,-171.224191,-2.995965,-4.779270,3.311607,1.777132,4.947017,-3.189527,-1.972989,-0.053887,0.566516,-0.007290,114.751313,188.571064,986.446587,996.867077,0
0.037500,104.035514,97.611371,-178.648863,-3.187373,-4.885685,1.304334,3.675400,5.060954,-1.218138,-3.770290,-0.072118,0.578091,0.007577,81.314089,188.721904,986.939465,996.443392,0
0.038542,23.726945,144.838056,-176.704595,-3.187373,-4.111426,-0.510796,4.560743,4.240606,0.615210,-4.634670,-0.083057,0.583259,-0.051890,27.139031,188.721813,987.634839,996.227892,0
0.039583,-54.242540,168.633447,-148.840812,-2.613149,-2.801424,-2.362720,4.951221,2.892350,2.448559,-4.863141,-0.072118,0.584844,-0.007290,-32.428765,188.797139,987.789196,995.121140,0
0.040625,-118.143618,176.655288,-74.448278,-1.149440,-0.889629,-3.973445,4.518215,0.940226,4.070533,-4.413815,-0.104934,0.577471,-0.014723,-73.352775,188.571011,987.991822,994.777732,0
0.041667,-155.501171,169.021032,7.830691,0.438121,0.893735,-4.803335,3.501424,-0.837193,4.773676,-3.366659,-0.057533,0.574577,-0.022156,-106.744966,188.721842,987.397249,992.651381,0
0.042708,-172.044262,120.467160,80.181745,1.777978,2.750488,-4.840129,1.591558,-2.808306,4.777990,-1.485585,-0.061180,0.561349,-0.022156,-121.166879,188.721867,988.559461,992.078673,0
0.043750,-187.841557,39.884646,131.741288,2.847611,4.188921,-4.378170,-0.210057,-4.243915,4.350928,0.258407,-0.013779,0.575887,-0.003573,-127.944391,188.797255,987.982400,991.489197,0
0.044792,-152.687490,-28.894133,171.380041,3.647022,4.801723,-3.200788,-1.884090,-4.862973,3.117192,2.010014,0.029975,0.557973,0.011294,-113.173469,188.571140,986.931220,991.633037,0
0.045833,-102.888719,-98.729963,178.792560,3.782133,4.915477,-1.238484,-3.797823,-4.969315,1.137175,3.792084,0.091960,0.560315,-0.029590,-81.154794,188.797340,986.738757,991.915169,0
0.046875,-22.037753,-145.240203,176.884748,3.748356,4.104524,0.548030,-4.586513,-4.194542,-0.674604,4.667887,0.088314,0.570788,-0.018440,-25.155887,188.721844,986.924125,992.713638,0
0.047917,55.626634,-168.612773,148.960206,3.241687,2.787183,2.432659,-5.011787,-2.808306,-2.538149,4.900166,0.091960,0.582777,-0.014723,31.991369,188.797244,987.928841,992.948387,0
0.048958,118.589818,-177.186630,74.239577,1.721681,0.886396,4.051559,-4.532387,-0.784023,-4.142869,4.466072,0.070083,0.580227,0.029877,76.416718,188.571127,989.454445,992.206151,0
0.050000,156.071670,-168.601028,-7.273837,0.179157,-0.915315,4.885538,-3.561989,0.913641,-4.876208,3.426531,0.084667,0.581674,0.011294,108.176452,188.721902,990.294021,991.603537,0
0.051042,172.965058,-120.352527,-79.880075,-1.239515,-2.702348,4.873274,-1.632792,2.907542,-4.867581,1.503571,0.015390,0.567756,0.015011,121.089750,188.797268,991.328817,991.972876,0
0.052083,187.677561,-40.451223,-131.804168,-2.252852,-4.232519,4.435844,0.215217,4.358342,-4.362870,-0.328001,-0.002841,0.571684,0.000144,128.993094,188.797251,992.678459,990.533199,0
0.053125,152.602593,28.809101,-171.771016,-3.063521,-4.830643,3.233933,1.881517,4.996390,-3.137762,-2.110071,-0.039302,0.569892,-0.011006,113.107598,188.646413,994.358264,990.130637,0
0.054167,102.995921,99.478827,-178.357222,-3.164855,-4.837982,1.210307,3.799116,5.030571,-1.144804,-3.842639,-0.050241,0.551289,-0.025873,79.963090,188.721809,994.922299,989.664743,0
0.055208,20.732464,145.624972,-176.923325,-3.209892,-4.063723,-0.649793,4.630333,4.198830,0.701486,-4.695596,-0.115872,0.585946,-0.014723,24.695974,188.797249,995.623054,989.652010,0
0.056250,-57.044922,167.963981,-148.549172,-2.635668,-2.731704,-2.469012,4.951221,2.827786,2.478755,-4.927874,-0.101287,0.565552,-0.014723,-34.196322,188.721819,996.006458,989.940885,0
0.057292,-118.426116,178.182140,-72.163763,-1.115662,-0.819909,-4.038855,4.483420,0.841481,4.117985,-4.459509,-0.104934,0.578987,-0.025873,-74.129599,188.646312,997.183519,990.280008,0
0.058333,-155.806269,168.104921,8.195241,0.404343,0.956116,-4.868746,3.439566,-0.882768,4.829755,-3.378082,-0.072118,0.577954,-0.022156,-108.163514,188.721790,997.868421,990.581341,0
0.059375,-173.773150,119.480579,79.792891,1.777978,2.831217,-4.836041,1.568361,-2.899456,4.825441,-1.398005,-0.039302,0.572235,-0.003573,-121.392046,188.797306,999.694708,990.298969,0
0.060417,-187.434760,40.507132,132.361023,2.858871,4.280658,-4.427227,-0.306711,-4.289490,4.294849,0.326948,0.000805,0.574095,-0.011006,-127.910616,188.721886,1000.694054,989.258460,0
0.061458,-152.630990,-28.506548,172.522298,3.613244,4.845757,-3.168083,-1.992342,-4.927538,3.035230,2.128057,0.037267,0.584223,-0.025873,-113.894002,188.721791,1002.928816,988.465066,0
0.062500,-103.137317,-99.810504,178.124218,3.759615,4.908138,-1.177162,-3.786224,-4.908548,1.033645,3.860625,0.055498,0.574991,0.041027,-82.021685,188.721974,1003.823439,986.996631,0
0.063542,-20.817361,-146.097589,177.249298,3.748356,4.049482,0.691114,-4.671567,-4.118584,-0.825586,4.698350,0.128422,0.576162,-0.007290,-23.444622,188.797297,1005.252294,985.724428,0
0.064583,57.717120,-167.696662,148.352623,3.174131,2.713793,2.502157,-4.930598,-2.747540,-2.546777,4.854472,0.102898,0.543641,-0.018440,34.276809,188.646435,1004.450430,984.951408,0
0.065625,118.872316,-179.382947,70.885716,1.620348,0.813006,4.092441,-4.493726,-0.746044,-4.237771,4.469880,0.077375,0.576162,-0.011006,75.459760,188.722099,1005.425786,985.748893,0
0.066667,155.823072,-167.884582,-9.157346,0.167898,-0.929993,4.877362,-3.496265,0.982003,-4.893463,3.418915,0.062790,0.575955,-0.007290,109.189701,188.721900,1005.671383,985.668288,0
0.067708,174.095051,-119.013596,-80.123108,-1.205737,-2.772068,4.885538,-1.621194,2.975904,-4.906404,1.431222,0.022683,0.569272,-0.018440,121.742733,188.797324,1006.830986,985.560041,0
0.068750,187.078665,-39.582092,-132.241628,-2.264111,-4.269213,4.423579,0.199752,4.339352,-4.384439,-0.286115,-0.046595,0.570099,0.011294,130.254026,188.646562,1005.942209,986.266538,0
0.069792,152.636493,28.797356,-172.585178,-3.052262,-4.852660,3.221668,1.943375,5.030571,-3.120507,-2.167189,-0.013779,0.582363,0.003860,114.987738,188.721853,1007.039571,986.282681,0
0.070833,103.414018,99.725472,-177.883307,-3.142336,-4.915041,1.185778,3.787517,5.045762,-1.140491,-3.857870,-0.083057,0.580434,0.026161,80.165740,188.721811,1007.334550,986.345368,0
0.071875,21.659058,146.094772,-177.032690,-3.198633,-4.104087,-0.649793,4.657396,4.191234,0.761878,-4.745098,-0.119518,0.587944,0.015011,24.752266,188.797271,1008.715480,986.053961,0
0.072917,-57.237020,167.623376,-147.941588,-2.635668,-2.746382,-2.477188,4.916426,2.782211,2.500324,-4.897411,-0.090349,0.582570,0.003860,-34.353938,188.646406,1008.562223,985.192163,0
0.073958,-118.821613,179.098251,-70.280254,-1.070625,-0.775875,-4.055207,4.487286,0.773119,4.152495,-4.444278,-0.083057,0.579745,0.011294,-73.589200,188.797206,1009.061459,984.998661,0
0.075000,-155.907968,167.670356,10.139509,0.449381,0.989141,-4.856481,3.435700,-0.909354,4.877207,-3.355235,-0.057533,0.572579,0.041027,-107.814506,188.721824,1009.282253,985.305603,0
0.076042,-173.976549,117.965473,81.080968,1.823015,2.864242,-4.836041,1.552896,-2.933637,4.864265,-1.371350,-0.021072,0.567894,0.000144,-122.281454,188.797213,1009.510661,985.826075,0
0.077083,-187.073162,37.958464,132.579753,2.881389,4.313684,-4.365905,-0.275782,-4.304681,4.312104,0.323140,-0.028364,0.556250,0.015011,-127.302666,188.646590,1008.922316,986.520517,0
0.078125,-152.156393,-30.315279,172.753180,3.613244,4.886121,-3.180347,-2.015538,-4.995900,3.026603,2.188982,0.077375,0.585464,-0.025873,-113.657577,188.797268,1009.789411,987.137429,0
0.079167,-102.549721,-100.526950,178.014853,3.737096,4.966850,-1.144457,-3.863547,-4.969315,1.042273,3.898703,0.095606,0.576644,0.003860,-80.524327,188.721896,1010.284972,988.080945,0
0.080208,-20.873861,-146.520409,176.969810,3.770874,4.089846,0.695203,-4.729559,-4.129978,-0.821272,4.763083,0.121129,0.586153,0.000144,-23.872438,188.797233,1010.920761,988.636110,0
0.081250,57.299023,-167.872837,148.158196,3.196650,2.757827,2.551215,-4.992456,-2.736146,-2.589915,4.877319,0.099252,0.588082,-0.018440,33.466209,188.571002,1011.666525,988.517035,0
0.082292,119.188714,-179.476907,70.630531,1.620348,0.768973,4.153763,-4.524655,-0.708065,-4.229144,4.435609,0.095606,0.583603,0.000144,76.844534,188.797249,1011.622156,987.925671,0
0.083333,156.523667,-167.297332,-9.400379,0.122861,-0.992374,4.930508,-3.500131,1.042770,-4.971111,3.361798,0.088314,0.577333,0.007577,108.795659,188.797231,1012.832262,987.581979,0
0.084375,174.773047,-117.745134,-80.973725,-1.273292,-2.852797,4.881450,-1.532273,3.063256,-4.893463,1.396951,0.000805,0.577265,-0.014723,122.159291,188.797262,1013.564090,987.445010,0
0.085417,186.875267,-37.350540,-132.776302,-2.252852,-4.254535,4.386786,0.238413,4.400119,-4.362870,-0.362272,-0.017425,0.535511,0.000144,128.261303,188.646491,1014.192434,987.255789,0
0.086458,152.048897,31.428239,-172.670240,-3.018484,-4.904032,3.176699,2.082556,5.034369,-3.060115,-2.231922,-0.017425,0.589804,-0.011006,113.389056,188.797331,1014.379323,986.972444,0
0.087500,101.696429,101.393264,-177.591667,-3.164855,-4.852660,1.148985,3.841643,5.049560,-1.036960,-3.903565,-0.064826,0.543435,-0.011006,79.332624,188.797322,1014.830315,986.568633,0
0.088542,19.105275,146.963903,-177.105600,-3.153596,-4.052714,-0.707027,4.711522,4.164648,0.826585,-4.794599,-0.112226,0.596557,0.000144,23.626434,188.797260,1015.328149,986.794585,0
0.089583,-58.547812,167.564651,-147.759313,-2.568112,-2.695010,-2.550775,4.989883,2.744232,2.595227,-4.943105,-0.079410,0.582432,0.003860,-34.781755,188.646395,1016.594878,986.830392,0
0.090625,-118.957212,180.272752,-69.478244,-1.093144,-0.691477,-4.149234,4.514349,0.727544,4.251711,-4.425239,-0.108580,0.582432,-0.003573,-74.399799,188.721925,1018.039686,986.741640,0
0.091667,-156.800662,166.519345,9.361802,0.426862,1.051522,-4.913715,3.439566,-1.015695,4.864265,-3.313349,-0.079410,0.580572,0.007577,-109.019147,188.797298,1018.865115,985.558842,0
0.092708,-175.897536,117.225537,80.813632,1.789237,2.977995,-4.872834,1.471708,-3.070362,4.855638,-1.306616,-0.017425,0.566172,0.015011,-122.303970,188.721819,1020.850125,985.027627,0
0.093750,-186.474266,37.899739,133.187337,2.870130,4.372395,-4.325024,-0.395631,-4.380639,4.256025,0.403105,0.011744,0.572924,-0.003573,-127.449025,188.721987,1022.068666,984.069197,0
0.094792,-152.133793,-31.313605,173.190640,3.647022,4.941163,-3.049527,-2.170184,-5.018687,2.923073,2.322257,0.070083,0.575955,-0.022156,-114.119168,188.721809,1023.795610,982.840708,0
0.095833,-101.272829,-102.241721,177.492332,3.703318,4.930155,-1.042254,-3.937003,-4.961719,0.964625,3.944397,0.084667,0.525383,0.000144,-80.828302,188.797387,1024.111441,982.519217,0
0.096875,-17.901980,-147.225110,177.698910,3.714578,4.012787,0.809670,-4.741158,-4.088201,-0.929116,4.816393,0.099252,0.592147,-0.037023,-21.857198,188.721791,1025.115674,982.387640,0
0.097917,60.067505,-167.179882,147.416944,3.117835,2.677099,2.612537,-4.992456,-2.644996,-2.663248,4.934436,0.124775,0.544330,0.018727,35.053633,188.721904,1025.880419,982.227783,0
0.098958,119.222614,-181.450069,68.236651,1.642866,0.677236,4.239613,-4.540119,-0.620713,-4.336988,4.443225,0.106545,0.583190,-0.011006,75.718702,188.721931,1027.618187,982.407477,0
0.100000,156.828765,-166.228536,-9.740626,0.156639,-1.014391,4.942772,-3.453738,1.088345,-4.932287,3.319911,0.055498,0.578849,0.007577,110.214208,188.797161,1027.330656,981.519918,0
0.101042,176.524535,-117.228354,-80.621327,-1.205737,-2.944534,4.942772,-1.493611,3.097437,-4.945228,1.320794,0.026329,0.569892,0.003860,122.913598,188.646431,1028.638531,981.499750,0
0.102083,186.242471,-38.196181,-133.432492,-2.252852,-4.335264,4.399051,0.335066,4.449491,-4.324047,-0.427005,0.008098,0.575198,-0.011006,129.916276,188.721766,1029.710439,980.639696,0
0.103125,152.546093,30.641323,-173.447947,-3.074780,-4.922380,3.090848,2.125083,5.087539,-2.982467,-2.315694,-0.101287,0.583879,-0.003573,115.336746,188.721817,1031.672750,979.806170,0
0.104167,101.809429,102.027494,-177.214965,-3.119818,-4.896693,1.104016,3.911233,4.996390,-1.024019,-3.960682,-0.101287,0.577471,-0.033307,78.578316,188.797210,1032.018833,979.254541,0
0.105208,18.438580,147.234038,-177.494454,-3.187373,-4.027028,-0.764261,4.742451,4.172244,0.891291,-4.802215,-0.079410,0.572442,0.026161,22.500601,188.646464,1032.673747,979.182514,0
0.106250,-60.107201,167.024380,-146.762876,-2.556853,-2.636298,-2.530334,4.958954,2.660678,2.599541,-4.882180,-0.093995,0.578780,0.000144,-35.671162,188.721896,1031.817982,978.021704,0
0.107292,-119.307510,181.529468,-66.719815,-1.036847,-0.625427,-4.210556,4.529814,0.666777,4.294849,-4.455702,-0.086703,0.575335,0.011294,-73.679266,188.721820,1032.429599,978.612503,0
0.108333,-156.665063,166.002564,11.366828,0.438121,1.069870,-4.925979,3.412503,-1.046078,4.920344,-3.328580,-0.075764,0.574853,-0.018440,-108.985372,188.797199,1032.721205,979.361083,0
0.109375,-176.326933,116.051036,81.615642,1.823015,2.996343,-4.897363,1.413716,-3.077958,4.885834,-1.264730,-0.032010,0.567756,0.011294,-123.441061,188.646525,1032.854495,979.594524,0
0.110417,-186.078769,37.077589,133.697707,2.892649,4.361387,-4.349553,-0.353104,-4.373044,4.294849,0.437375,0.008098,0.573888,0.000144,-126.672200,188.797266,1032.853851,979.958668,0
