1-Time,2-VGERA,3-VGERB,4-VGERC,5-VN,6-IGERAN,7-IGERBN,8-IGERCN,9-IGERAT,10-IGERBT,11-IGERCT,12-IN,13-IFD,14-IFAULT,15-VFAULT,16-Speed (rad/s),17-FAULT 
0.000000,90.163988,52.083669,-207.975758,-1.019142,-0.975311,-4.960486,5.904913,1.404266,4.977327,-5.945607,-0.004238,0.347551,-0.035692,-10.233211,188.194257,0
0.001042,39.406299,130.247118,-181.224811,-0.555432,1.598641,-6.053910,4.314229,-1.187138,6.036908,-4.316255,-0.080951,0.330044,-0.050629,-15.492361,188.269537,0
0.002083,-9.684044,189.201930,-131.194508,0.360678,3.814014,-5.966284,1.975220,-3.410967,6.109426,-2.169166,-0.106522,0.324099,-0.020755,-17.935321,188.269570,0
0.003125,-68.007181,199.615669,-68.767424,1.570848,5.898028,-4.956676,-1.147377,-5.410575,5.045817,0.975330,-0.190541,0.305481,0.001650,-13.795861,188.194177,0
0.004167,-145.703310,171.273868,-16.336553,2.543508,6.792698,-3.390832,-3.568663,-6.480218,3.587382,3.426971,-0.186888,0.306527,-0.065566,-7.507501,188.194049,0
0.005208,-190.426789,105.541670,32.278030,3.482238,6.363114,-0.979202,-5.523715,-5.998695,1.258721,5.265702,-0.241683,0.315476,-0.054364,-0.314342,188.344952,0
0.006250,-191.776547,50.271534,104.455114,4.884678,5.440042,1.375279,-6.789209,-5.197381,-1.210949,6.738970,-0.259948,0.317175,-0.054364,1.653598,188.193910,0
0.007292,-148.244030,-0.009189,172.385038,6.162708,3.668453,3.432593,-7.012531,-3.444048,-3.164929,6.853177,-0.263601,0.333244,-0.024490,6.743098,188.194087,0
0.008333,-89.728070,-51.256384,207.950379,6.875238,1.041247,5.196549,-5.954688,-0.797508,-5.050419,6.027081,-0.259948,0.332983,-0.017021,14.773198,188.194195,0
0.009375,-38.743530,-129.709774,181.408713,6.377598,-1.568208,6.259495,-4.375758,1.760814,-6.073741,4.371081,-0.212459,0.334682,-0.005818,20.948458,188.344939,0
0.010417,9.666262,-188.809557,130.627463,5.393628,-3.691274,6.145200,-2.032831,3.973615,-6.170433,2.163082,-0.172276,0.317958,-0.017021,22.486618,188.194052,0
0.011458,67.320192,-199.996474,68.126515,4.240008,-5.771737,5.120352,1.058422,5.991602,-5.062506,-0.893856,-0.124787,0.299471,-0.028224,18.629908,188.194092,0
0.012500,144.914238,-170.712362,16.348106,3.210798,-6.666407,3.520219,3.495380,7.086976,-3.567812,-3.364531,-0.051727,0.301039,-0.028224,13.483858,188.196132,0
0.013542,189.966650,-104.653979,-31.860227,2.328618,-6.194220,1.146689,5.438678,6.542965,-1.283468,-5.195648,-0.033462,0.313190,-0.017021,5.238868,188.420307,0
0.014583,191.463860,-49.190549,-103.938826,0.960108,-5.327952,-1.158265,6.645403,5.741651,1.109654,-6.623234,0.014027,0.312406,-0.028224,2.965558,188.194025,0
0.015625,147.931343,0.776070,-171.819508,-0.329232,-3.545713,-3.215579,6.884397,3.958912,3.107952,-6.714600,0.014027,0.311034,-0.017021,-1.388792,188.269536,0
0.016667,88.961683,51.684999,-207.889584,-1.007832,-0.996613,-4.941437,5.865733,1.352806,4.953154,-5.918958,-0.022503,0.342063,-0.017021,-9.769501,188.194114,0
0.017708,38.169966,129.486021,-181.409470,-0.555432,1.658995,-6.076769,4.314229,-1.249626,6.016763,-4.289607,-0.044421,0.317762,-0.039427,-15.933451,188.420314,0
0.018750,-9.502564,189.129444,-130.566667,0.394608,3.824665,-5.939615,1.971302,-3.502860,6.089282,-2.131097,-0.091910,0.313124,-0.024490,-17.426371,188.194132,0
0.019792,-67.009041,199.772721,-68.213447,1.570848,5.855424,-4.952866,-1.155213,-5.403223,5.049845,0.971523,-0.132093,0.309597,-0.013287,-13.524421,188.194060,0
0.020833,-145.442432,171.068493,-16.545833,2.566128,6.803348,-3.444169,-3.517730,-6.450812,3.611555,3.434585,-0.212459,0.303064,-0.005818,-6.738421,188.194105,0
0.021875,-189.939062,105.481265,31.724053,3.493548,6.363114,-0.994442,-5.511961,-5.987667,1.242606,5.265702,-0.245336,0.319853,-0.002084,-0.483992,188.344802,0
0.022917,-191.946684,50.694365,104.098106,4.895988,5.511047,1.375279,-6.851896,-5.215760,-1.142459,6.735163,-0.248989,0.322727,-0.043161,1.517878,188.194099,0
0.023958,-148.765785,0.413643,171.609470,6.174018,3.707506,3.394495,-7.032121,-3.421994,-3.164929,6.876019,-0.285519,0.328084,-0.031958,6.720478,188.269561,0
0.025000,-89.898207,-51.051008,208.282766,6.796068,1.066099,5.196549,-5.986031,-0.845293,-5.038333,6.008046,-0.248989,0.312275,-0.005818,14.580928,188.194081,0
0.026042,-39.900465,-128.948677,181.544129,6.366288,-1.589509,6.309023,-4.375758,1.793896,-6.069712,4.355854,-0.219765,0.320245,-0.031958,20.880598,188.344880,0
0.027083,8.441272,-189.123660,131.452273,5.438868,-3.716126,6.168059,-2.021077,4.006697,-6.170433,2.189730,-0.150358,0.322270,-0.035692,22.102078,188.194000,0
0.028125,66.787095,-199.501157,69.862311,4.251318,-5.753986,5.162261,1.074094,5.998954,-5.050419,-0.905277,-0.106522,0.305416,-0.013287,17.442358,188.269469,0
0.029167,145.515391,-171.292246,17.677652,3.278658,-6.684159,3.588797,3.511052,7.072273,-3.688676,-3.334076,-0.048074,0.307376,-0.046895,13.291588,188.194029,0
0.030208,189.751143,-106.043283,-31.404735,2.328618,-6.219072,1.207646,5.391663,6.550316,-1.271381,-5.149965,-0.015197,0.315411,-0.020755,5.306728,188.344934,0
0.031250,191.962930,-51.340950,-103.741856,0.914868,-5.335053,-1.143026,6.696336,5.782084,1.057280,-6.642269,0.021333,0.322335,-0.050629,2.999488,188.194087,0
0.032292,148.623236,-0.758205,-171.647160,-0.340542,-3.535062,-3.196530,6.923577,3.936858,3.099894,-6.783124,-0.004238,0.337687,-0.020755,-1.434032,188.269518,0
0.033333,90.583661,51.141359,-208.185039,-1.053072,-1.035666,-4.968106,5.912748,1.415293,4.985384,-5.957027,-0.018850,0.334682,-0.020755,-10.165351,188.194119,0
0.034375,39.950739,129.377293,-181.360228,-0.555432,1.641244,-6.114868,4.314229,-1.209192,6.028850,-4.316255,-0.018850,0.322335,-0.002084,-15.492361,188.344934,0
0.035417,-8.697246,189.020716,-131.219129,0.394608,3.842416,-5.996763,1.959548,-3.458751,6.129571,-2.115869,-0.095563,0.317632,-0.024490,-17.924011,188.269315,0
0.036458,-66.770849,199.748559,-69.013637,1.582158,5.937081,-4.933817,-1.202228,-5.451008,5.078047,1.013399,-0.121134,0.303326,-0.046895,-13.818481,188.269362,0
0.037500,-145.124842,171.430920,-17.062879,2.554818,6.856603,-3.371782,-3.635268,-6.513300,3.611555,3.446005,-0.208806,0.302346,-0.035692,-7.530121,188.194130,0
0.038542,-190.165912,105.577912,31.280871,3.482238,6.395066,-0.956343,-5.609909,-6.039128,1.270807,5.296157,-0.245336,0.312210,-0.028224,-0.314342,188.344925,0
0.039583,-192.105479,50.706446,103.347159,4.816818,5.479095,1.367659,-6.812716,-5.230463,-1.194834,6.769426,-0.252642,0.311491,-0.028224,1.597048,188.344939,0
0.040625,-148.482222,0.679423,171.757197,6.196638,3.647151,3.405924,-7.047793,-3.410967,-3.181044,6.895053,-0.259948,0.326777,-0.024490,6.607378,188.269563,0
0.041667,-90.102372,-50.434882,208.295076,6.807378,1.055448,5.204169,-5.978195,-0.786481,-5.034304,6.011853,-0.259948,0.323054,-0.028224,14.739268,188.194054,0
0.042708,-39.276627,-128.707059,181.642614,6.354978,-1.589509,6.263305,-4.371841,1.804923,-6.110000,4.382502,-0.197847,0.310773,-0.031958,20.903218,188.269545,0
0.043750,8.826917,-188.652505,130.799811,5.438868,-3.709025,6.152819,-2.036749,4.032427,-6.194606,2.166888,-0.157664,0.327953,-0.039427,22.497928,188.420271,0
0.044792,66.129230,-199.972312,68.729735,4.273938,-5.768187,5.131782,1.074094,6.032035,-5.062506,-0.947152,-0.106522,0.290130,-0.002084,18.697768,188.269342,0
0.045833,144.449196,-171.111032,17.222159,3.256038,-6.673508,3.573557,3.452283,7.083300,-3.612129,-3.318849,-0.080951,0.303718,-0.017021,13.517788,188.269434,0
0.046875,189.478923,-105.149296,-30.838447,2.351238,-6.197770,1.196217,5.434760,6.579722,-1.275410,-5.222296,-0.000585,0.312863,-0.039427,5.318038,188.269615,0
0.047917,191.758765,-49.939565,-102.781629,0.960108,-5.342153,-1.181124,6.712008,5.749003,1.133827,-6.661303,0.006721,0.316260,0.001650,3.112588,188.420301,0
0.048958,148.543838,0.135782,-171.007008,-0.329232,-3.549263,-3.192720,6.923577,3.892749,3.120038,-6.764089,0.006721,0.354018,-0.031958,-1.275692,188.269516,0
0.050000,89.551493,50.851417,-208.283523,-1.007832,-0.978861,-4.960486,5.865733,1.448375,4.957182,-5.922765,0.006721,0.304371,-0.039427,-9.758191,188.269546,0
0.051042,39.100051,128.253769,-181.692614,-0.555432,1.627043,-6.038671,4.314229,-1.205517,6.024821,-4.327676,-0.044421,0.331219,-0.039427,-15.899521,188.345021,0
0.052083,-8.572479,189.177768,-131.132955,0.405918,3.824665,-5.981523,1.998728,-3.410967,6.161801,-2.123483,-0.084604,0.317109,-0.013287,-17.505541,188.420388,0
0.053125,-65.852106,199.724397,-69.407576,1.559538,5.858974,-4.945247,-1.116034,-5.410575,5.045817,0.986751,-0.124787,0.302150,-0.017021,-13.716691,188.269509,0
0.054167,-145.181555,171.672538,-17.838447,2.566128,6.806899,-3.436550,-3.537320,-6.491245,3.643785,3.419357,-0.183235,0.306069,-0.039427,-6.828901,188.269494,0
0.055208,-189.235826,106.665194,30.850000,3.493548,6.345363,-1.024920,-5.472781,-6.009722,1.238577,5.242860,-0.245336,0.319330,-0.005818,-0.495302,188.269530,0
0.056250,-192.479782,51.817889,103.187122,4.884678,5.468444,1.314322,-6.816634,-5.230463,-1.130372,6.735163,-0.281866,0.321943,-0.005818,1.404778,188.420032,0
0.057292,-149.854665,1.283468,170.415341,6.151398,3.735908,3.364016,-7.047793,-3.425670,-3.112554,6.849370,-0.259948,0.337360,-0.054364,6.618688,188.269391,0
0.058333,-91.270650,-50.060374,208.652084,6.829998,1.083850,5.162261,-5.974277,-0.878375,-4.965814,6.000433,-0.263601,0.333702,-0.013287,14.479138,188.269565,0
0.059375,-41.080085,-127.619778,181.851894,6.400218,-1.525604,6.225206,-4.371841,1.760814,-6.013309,4.333012,-0.219765,0.329260,0.005384,20.756188,188.345030,0
0.060417,7.658640,-189.135741,131.833902,5.472798,-3.712576,6.194728,-2.091600,3.980967,-6.162375,2.204957,-0.157664,0.329782,-0.005818,22.237798,188.420305,0
0.061458,65.528077,-199.332024,70.305493,4.273938,-5.729134,5.108923,1.093684,5.973223,-5.098765,-0.897663,-0.095563,0.302280,-0.024490,17.544148,188.344786,0
0.062500,145.209143,-171.739239,18.219318,3.244728,-6.641555,3.577367,3.444447,7.086976,-3.656446,-3.330269,-0.073645,0.304893,-0.002084,13.257658,188.269487,0
0.063542,188.684948,-106.707733,-30.678409,2.351238,-6.169368,1.211456,5.379909,6.509883,-1.299583,-5.119510,-0.011544,0.315215,-0.005818,5.238868,188.344901,0
0.064583,192.427973,-51.570487,-102.621591,1.005348,-5.356354,-1.143026,6.727680,5.752678,1.117712,-6.653689,-0.011544,0.320767,-0.009553,3.078658,188.420287,0
0.065625,149.610033,-0.951499,-170.243751,-0.340542,-3.556363,-3.200340,6.892233,3.988318,3.099894,-6.764089,0.014027,0.332657,-0.043161,-1.332242,188.344938,0
0.066667,90.844538,50.223210,-208.615910,-1.064382,-0.993063,-4.960486,5.916666,1.404266,4.953154,-5.949414,0.017680,0.333963,-0.054364,-10.097491,188.269281,0
0.067708,40.325041,127.770533,-181.741857,-0.566742,1.623493,-6.050100,4.290722,-1.205517,6.008706,-4.304835,-0.033462,0.327365,-0.017021,-15.345331,188.344760,0
0.068750,-8.028039,188.984474,-131.563826,0.360678,3.814014,-6.000572,1.975220,-3.425670,6.137628,-2.138711,-0.091910,0.319396,-0.035692,-17.980561,188.420209,0
0.069792,-65.443776,199.651912,-69.518371,1.559538,5.862525,-4.933817,-1.159131,-5.362790,5.090134,1.005785,-0.150358,0.298557,-0.013287,-14.010751,188.420235,0
0.070833,-144.603087,171.986642,-17.789205,2.520888,6.842402,-3.428930,-3.596089,-6.513300,3.619612,3.449812,-0.186888,0.300321,-0.017021,-7.462261,188.269554,0
0.071875,-189.247169,106.278605,30.677652,3.459618,6.359564,-1.009681,-5.539386,-5.998695,1.299009,5.280929,-0.205153,0.310642,-0.005818,-0.257792,188.344793,0
0.072917,-192.752002,51.020550,102.325379,4.828128,5.514597,1.356230,-6.820552,-5.226787,-1.146488,6.742777,-0.303784,0.322009,-0.043161,1.517878,188.420358,0
0.073958,-149.616472,0.945203,170.193751,6.140088,3.707506,3.379255,-7.028203,-3.433021,-3.185073,6.910281,-0.256295,0.318742,-0.024490,6.539518,188.495647,0
0.075000,-90.533387,-49.710028,208.812122,6.796068,1.119353,5.219408,-6.005621,-0.878375,-4.994016,6.034695,-0.259948,0.348335,-0.024490,14.648788,188.269445,0
0.076042,-39.957177,-127.281512,182.085796,6.377598,-1.532705,6.248065,-4.399266,1.771841,-6.089856,4.344433,-0.248989,0.318612,-0.017021,20.756188,188.420269,0
0.077083,8.010257,-188.737071,131.513826,5.416248,-3.698375,6.179488,-2.111190,4.054482,-6.190577,2.227799,-0.139399,0.317371,-0.039427,22.554478,188.420347,0
0.078125,64.745445,-199.791098,69.566856,4.262628,-5.714933,5.135592,1.011407,5.962196,-5.094736,-0.867208,-0.135746,0.302280,0.005384,18.867418,188.495712,0
0.079167,144.199661,-171.763401,17.960796,3.267348,-6.673508,3.611656,3.448365,7.098003,-3.652417,-3.364531,-0.051727,0.304240,0.012853,13.517788,188.269527,0
0.080208,188.514810,-106.236578,-30.259849,2.351238,-6.190670,1.173358,5.395580,6.557668,-1.295554,-5.115703,0.003068,0.312928,-0.031958,5.250178,188.495705,0
0.081250,192.439315,-50.700662,-101.907576,1.005348,-5.406058,-1.135406,6.739433,5.778409,1.109654,-6.649882,0.014027,0.304371,-0.035692,3.225688,188.420292,0
0.082292,149.689431,-0.516587,-169.542046,-0.317922,-3.595416,-3.192720,6.923577,3.936858,3.103923,-6.809772,-0.011544,0.350817,-0.043161,-1.196522,188.495835,0
0.083333,90.390838,50.017835,-208.603599,-1.019142,-1.053417,-4.956676,5.900995,1.433672,4.949125,-5.964641,0.017680,0.316391,-0.043161,-9.667711,188.344759,0
0.084375,40.211616,126.876546,-182.086554,-0.521502,1.602191,-6.034861,4.384752,-1.161408,6.028850,-4.331483,-0.018850,0.335335,-0.043161,-15.763801,188.495852,0
0.085417,-7.585681,189.189849,-132.056250,0.371988,3.743009,-6.012002,2.073169,-3.418318,6.141657,-2.188200,-0.095563,0.309270,-0.028224,-17.528161,188.420363,0
0.086458,-64.638459,199.531103,-70.786364,1.559538,5.841223,-4.983345,-1.076854,-5.370141,5.049845,0.948682,-0.146705,0.307114,-0.054364,-13.897651,188.495731,0
0.087500,-144.988732,172.445716,-19.081818,2.509578,6.810449,-3.436550,-3.529484,-6.472866,3.651843,3.392709,-0.208806,0.307245,-0.031958,-6.885451,188.344929,0
0.088542,-188.305741,108.078659,30.049811,3.470928,6.366664,-1.047780,-5.445356,-5.969289,1.311096,5.212405,-0.194194,0.316456,-0.043161,-0.540542,188.495580,0
0.089583,-193.035564,52.905171,102.202273,4.816818,5.525248,1.314322,-6.812716,-5.234139,-1.134401,6.716129,-0.223418,0.310054,-0.005818,1.302988,188.495732,0
0.090625,-151.000257,1.851270,168.876516,6.094848,3.735908,3.344967,-6.985106,-3.458751,-3.104497,6.860791,-0.267254,0.317175,-0.039427,6.528208,188.495736,0
0.091667,-92.404900,-49.263034,209.021402,6.886548,1.154856,5.124162,-5.997785,-0.933511,-4.949699,6.030888,-0.245336,0.333375,-0.024490,14.433898,188.344831,0
0.092708,-41.794663,-126.157988,182.356629,6.366288,-1.429747,6.225206,-4.407102,1.668920,-6.021366,4.416764,-0.205153,0.328606,0.012853,20.586538,188.495673,0
0.093750,6.898692,-189.208226,132.461743,5.450178,-3.645120,6.160439,-2.158205,3.940534,-6.190577,2.269675,-0.157664,0.324426,-0.013287,22.328278,188.495778,0
0.094792,64.325772,-199.247458,71.167235,4.273938,-5.693631,5.150831,1.019243,5.943817,-5.082650,-0.821525,-0.091910,0.304306,-0.020755,17.725108,188.495750,0
0.095833,144.891553,-172.367446,19.093371,3.256038,-6.659307,3.581177,3.417021,7.068597,-3.692705,-3.318849,-0.051727,0.305939,-0.028224,13.268968,188.495662,0
0.096875,187.754863,-107.710448,-29.939773,2.351238,-6.222622,1.245745,5.328976,6.553992,-1.351958,-5.096669,0.006721,0.315541,-0.046895,5.159698,188.495729,0
0.097917,192.904358,-51.920833,-101.575190,0.994038,-5.363455,-1.162075,6.715926,5.774733,1.121741,-6.653689,0.010374,0.316979,0.001650,3.180448,188.495781,0
0.098958,150.517433,-1.132713,-168.717235,-0.306612,-3.588316,-3.173671,6.903987,3.936858,3.079750,-6.752669,0.028639,0.332003,-0.013287,-1.241762,188.495781,0
0.100000,91.014676,49.510437,-209.059092,-1.064382,-1.021465,-4.914768,5.908830,1.429996,4.961211,-5.979869,0.021333,0.320375,-0.024490,-10.007011,188.571113,0
0.101042,40.767399,126.393310,-182.123485,-0.544122,1.634143,-5.992953,4.290722,-1.168759,5.976475,-4.274379,-0.026156,0.318220,-0.054364,-15.243541,188.495685,0
0.102083,-7.506284,189.044878,-132.031629,0.349368,3.810464,-5.992953,2.018317,-3.396264,6.141657,-2.180587,-0.088257,0.321290,-0.039427,-18.037111,188.495924,0
0.103125,-64.128046,199.531103,-70.195455,1.525608,5.837673,-4.937627,-1.108198,-5.333384,5.005528,0.956296,-0.128440,0.299863,-0.002084,-14.259571,188.495580,0
0.104167,-144.319525,172.518201,-18.293939,2.532198,6.792698,-3.398451,-3.552991,-6.465515,3.595439,3.426971,-0.175929,0.298557,-0.031958,-7.473571,188.646408,0
0.105208,-188.169631,107.281320,29.877462,3.436998,6.331161,-1.021111,-5.461027,-5.972964,1.250663,5.197178,-0.241683,0.308029,-0.009553,-0.269102,188.495797,0
0.106250,-193.103619,51.370896,101.315909,4.805508,5.507497,1.352420,-6.800963,-5.223111,-1.166632,6.704708,-0.263601,0.322858,0.005384,1.404778,188.495696,0
0.107292,-150.421790,1.114335,168.679546,6.106158,3.721707,3.367826,-6.985106,-3.377885,-3.096439,6.860791,-0.267254,0.292874,-0.031958,6.482968,188.495607,0
0.108333,-90.930375,-48.888526,209.132198,6.875238,1.169057,5.166071,-5.997785,-0.904105,-4.977901,6.023274,-0.245336,0.354736,-0.039427,14.580928,188.721980,0
0.109375,-40.535645,-125.674752,182.516667,6.366288,-1.479451,6.187108,-4.383594,1.760814,-6.057626,4.382502,-0.216112,0.302803,-0.017021,20.643088,188.495705,0
0.110417,7.307022,-188.797476,132.178599,5.472798,-3.666422,6.175678,-2.107272,3.999346,-6.190577,2.239219,-0.139399,0.310119,-0.061832,22.611028,188.571284,0
0.111458,63.781332,-199.549480,70.564015,4.330488,-5.665229,5.108923,1.019243,5.943817,-5.058477,-0.905277,-0.091910,0.306853,-0.024490,19.048378,188.495772,0
0.112500,143.984153,-172.282880,19.056439,3.312588,-6.666407,3.596416,3.475791,7.079624,-3.636302,-3.345497,-0.062686,0.303848,-0.028224,13.506478,188.722005,0
0.113542,187.550697,-107.480911,-29.656629,2.396478,-6.162268,1.260984,5.301550,6.546641,-1.315698,-5.096669,-0.029809,0.315084,-0.013287,5.272798,188.571174,0
0.114583,192.938385,-51.522163,-101.168940,1.027968,-5.367005,-1.101117,6.696336,5.789436,1.097568,-6.600393,-0.000585,0.306984,-0.031958,3.361408,188.571114,0
0.115625,151.141271,-1.108551,-168.040152,-0.261372,-3.559914,-3.124143,6.888315,3.929506,3.059606,-6.748862,0.021333,0.339908,-0.035692,-1.117352,188.495718,0
0.116667,91.286896,49.232576,-209.046781,-1.030452,-1.014364,-4.903338,5.904913,1.466754,4.904808,-5.926572,-0.026156,0.311622,-0.028224,-9.565921,188.722023,0
0.117708,41.459291,125.487242,-182.295834,-0.555432,1.598641,-5.966284,4.278968,-1.146705,5.972446,-4.289607,-0.040768,0.331089,-0.024490,-15.616771,188.571185,0
0.118750,-6.644253,189.189849,-132.807197,0.349368,3.746559,-5.992953,1.979138,-3.370533,6.125542,-2.127290,-0.073645,0.305089,-0.031958,-17.629951,188.571102,0
0.119792,-63.379441,199.096190,-71.820455,1.491678,5.802170,-4.910958,-1.084690,-5.270896,5.029701,0.929647,-0.143052,0.304763,-0.054364,-14.112541,188.571132,0
0.120833,-145.000075,172.904790,-19.820455,2.464338,6.735893,-3.417500,-3.505976,-6.428757,3.615584,3.381288,-0.245336,0.300778,-0.013287,-6.908071,188.721875,0
0.121875,-187.182834,109.262588,29.446591,3.459618,6.295659,-1.043970,-5.355243,-5.903125,1.323182,5.121040,-0.241683,0.312210,-0.035692,-0.461372,188.571064,0
0.122917,-193.534634,53.472973,101.131250,4.839438,5.471994,1.314322,-6.769619,-5.215760,-1.126344,6.647605,-0.252642,0.316391,-0.039427,1.246438,188.571158,0
0.123958,-152.236590,2.262021,167.128410,6.060918,3.675553,3.348777,-6.894993,-3.396264,-3.060180,6.754198,-0.263601,0.334290,-0.043161,6.449038,188.646446,0
0.125000,-92.631750,-48.538180,209.169129,6.818688,1.137104,5.097493,-5.978195,-0.937187,-4.925526,6.008046,-0.263601,0.327365,-0.050629,14.343418,188.721753,0
0.126042,-42.395815,-124.345853,182.689016,6.354978,-1.468800,6.137580,-4.356169,1.676272,-5.932732,4.329205,-0.238030,0.319200,-0.039427,20.360338,188.646556,0
0.127083,6.161430,-189.075336,132.954167,5.450178,-3.648671,6.171869,-2.103354,3.918479,-6.174462,2.254447,-0.183235,0.319396,-0.061832,22.452688,188.571080,0
0.128125,62.817220,-198.897111,71.856629,4.296558,-5.619075,5.101303,1.003571,5.837221,-5.010131,-0.848173,-0.080951,0.303195,-0.031958,17.906068,188.721900,0
