1-Time,2-VGERA,3-VGERB,4-VGERC,5-VN,6-IGERAN,7-IGERBN,8-IGERCN,9-IGERAT,10-IGERBT,11-IGERCT,12-IN,13-IFD,14-IFAULT,15-VFAULT,16-Speed (rad/s),17-Active Power,18-Reactive Power,19-FAULT 
0.000000,144.500547,-173.158092,15.012329,0.685826,-0.221785,4.505342,-3.909940,0.260401,-4.656206,3.793518,0.070083,0.578780,-0.029590,-2.796854,188.496103,967.261403,1029.752490,0
0.001042,170.038378,-145.146243,-64.386694,-0.856698,-2.019827,5.032711,-2.599324,2.079598,-5.044445,2.456965,0.077375,0.580434,0.000144,-1.704797,188.646906,967.050818,1029.529875,0
0.002083,177.869226,-71.093954,-122.508139,-1.960110,-3.660081,4.664779,-0.588938,3.796252,-4.638951,0.355036,0.004452,0.563140,-0.022156,0.963426,188.496080,966.557559,1029.893250,0
0.003125,169.993178,9.018759,-158.720121,-2.725742,-4.687533,3.851241,1.146953,4.844473,-3.763258,-1.350877,-0.032010,0.574509,-0.033307,2.246875,188.495921,966.621410,1028.974036,0
0.004167,124.002482,80.745536,-176.595230,-3.097299,-4.867337,2.015669,2.956300,5.022975,-1.929909,-3.197680,-0.061180,0.574164,0.011294,3.901849,188.495966,966.704145,1029.366122,0
0.005208,43.219316,129.463838,-185.696832,-3.299967,-4.427001,-0.007956,4.375169,4.612801,0.037166,-4.461883,-0.093995,0.555906,-0.003573,4.081982,188.646849,965.813882,1029.623776,0
0.006250,-27.461717,169.972378,-150.481288,-2.624408,-3.406887,-1.712707,4.939623,3.530398,1.840319,-5.105409,-0.101287,0.575473,0.003860,4.363440,188.496089,965.698734,1029.683384,0
0.007292,-99.363142,177.078109,-100.307035,-1.656109,-1.663888,-3.470604,4.761781,1.703606,3.496803,-4.812205,-0.079410,0.585601,-0.025873,4.329665,188.496042,965.477242,1029.423755,0
0.008333,-144.641943,172.791180,-14.467626,-0.000992,0.148832,-4.521254,3.876438,-0.237124,4.631322,-3.936401,-0.068472,0.581536,0.000144,3.293899,188.496355,966.062002,1030.794875,0
0.009375,-170.213674,144.990741,65.052913,1.597829,1.998246,-5.060888,2.527160,-2.041129,5.002306,-2.527500,-0.053887,0.578574,-0.011006,1.672701,188.646721,965.737941,1031.561589,0
0.010417,-177.728124,70.609592,123.283724,2.723759,3.675195,-4.623458,0.509042,-3.765379,4.622695,-0.406532,-0.021072,0.567067,0.000144,-0.365056,188.571341,965.464972,1032.061525,0
0.011458,-169.716477,-9.279966,159.191914,3.410576,4.732003,-3.842624,-1.277108,-4.813601,3.785825,1.287958,0.019036,0.556319,0.026161,-1.671022,188.496029,965.894171,1032.608521,0
0.012500,-123.578882,-80.971508,176.690321,3.782133,4.827410,-2.076551,-3.028464,-4.992102,1.848946,3.153800,0.055498,0.574853,0.000144,-3.280962,188.496078,966.698681,1032.670474,0
0.013542,-42.377618,-129.725045,186.010653,3.951023,4.420098,-0.040661,-4.478261,-4.524960,-0.053423,4.444659,0.095606,0.589253,-0.003573,-3.449837,188.646799,966.830704,1033.575160,0
0.014583,28.269515,-170.198349,150.381952,3.252946,3.403654,1.725412,-5.034983,-3.472940,-1.869516,4.996796,0.099252,0.584568,-0.007290,-3.900170,188.571355,966.587218,1034.195091,0
0.015625,99.809342,-177.116160,100.317065,2.318424,1.623960,3.487397,-4.864874,-1.665137,-3.556197,4.726439,0.077375,0.586359,0.003860,-3.697520,188.496025,966.697975,1034.130090,0
0.016667,144.975143,-172.876212,14.392594,0.685826,-0.265819,4.529871,-3.956334,0.302178,-4.660520,3.812557,0.088314,0.581123,-0.018440,-2.504138,188.496020,966.924604,1034.315939,0
0.017708,170.072278,-144.840873,-65.079339,-0.867958,-2.027165,5.040887,-2.564528,2.090992,-5.035817,2.415079,0.011744,0.580710,0.000144,-1.648505,188.646775,966.928117,1033.936439,0
0.018750,178.117824,-70.036903,-123.018509,-1.993888,-3.726131,4.619810,-0.554143,3.830433,-4.634637,0.324574,-0.024718,0.572442,-0.040740,0.952168,188.571455,967.262737,1033.999768,0
0.019792,169.608981,9.547285,-159.181884,-2.714483,-4.746245,3.810359,1.216543,4.836878,-3.780513,-1.362300,-0.017425,0.596074,-0.037023,2.213100,188.495997,967.111382,1034.307499,0
0.020833,123.030688,81.191846,-177.178510,-3.131077,-4.852660,1.995229,2.998828,4.996390,-1.899713,-3.254798,-0.072118,0.564380,-0.018440,3.980657,188.495962,967.485710,1033.956993,0
0.021875,42.462221,129.886658,-185.551012,-3.299967,-4.408653,-0.024309,4.402232,4.563428,0.080304,-4.519001,-0.104934,0.575818,-0.025873,4.115757,188.571435,968.083965,1033.459714,0
0.022917,-28.388311,170.700568,-150.201799,-2.590631,-3.348176,-1.774029,4.958954,3.477227,1.909339,-5.082562,-0.093995,0.576782,-0.007290,4.262115,188.571426,968.503221,1032.798315,0
0.023958,-100.255836,176.573073,-99.893878,-1.599812,-1.641871,-3.536014,4.777246,1.639041,3.505430,-4.819821,-0.061180,0.585395,-0.037023,4.385957,188.496054,968.688606,1032.420189,0
0.025000,-145.263439,172.932120,-13.580554,0.044046,0.258916,-4.582576,3.806848,-0.275103,4.622695,-3.845013,-0.083057,0.579814,-0.018440,3.293899,188.571428,968.672037,1031.428803,0
0.026042,-169.569578,144.532686,66.097957,1.575311,2.082644,-5.060888,2.480767,-2.101896,4.993678,-2.413265,-0.072118,0.577885,0.003860,1.920384,188.571500,969.285632,1029.987370,0
0.027083,-179.005016,68.953546,123.235117,2.689981,3.770602,-4.627546,0.427853,-3.860326,4.609753,-0.345606,-0.035656,0.550531,0.015011,-0.320023,188.571355,970.595827,1029.887529,0
0.028125,-169.117581,-9.914197,159.580767,3.410576,4.761359,-3.777214,-1.315770,-4.809803,3.695236,1.326036,0.055498,0.570581,-0.007290,-1.704797,188.496071,970.681710,1028.791320,0
0.029167,-122.279390,-81.006743,177.990550,3.804652,4.845757,-1.953907,-3.105786,-4.946527,1.771298,3.248996,0.070083,0.565689,-0.040740,-3.067054,188.496078,971.681808,1027.774277,0
0.030208,-41.597924,-130.136120,185.415222,3.939764,4.423768,0.065630,-4.458930,-4.483183,-0.178522,4.456082,0.062790,0.574233,0.003860,-3.494870,188.571466,972.341463,1026.475376,0
0.031250,29.150909,-171.079225,150.430559,3.331761,3.315587,1.770381,-5.034983,-3.419769,-1.998929,5.031066,0.095606,0.572579,0.011294,-3.900170,188.571375,974.073638,1026.025360,0
0.032292,100.848935,-176.223540,99.940363,2.318424,1.532223,3.528278,-4.810748,-1.596774,-3.633845,4.726439,0.088314,0.584706,0.022444,-3.731295,188.495978,974.954782,1025.498143,0
0.033333,145.483640,-173.357757,13.505522,0.640789,-0.324530,4.587105,-3.886744,0.362945,-4.634637,3.782094,0.095606,0.579194,0.000144,-2.740563,188.496018,975.137699,1024.989412,0
0.034375,169.394282,-144.335837,-65.929956,-0.879217,-2.148258,5.053152,-2.533599,2.155556,-5.031504,2.354153,0.066437,0.578022,0.000144,-1.761088,188.646677,975.658849,1024.117261,0
0.035417,179.439916,-68.709717,-122.775476,-1.993888,-3.766496,4.636162,-0.496151,3.913987,-4.600127,0.229378,0.008098,0.558937,-0.014723,1.030976,188.571464,977.118870,1023.367027,0
0.036458,168.908385,10.064065,-159.400615,-2.725742,-4.735236,3.740861,1.262937,4.844473,-3.746003,-1.449881,-0.002841,0.557352,-0.011006,2.235617,188.496130,977.810501,1022.630120,0
0.037500,122.070195,81.191846,-178.041279,-3.131077,-4.893024,1.966612,3.087749,5.000188,-1.852261,-3.304300,-0.064826,0.579745,-0.018440,3.845557,188.496002,978.509792,1022.325706,0
0.038542,41.739026,130.203774,-185.089249,-3.266189,-4.460026,-0.073366,4.425428,4.502662,0.101873,-4.519001,-0.104934,0.592560,-0.029590,4.059465,188.646833,978.175980,1021.602241,0
0.039583,-29.281005,171.076409,-150.262557,-2.590631,-3.340837,-1.835351,4.970552,3.427855,1.956790,-5.128256,-0.093995,0.581399,0.015011,4.374699,188.571418,979.063021,1021.495100,0
0.040625,-100.967731,176.326428,-99.480721,-1.588553,-1.601507,-3.560543,4.750183,1.631445,3.561509,-4.766511,-0.090349,0.584568,-0.003573,4.307149,188.496054,979.211461,1021.069954,0
0.041667,-145.681536,173.120040,-12.827151,0.066564,0.273594,-4.611193,3.802982,-0.294093,4.648577,-3.822166,-0.083057,0.578918,-0.014723,3.203833,188.495964,979.519868,1021.094088,0
0.042708,-169.433979,144.250806,66.754147,1.620348,2.089983,-5.118122,2.453704,-2.136077,4.997992,-2.432304,-0.064826,0.578780,-0.025873,1.661442,188.646882,979.670574,1021.390714,0
0.043750,-179.536112,68.166630,123.393089,2.667463,3.737576,-4.635722,0.381460,-3.905901,4.605440,-0.288489,0.008098,0.565138,-0.033307,-0.421348,188.571409,980.499042,1021.152070,0
0.044792,-168.631684,-10.407487,159.872408,3.466873,4.746681,-3.781302,-1.315770,-4.859175,3.708177,1.364115,0.015390,0.570995,0.000144,-1.625989,188.495915,981.162793,1021.529044,0
0.045833,-121.533595,-81.417818,178.318645,3.770874,4.842088,-1.937555,-3.152180,-4.965517,1.766985,3.252804,0.081021,0.580572,-0.040740,-3.247187,188.571464,981.143433,1021.868241,0
0.046875,-40.919928,-130.511960,185.196491,3.905986,4.401751,0.065630,-4.505324,-4.479385,-0.156953,4.433235,0.113837,0.583948,-0.033307,-3.427320,188.571511,980.440509,1022.103671,0
0.047917,29.908004,-171.220165,150.248284,3.297983,3.352282,1.856232,-5.089109,-3.381790,-2.024812,5.065337,0.102898,0.583190,-0.044457,-3.945203,188.571393,980.896187,1022.030172,0
0.048958,101.662530,-176.176560,99.405689,2.284646,1.506537,3.565071,-4.818480,-1.570189,-3.646786,4.715015,0.081021,0.585533,-0.003573,-3.663745,188.496000,980.885900,1021.932221,0
0.050000,146.116436,-173.299032,12.630602,0.607011,-0.350216,4.583016,-3.882878,0.404722,-4.716599,3.770671,0.095606,0.578643,-0.003573,-2.481621,188.571395,981.922772,1022.255666,0
0.051042,169.428182,-144.042212,-66.671208,-0.901736,-2.122572,5.044975,-2.471741,2.201131,-5.044445,2.316075,0.048206,0.578711,0.003860,-1.637247,188.571476,982.477232,1022.018348,0
0.052083,180.084011,-67.570451,-123.042813,-2.005147,-3.832546,4.615722,-0.387899,3.948168,-4.634637,0.206531,0.008098,0.589804,-0.037023,0.997201,188.571397,983.006062,1022.598370,0
0.053125,168.365989,10.651316,-159.898833,-2.748261,-4.797617,3.777654,1.309330,4.909038,-3.728748,-1.503190,-0.042949,0.556526,-0.018440,2.258133,188.496094,983.968382,1022.708544,0
0.054167,120.985402,81.673392,-178.758228,-3.164855,-4.878346,1.860320,3.157339,5.030571,-1.757359,-3.369033,-0.079410,0.557284,-0.011006,3.935624,188.571496,985.130350,1022.239589,0
0.055208,41.049730,130.673574,-184.761153,-3.277448,-4.419662,-0.159217,4.467956,4.510258,0.157952,-4.560887,-0.097641,0.592216,-0.029590,4.104499,188.571400,985.810276,1022.215403,0
0.056250,-30.196299,171.675404,-150.043827,-2.624408,-3.300473,-1.986612,5.016946,3.367088,2.060320,-5.162526,-0.097641,0.592285,0.011294,4.329665,188.571433,987.159624,1021.720734,0
0.057292,-101.871725,175.762668,-98.836683,-1.566034,-1.524448,-3.601425,4.726986,1.547891,3.630530,-4.762703,-0.093995,0.584912,-0.033307,4.352182,188.495975,988.023170,1021.070934,0
0.058333,-146.393431,173.413666,-11.782107,0.089083,0.431381,-4.656163,3.772053,-0.415626,4.687401,-3.837397,-0.072118,0.577747,-0.003573,3.203833,188.571513,989.435514,1021.056429,0
0.059375,-169.264480,143.581340,67.519703,1.609088,2.167042,-5.077240,2.384113,-2.200641,4.950541,-2.321876,-0.024718,0.579194,0.018727,1.897867,188.571500,989.817096,1019.394607,0
0.060417,-181.106802,66.404879,123.235117,2.735018,3.873347,-4.578488,0.207484,-3.974263,4.527792,-0.185677,0.008098,0.574371,0.007577,-0.387573,188.571389,990.920551,1018.226102,0
0.061458,-167.840689,-11.076953,160.467840,3.433095,4.765029,-3.756774,-1.424021,-4.870569,3.604647,1.485965,-0.021072,0.575542,-0.018440,-1.716055,188.496051,992.006415,1016.666906,0
0.062500,-120.324503,-81.370838,179.740391,3.838430,4.853096,-1.802646,-3.268163,-5.003496,1.628944,3.355616,0.084667,0.565414,-0.018440,-3.067054,188.571353,994.043893,1015.787043,0
0.063542,-40.241933,-130.887801,184.528149,3.939764,4.350378,0.159657,-4.524655,-4.452800,-0.277738,4.497968,0.110191,0.581674,0.003860,-3.483612,188.571411,995.335097,1014.861127,0
0.064583,31.026696,-171.983591,150.260435,3.309243,3.242198,1.991141,-5.127770,-3.317226,-2.154225,5.084376,0.088314,0.595592,0.003860,-3.956462,188.571476,996.890543,1014.203248,0
0.065625,102.464824,-175.330919,98.737347,2.295906,1.451495,3.610041,-4.783685,-1.494231,-3.676982,4.638858,0.062790,0.585257,-0.022156,-3.708779,188.496073,996.798460,1012.781260,0
0.066667,146.579733,-174.027223,11.682771,0.607011,-0.493326,4.660691,-3.813287,0.503467,-4.807188,3.702129,0.077375,0.579332,-0.007290,-2.673013,188.571433,998.611976,1012.134173,0
0.067708,168.851886,-143.220061,-67.521825,-0.924254,-2.247334,5.036799,-2.421482,2.269493,-5.009935,2.224687,0.048206,0.578091,-0.014723,-1.682280,188.571404,998.961409,1010.701342,0
0.068750,181.632101,-65.867425,-122.763324,-1.993888,-3.898597,4.615722,-0.295112,4.054509,-4.600127,0.069448,-0.010133,0.567963,-0.014723,1.121043,188.571384,1000.968092,1009.707177,0
0.069792,167.507195,11.285546,-160.336293,-2.737001,-4.819634,3.675451,1.413716,4.924229,-3.638159,-1.556500,-0.046595,0.580365,0.003860,2.269392,188.496011,1001.348247,1008.642759,0
0.070833,120.047508,81.567687,-179.791120,-3.164855,-4.882015,1.762205,3.253992,5.053358,-1.688338,-3.479460,-0.072118,0.573888,-0.014723,3.800524,188.495975,1003.063472,1008.237435,0
0.071875,40.349135,131.037669,-184.190025,-3.254929,-4.379298,-0.196010,4.475688,4.460885,0.265796,-4.602774,-0.104934,0.577540,-0.018440,4.070724,188.571614,1003.946530,1007.099208,0
0.072917,-31.201992,171.969029,-150.201799,-2.601890,-3.260108,-2.019317,5.044009,3.321513,2.103458,-5.177758,-0.093995,0.586566,0.003860,4.408473,188.571373,1004.512495,1006.840660,0
0.073958,-102.594921,175.375082,-98.326313,-1.566034,-1.440050,-3.662747,4.734718,1.464337,3.695236,-4.777934,-0.079410,0.582777,-0.003573,4.228340,188.496016,1005.535980,1006.372878,0
0.075000,-146.811528,173.859976,-11.004400,0.089083,0.460737,-4.701132,3.741124,-0.521967,4.747794,-3.753625,-0.050241,0.577265,0.018727,3.091250,188.571438,1007.042647,1005.274836,0
0.076042,-168.925482,143.111540,68.151590,1.631607,2.266118,-5.056800,2.337720,-2.257610,4.989364,-2.238104,-0.050241,0.576644,0.000144,1.616409,188.571471,1008.008017,1004.582772,0
0.077083,-181.920396,65.253868,123.308027,2.656203,3.939397,-4.603017,0.207484,-4.065413,4.570930,-0.109520,0.004452,0.564036,-0.022156,-0.477639,188.571351,1009.683941,1004.853316,0
0.078125,-167.377392,-11.511518,160.808086,3.478132,4.812732,-3.687275,-1.466549,-4.897154,3.608961,1.497389,0.026329,0.573613,-0.044457,-1.625989,188.496067,1009.869396,1005.158165,0
0.079167,-119.510909,-81.770169,180.262913,3.860949,4.889791,-1.753589,-3.314557,-4.984506,1.603062,3.393694,0.073729,0.576024,-0.022156,-3.190896,188.571460,1010.117415,1004.930634,0
0.080208,-39.609137,-131.345856,184.345874,3.939764,4.361387,0.208715,-4.555584,-4.437608,-0.338131,4.562702,0.110191,0.577196,-0.018440,-3.438579,188.571469,1011.091019,1004.717419,0
0.081250,31.987190,-172.265471,150.418407,3.320502,3.216511,1.987052,-5.150967,-3.321024,-2.193048,5.122454,0.077375,0.592836,-0.040740,-3.956462,188.571478,1011.745343,1005.206467,0
0.082292,103.086320,-175.424879,98.202674,2.273387,1.374436,3.618217,-4.764354,-1.444858,-3.771885,4.688360,0.077375,0.585601,-0.003573,-3.584937,188.495960,1013.222295,1005.526243,0
0.083333,147.110829,-174.109438,10.795699,0.618270,-0.552037,4.672955,-3.770760,0.575628,-4.863267,3.709745,0.110191,0.581743,-0.025873,-2.391555,188.571312,1014.334338,1005.746771,0
0.084375,168.964885,-142.820731,-68.007892,-0.890476,-2.317054,5.049064,-2.386687,2.356845,-5.083269,2.140914,0.048206,0.579676,-0.003573,-1.625989,188.497028,1016.030763,1005.347851,0
0.085417,182.490896,-64.645944,-122.896993,-2.005147,-3.975656,4.578928,-0.233254,4.092488,-4.595814,0.000907,0.008098,0.577471,-0.003573,1.098526,188.571027,1016.828764,1005.123888,0
0.086459,166.987398,11.802327,-160.919573,-2.714483,-4.852660,3.650922,1.479440,4.958411,-3.625217,-1.647888,-0.079410,0.591251,-0.044457,2.246875,188.495682,1017.926581,1004.923779,0
0.087500,119.019215,81.978762,-180.520220,-3.198633,-4.933388,1.688619,3.346779,5.057156,-1.593436,-3.570849,-0.072118,0.584844,0.007577,3.913107,188.570950,1019.265110,1004.179626,0
0.088542,39.637240,131.483980,-183.946991,-3.232411,-4.331594,-0.298214,4.518215,4.476077,0.313247,-4.614197,-0.083057,0.558662,-0.007290,4.070724,188.495618,1019.573834,1004.227554,0
0.089583,-32.388485,172.450575,-150.274709,-2.658186,-3.179380,-2.146049,5.129063,3.279736,2.215616,-5.185373,-0.123164,0.572442,0.007577,4.340924,188.571029,1020.783633,1003.768715,0
0.090625,-103.374615,175.163672,-97.572909,-1.532256,-1.373999,-3.724069,4.707656,1.418763,3.759942,-4.747472,-0.083057,0.586222,-0.018440,4.318407,188.495740,1021.297646,1003.289138,0
0.091667,-147.353925,174.294541,-10.007963,0.134120,0.592838,-4.737925,3.729526,-0.605521,4.821128,-3.723162,-0.097641,0.578229,-0.022156,3.091250,188.646409,1022.745245,1003.131944,0
0.092708,-168.699484,142.348114,68.747022,1.620348,2.284465,-5.044535,2.275862,-2.360154,5.002306,-2.173371,-0.068472,0.579400,-0.029590,1.875350,188.495669,1023.880248,1002.343718,0
0.093750,-183.400687,63.656546,123.064994,2.735018,3.994439,-4.570312,0.118563,-4.103392,4.514851,-0.033363,-0.006487,0.564725,-0.007290,-0.488898,188.571042,1024.574932,1001.549109,0
0.094792,-166.529898,-12.110514,161.354912,3.455614,4.838418,-3.601425,-1.528407,-4.923740,3.561509,1.592585,0.015390,0.561624,-0.022156,-1.693538,188.495667,1025.528269,1000.863924,0
0.095833,-118.358316,-81.805404,181.247198,3.849689,4.871443,-1.663650,-3.446005,-5.014890,1.512473,3.546008,0.077375,0.576920,0.007577,-3.033279,188.571053,1027.810008,1000.306823,0
0.096875,-38.818142,-131.874382,183.750442,3.838430,4.284328,0.323183,-4.617442,-4.411023,-0.411465,4.589357,0.110191,0.595661,-0.003573,-3.472354,188.495649,1028.272326,999.725797,0
0.097917,33.105883,-172.805742,150.722199,3.286724,3.168808,2.121961,-5.178030,-3.256459,-2.275010,5.122454,0.113837,0.594558,-0.037023,-3.967720,188.570970,1029.225042,999.079449,0
0.098958,103.922515,-174.743668,97.400663,2.273387,1.341411,3.761302,-4.768221,-1.376496,-3.810709,4.661706,0.106545,0.586497,0.022444,-3.686262,188.495626,1029.467308,998.333910,0
0.100000,147.608026,-174.579238,9.835717,0.584492,-0.662122,4.779247,-3.809421,0.659181,-4.863267,3.675474,0.062790,0.581743,-0.025873,-2.594204,188.571165,1030.153100,997.769868,0
0.101042,168.490288,-141.845895,-68.761295,-0.935513,-2.372096,5.081769,-2.286167,2.402420,-5.031504,2.125683,0.029975,0.579538,-0.003573,-1.648505,188.495671,1029.825308,997.138219,0
0.102083,183.835587,-63.330503,-122.702566,-2.005147,-4.056384,4.566664,-0.159798,4.176042,-4.565617,-0.048595,0.000805,0.582156,0.003860,1.222368,188.570930,1031.001529,996.898799,0
0.103125,166.106004,12.295617,-161.296275,-2.782039,-4.896693,3.614129,1.533566,4.981198,-3.590707,-1.689775,-0.035656,0.582156,0.000144,2.325683,188.495524,1031.347400,996.558307,0
0.104167,118.149121,82.025742,-181.261472,-3.153596,-4.962744,1.647737,3.385440,5.102731,-1.576181,-3.605119,-0.053887,0.581123,-0.018440,3.800524,188.570917,1032.027425,996.985664,0
0.105208,39.015744,131.930290,-183.266498,-3.164855,-4.331594,-0.359536,4.541412,4.426704,0.377953,-4.675123,-0.123164,0.574922,-0.033307,4.014432,188.495658,1032.765429,996.279667,0
0.106250,-33.077780,172.615005,-150.359771,-2.613149,-3.205066,-2.154226,5.094268,3.245555,2.245812,-5.246299,-0.130457,0.587531,0.011294,4.442248,188.570997,1033.620829,996.448755,0
0.107292,-103.996111,174.764342,-97.062539,-1.509738,-1.348313,-3.793567,4.730852,1.365592,3.768570,-4.720817,-0.104934,0.584844,-0.044457,4.205824,188.495826,1033.595672,995.808381,0
0.108333,-147.738122,174.529442,-9.315317,0.167898,0.614855,-4.811512,3.698596,-0.624511,4.803873,-3.746009,-0.075764,0.579194,-0.007290,3.034958,188.571053,1033.538412,996.164189,0
0.109375,-168.665584,141.843079,69.318150,1.609088,2.317490,-5.048623,2.229468,-2.413324,5.019561,-2.169563,-0.024718,0.579538,-0.003573,1.582634,188.495589,1034.050987,996.288611,0
0.110417,-183.909183,62.752181,123.308027,2.701241,4.038473,-4.582576,0.087634,-4.164159,4.519164,-0.002901,-0.006487,0.574026,-0.025873,-0.522673,188.571147,1034.868463,996.474069,0
0.111458,-165.840603,-12.580314,161.816675,3.466873,4.864105,-3.638218,-1.582532,-4.935134,3.565823,1.611624,0.029975,0.563553,-0.014723,-1.648505,188.495651,1034.921566,996.679966,0
