1-Time,2-VGERA,3-VGERB,4-VGERC,5-VN,6-IGERAN,7-IGERBN,8-IGERCN,9-IGERAT,10-IGERBT,11-IGERCT,12-IN,13-IFD,14-IFAULT,15-VFAULT,16-Speed (rad/s),17-FAULT 
0.000000,-99.527990,-105.004325,179.180493,6.298428,5.408089,-0.259452,-5.076333,-5.451008,0.492246,4.801639,-0.241683,0.576253,-0.031958,-17.166241,188.344825,0
0.001039,-16.353434,-148.108991,184.461743,6.445458,4.222296,1.883584,-5.815144,-4.193901,-1.732002,5.580807,-0.256295,0.585987,-0.065566,-20.457451,188.420235,0
0.002077,58.132767,-170.023751,148.477841,5.721618,2.294495,3.760724,-5.520366,-2.370729,-3.540776,5.338874,-0.252642,0.584615,-0.005818,-16.442401,188.495736,0
0.003115,112.463344,-194.306368,64.851894,4.138218,-0.077091,5.387843,-4.677076,0.007481,-5.278207,4.588168,-0.267254,0.581218,-0.031958,-8.932561,188.420330,0
0.004157,155.088461,-167.957916,-8.457765,2.758398,-2.033294,5.796607,-3.083781,1.974007,-5.731450,3.140124,-0.212459,0.574098,-0.005818,1.732768,188.344976,0
0.005199,180.960705,-117.495980,-77.864962,1.446438,-4.174112,5.558492,-0.774063,4.087564,-5.475452,0.845313,-0.161317,0.565736,-0.028224,8.326498,188.420296,0
0.006240,184.306742,-35.708260,-130.542046,0.439848,-5.253396,4.415540,1.218488,5.289534,-4.518606,-1.107945,-0.106522,0.565214,-0.031958,18.109648,188.495718,0
0.007282,155.201886,36.124795,-172.459660,-0.340542,-5.817891,2.752703,3.311787,5.818842,-2.848322,-3.082550,-0.033462,0.588404,-0.058098,20.518678,188.495774,0
0.008324,99.714374,104.551035,-179.489016,-0.476262,-5.317301,0.391396,4.912545,5.407158,-0.573714,-4.669349,-0.055380,0.566259,-0.039427,21.717538,188.269509,0
0.009365,16.120145,147.885238,-184.413258,-0.600672,-4.110207,-1.787356,5.673744,4.172106,1.684106,-5.416497,-0.000585,0.565214,-0.054364,25.280188,188.420330,0
0.010407,-58.502166,170.319477,-148.786364,0.066618,-2.182406,-3.644654,5.382697,2.308501,3.539045,-5.249278,-0.011544,0.581414,-0.043161,23.911678,188.495644,0
0.011448,-112.719318,194.348395,-64.544887,1.661328,0.199831,-5.295585,4.569259,-0.106467,5.289065,-4.477225,-0.026156,0.581022,-0.065566,13.110628,188.420339,0
0.012490,-155.843505,167.987862,8.407765,3.041148,2.116981,-5.644820,2.983426,-2.054615,5.733915,-2.979372,-0.066339,0.577299,-0.031958,3.825118,188.269411,0
0.013532,-181.466214,118.347428,77.864205,4.364418,4.236497,-5.402736,0.662514,-4.153468,5.473720,-0.727255,-0.110175,0.566912,-0.024490,-4.114501,188.420321,0
0.014573,-184.506004,37.091267,130.812122,5.348388,5.376137,-4.323282,-1.378545,-5.315005,4.483300,1.204656,-0.146705,0.571746,-0.031958,-12.823201,188.495721,0
0.015615,-156.059013,-35.007568,172.458902,6.128778,5.898028,-2.596948,-3.464381,-5.914152,2.792033,3.250418,-0.175929,0.604539,-0.046895,-15.277471,188.495647,0
0.016657,-100.253910,-104.231148,179.328220,6.287118,5.418740,-0.283263,-5.016631,-5.403223,0.521622,4.766060,-0.238030,0.555154,-0.028224,-17.573401,188.269527,0
0.017699,-15.843021,-147.589512,184.498675,6.388908,4.200995,1.899458,-5.796487,-4.157144,-1.694231,5.580807,-0.245336,0.547380,-0.028224,-20.366971,188.422762,0
0.018740,59.028824,-169.794214,148.785607,5.755548,2.294495,3.744849,-5.546485,-2.385432,-3.540776,5.367337,-0.252642,0.578148,-0.031958,-18.093661,188.420443,0
0.019782,112.452002,-194.306368,64.544129,4.183458,-0.087742,5.423560,-4.703196,0.044239,-5.294994,4.620189,-0.230724,0.579650,-0.046895,-9.192691,188.495859,0
0.020824,155.009064,-167.800865,-8.543939,2.747088,-1.972939,5.796607,-3.106169,1.937250,-5.752433,3.161472,-0.175929,0.576384,-0.017021,1.925038,188.269577,0
0.021865,180.915335,-118.196673,-77.581818,1.446438,-4.156360,5.530712,-0.807646,4.061833,-5.492238,0.888007,-0.150358,0.568610,-0.005818,7.670518,188.495667,0
0.022907,184.159290,-37.423748,-130.640531,0.428538,-5.200142,4.483006,1.207294,5.304237,-4.526999,-1.079482,-0.102869,0.577495,-0.002084,17.397118,188.420345,0
0.023949,155.610216,34.336821,-172.730493,-0.363162,-5.803690,2.760641,3.274473,5.785760,-2.848322,-3.054087,-0.073645,0.593761,-0.058098,19.975798,188.495658,0
0.024990,100.916679,104.140285,-179.144319,-0.521502,-5.345704,0.482674,4.822992,5.447591,-0.594698,-4.615981,-0.022503,0.570244,-0.043161,21.774088,188.269442,0
0.026032,16.743983,147.704025,-184.400948,-0.589362,-4.170562,-1.684173,5.628968,4.190485,1.637943,-5.388034,-0.029809,0.554108,-0.024490,25.291498,188.495749,0
0.027075,-59.273456,169.775836,-148.749432,0.066618,-2.207258,-3.604968,5.334189,2.334231,3.518061,-5.235047,-0.018850,0.564168,-0.020755,23.685478,188.495796,0
0.028115,-112.912141,194.094696,-64.126326,1.683948,0.103973,-5.228119,4.576721,-0.055007,5.179951,-4.441647,-0.062686,0.575470,-0.054364,12.963598,188.495533,0
0.029157,-154.947447,168.459018,9.109470,3.063768,2.028224,-5.668631,3.069248,-2.006830,5.712931,-3.071876,-0.102869,0.575470,-0.020755,3.610228,188.269427,0
0.030199,-181.001171,118.081648,77.999621,4.375728,4.200995,-5.398768,0.729679,-4.065250,5.503097,-0.805528,-0.091910,0.567565,-0.061832,-3.763891,188.495712,0
0.031240,-184.857621,37.574504,130.615152,5.359698,5.287380,-4.382810,-1.262873,-5.333384,4.521071,1.140615,-0.161317,0.574555,-0.017021,-13.513111,188.495754,0
0.032282,-155.718738,-33.533697,172.840531,6.128778,5.901578,-2.680288,-3.393485,-5.851665,2.854984,3.161472,-0.190541,0.584288,-0.039427,-15.277471,188.495816,0
0.033324,-101.955285,-103.325080,179.205114,6.275808,5.397438,-0.374541,-4.938272,-5.465711,0.605556,4.705577,-0.219765,0.583178,-0.020755,-17.087071,188.269541,0
0.034365,-17.499026,-147.637836,184.080114,6.400218,4.247148,1.788338,-5.729322,-4.208604,-1.580921,5.516766,-0.245336,0.585791,-0.009553,-20.480071,188.495868,0
0.035407,58.325589,-169.637162,149.314963,5.721618,2.333548,3.657541,-5.464395,-2.418514,-3.507203,5.313969,-0.259948,0.581610,-0.058098,-16.668601,188.495644,0
0.036449,112.758249,-193.859374,64.667235,4.160838,-0.048689,5.336252,-4.684539,-0.055007,-5.198470,4.616631,-0.241683,0.573249,-0.020755,-8.728981,188.495671,0
0.037490,154.419254,-168.368667,-9.257955,2.769708,-1.919685,5.748984,-3.184528,1.896817,-5.702073,3.172145,-0.205153,0.574032,-0.017021,1.789318,188.269628,0
0.038532,180.280155,-117.375171,-78.061932,1.412508,-4.056953,5.514838,-0.886004,4.017724,-5.437681,0.934259,-0.161317,0.562862,-0.035692,8.383048,188.495682,0
0.039574,184.544935,-36.662652,-130.468182,0.428538,-5.203693,4.506817,1.143861,5.227046,-4.573163,-0.986978,-0.088257,0.579193,-0.043161,18.132268,188.495738,0
0.040615,155.065776,34.336821,-172.730493,-0.363162,-5.810790,2.820169,3.240891,5.763706,-2.902879,-2.993603,-0.044421,0.583897,-0.031958,20.609158,188.495700,0
0.041657,101.506489,103.789938,-179.181251,-0.566742,-5.320852,0.518391,4.819260,5.421861,-0.653452,-4.608866,-0.011544,0.584550,-0.028224,21.660988,188.269552,0
0.042699,18.037028,147.885238,-184.019319,-0.623292,-4.152810,-1.668299,5.595385,4.172106,1.583386,-5.363129,-0.000585,0.585791,-0.013287,25.189708,188.495705,0
0.043740,-57.878328,170.029535,-149.241857,0.010068,-2.214358,-3.537502,5.322995,2.315852,3.518061,-5.235047,-0.018850,0.583505,-0.039427,24.024778,188.420321,0
0.044782,-112.923483,193.732269,-64.815720,1.638708,0.125275,-5.220181,4.531945,-0.069710,5.196738,-4.445205,-0.059033,0.573510,-0.024490,12.952288,188.495707,0
0.045824,-155.094900,168.422775,9.207955,3.052458,2.038875,-5.601165,3.009546,-1.992127,5.658374,-2.993603,-0.073645,0.572465,-0.050629,3.644158,188.344869,0
0.046865,-180.728951,117.682978,78.332008,4.353108,4.215196,-5.398768,0.711022,-4.068926,5.448540,-0.780623,-0.128440,0.559988,-0.061832,-4.216291,188.495740,0
0.047907,-184.687484,36.064391,130.565909,5.348388,5.298031,-4.370905,-1.266604,-5.318681,4.516874,1.115710,-0.117481,0.584223,-0.050629,-12.924991,188.420354,0
0.048949,-155.616655,-34.729707,172.545076,6.185328,5.905128,-2.664413,-3.400948,-5.851665,2.808820,3.168587,-0.186888,0.574686,-0.073035,-15.288781,188.495546,0
0.049990,-101.059228,-103.808316,179.131251,6.332358,5.436491,-0.378509,-4.934541,-5.458359,0.550999,4.709135,-0.263601,0.582655,-0.043161,-17.539471,188.344983,0
0.051032,-17.714534,-147.601593,184.080114,6.445458,4.254249,1.824055,-5.729322,-4.238010,-1.639674,5.513208,-0.252642,0.585203,-0.058098,-20.242561,188.495633,0
0.052074,57.826519,-169.649243,149.302652,5.721618,2.322897,3.665478,-5.486783,-2.414838,-3.477826,5.338874,-0.219765,0.583766,-0.058098,-18.150211,188.420311,0
0.053115,112.690194,-193.617756,65.615152,4.104288,-0.030937,5.352126,-4.673345,-0.077061,-5.215257,4.609515,-0.252642,0.580761,-0.035692,-9.102211,188.495729,0
0.054157,154.906981,-168.018321,-8.494697,2.758398,-1.933886,5.737078,-3.128558,1.900492,-5.676893,3.179261,-0.194194,0.575143,-0.046895,2.038138,188.344757,0
0.055199,180.427607,-117.846326,-77.889584,1.435128,-4.049852,5.530712,-0.882273,3.988318,-5.458665,0.962722,-0.161317,0.573640,-0.028224,7.828858,188.495667,0
0.056240,184.408825,-36.155254,-130.234281,0.451158,-5.157539,4.486975,1.143861,5.271155,-4.497622,-1.018998,-0.091910,0.542611,-0.039427,17.351878,188.420238,0
0.057282,154.850269,35.460345,-172.435038,-0.306612,-5.803690,2.812232,3.214771,5.785760,-2.860912,-3.025624,-0.059033,0.564626,-0.054364,19.998418,188.495799,0
0.058324,100.542376,104.297336,-179.082766,-0.476262,-5.363455,0.562045,4.785678,5.388779,-0.653452,-4.555498,-0.018850,0.572791,-0.065566,21.751468,188.420376,0
0.059365,16.970833,147.788591,-184.105493,-0.668532,-4.170562,-1.684173,5.584191,4.179457,1.562402,-5.377361,-0.018850,0.577952,-0.050629,25.246258,188.495797,0
0.060407,-58.229946,169.667108,-149.525000,0.077928,-2.285364,-3.505753,5.360309,2.359961,3.429931,-5.210142,-0.048074,0.583505,-0.058098,23.821198,188.420312,0
0.061449,-113.093621,193.273194,-65.591288,1.627398,0.111074,-5.200339,4.576721,-0.025601,5.150575,-4.498573,-0.022503,0.579389,-0.061832,13.031458,188.495776,0
0.062490,-155.276380,168.616069,8.296970,2.995908,1.999822,-5.640851,3.084173,-1.907585,5.662571,-3.096781,-0.051727,0.574816,-0.080503,3.655468,188.345764,0
0.063532,-180.785664,118.504480,77.814962,4.341798,4.137090,-5.414642,0.729679,-4.006438,5.452737,-0.830433,-0.102869,0.566259,-0.054364,-3.865681,188.495680,0
0.064574,-185.005074,37.115429,130.516667,5.348388,5.276729,-4.378842,-1.270335,-5.248842,4.563038,1.055226,-0.146705,0.565083,-0.020755,-13.524421,188.420320,0
0.065615,-155.242352,-34.560574,172.557387,6.140088,5.890927,-2.704099,-3.356171,-5.800204,2.880164,3.097430,-0.205153,0.568741,-0.024490,-15.254851,188.495778,0
0.066657,-100.752980,-103.941206,179.229735,6.321048,5.415190,-0.418195,-4.904690,-5.476738,0.630736,4.655767,-0.208806,0.577299,-0.050629,-17.007901,188.344945,0
0.067699,-16.489544,-147.492865,184.006251,6.411528,4.296852,1.752620,-5.725591,-4.215956,-1.547347,5.445609,-0.252642,0.553259,-0.046895,-20.457451,188.495721,0
0.068740,58.733919,-169.480110,149.573485,5.744238,2.415205,3.625792,-5.531560,-2.429541,-3.431662,5.392241,-0.248989,0.563188,-0.039427,-16.679911,188.420381,0
0.069782,113.075839,-193.194925,65.676705,4.149528,0.057820,5.316409,-4.721853,-0.073385,-5.173290,4.666441,-0.223418,0.581871,-0.050629,-8.762911,188.495716,0
0.070824,154.884296,-168.574042,-8.223864,2.792328,-1.866431,5.745016,-3.236767,1.849032,-5.689483,3.229071,-0.197847,0.577691,-0.028224,1.529188,188.344950,0
0.071865,180.416265,-118.583262,-77.569508,1.446438,-4.071154,5.534681,-0.897198,3.984643,-5.513222,1.001859,-0.172276,0.573314,-0.035692,8.394358,188.495729,0
0.072907,184.715072,-37.834499,-130.455872,0.451158,-5.196592,4.518723,1.147592,5.260128,-4.619326,-0.954957,-0.102869,0.577691,-0.028224,18.109648,188.420263,0
0.073949,155.054434,34.300579,-172.779735,-0.340542,-5.775287,2.828107,3.218503,5.826193,-2.919666,-2.979372,-0.059033,0.579258,-0.076769,20.575228,188.495797,0
0.074990,100.996076,104.055718,-179.255114,-0.521502,-5.320852,0.554108,4.808066,5.429212,-0.645058,-4.580403,-0.048074,0.574163,-0.020755,21.649678,188.344811,0
0.076032,16.528475,147.861076,-184.019319,-0.623292,-4.152810,-1.688142,5.632699,4.175782,1.562402,-5.395150,-0.026156,0.595655,-0.054364,25.234948,188.495747,0
0.077074,-59.160031,169.920807,-149.229546,0.077928,-2.253411,-3.541470,5.360309,2.385691,3.450914,-5.252836,0.003068,0.540455,-0.054364,24.058708,188.420349,0
0.078115,-113.104963,193.671864,-64.778788,1.672638,0.075571,-5.228119,4.576721,-0.040304,5.217722,-4.495015,-0.029809,0.576319,-0.058098,12.940978,188.495647,0
0.079157,-155.038187,168.591908,8.801705,3.041148,2.017573,-5.668631,3.072979,-1.977424,5.696145,-3.036298,-0.044421,0.575470,-0.058098,3.825118,188.420238,0
0.080199,-180.808349,118.444075,77.814962,4.364418,4.186793,-5.418611,0.729679,-4.039520,5.465327,-0.816201,-0.106522,0.567500,-0.035692,-4.148431,188.495750,0
0.081240,-184.778224,37.816122,130.836743,5.382318,5.329983,-4.378842,-1.300186,-5.274572,4.546251,1.147730,-0.154011,0.575078,-0.046895,-12.981541,188.420182,0
0.082282,-155.900218,-33.376646,172.791288,6.140088,5.873176,-2.680288,-3.378559,-5.892098,2.834000,3.143682,-0.197847,0.585595,-0.046895,-15.345331,188.495655,0
0.083324,-101.773805,-103.506293,179.155872,6.332358,5.376137,-0.382478,-4.975586,-5.465711,0.550999,4.705577,-0.201500,0.584615,-0.058098,-17.562091,188.420300,0
0.084365,-17.521711,-147.492865,184.129357,6.377598,4.200995,1.839929,-5.729322,-4.201253,-1.643871,5.541671,-0.230724,0.566651,-0.039427,-20.299111,188.420345,0
0.085407,58.654522,-169.552596,149.216478,5.721618,2.298045,3.653572,-5.479321,-2.367054,-3.507203,5.317527,-0.241683,0.538692,-0.017021,-18.172831,188.420376,0
0.086449,112.622139,-193.847294,64.814962,4.172148,-0.045138,5.348157,-4.692002,-0.029276,-5.219453,4.584610,-0.223418,0.576515,-0.043161,-9.034351,188.495749,0
0.087490,154.555364,-168.272020,-9.122538,2.758398,-1.891283,5.780733,-3.184528,1.882114,-5.681089,3.193492,-0.183235,0.573379,-0.035692,2.015518,188.422827,0
0.088532,180.404922,-117.894650,-77.791099,1.469058,-4.049852,5.494995,-0.886004,4.032427,-5.475452,0.930702,-0.175929,0.562862,-0.031958,7.738378,188.420349,0
0.089574,184.352112,-37.194211,-130.431250,0.473778,-5.200142,4.494912,1.162518,5.241749,-4.539589,-1.008325,-0.091910,0.568545,-0.031958,17.419738,188.420432,0
0.090615,155.235914,33.841504,-172.779735,-0.397092,-5.817891,2.820169,3.255816,5.782084,-2.898682,-3.004277,-0.033462,0.578932,-0.054364,20.032348,188.495736,0
0.091657,101.801394,103.524159,-179.058144,-0.532812,-5.317301,0.522359,4.804335,5.374076,-0.615681,-4.587519,-0.044421,0.583113,-0.073035,21.774088,188.495693,0
0.092699,18.093740,147.824834,-183.994698,-0.623292,-4.138609,-1.648456,5.599117,4.194160,1.566599,-5.380919,-0.007891,0.584158,-0.031958,25.246258,188.495622,0
0.093740,-58.071151,169.667108,-149.426516,0.089238,-2.256962,-3.545439,5.337921,2.363637,3.450914,-5.188795,-0.011544,0.576449,-0.058098,23.787268,188.420345,0
0.094782,-112.821401,193.563136,-65.025000,1.650018,0.121725,-5.204307,4.584184,-0.014573,5.158968,-4.445205,-0.044421,0.573771,-0.076769,12.895738,188.495703,0
0.095824,-154.663885,168.688555,9.207955,3.063768,2.006923,-5.644820,3.017009,-1.936991,5.666768,-3.014950,-0.088257,0.571158,-0.050629,3.440578,188.420184,0
0.096865,-180.468074,117.695059,78.147349,4.364418,4.193894,-5.394799,0.740873,-4.072602,5.452737,-0.784181,-0.088257,0.562927,-0.043161,-3.876991,188.420339,0
0.097907,-185.016416,36.620112,130.368940,5.359698,5.287380,-4.351062,-1.270335,-5.267220,4.521071,1.105036,-0.186888,0.541435,-0.024490,-13.524421,188.420405,0
0.098949,-155.344435,-34.113581,172.606629,6.174018,5.883826,-2.660445,-3.348708,-5.851665,2.859180,3.133009,-0.197847,0.583505,-0.058098,-15.254851,188.495689,0
0.099990,-101.683065,-103.325080,179.094319,6.309738,5.436491,-0.390415,-4.919615,-5.447332,0.634933,4.705577,-0.241683,0.582002,-0.031958,-17.030521,188.420300,0
0.101032,-18.156891,-147.541188,183.944698,6.411528,4.225846,1.812149,-5.729322,-4.252713,-1.631281,5.502535,-0.259948,0.585922,-0.054364,-20.434831,188.495609,0
0.102074,57.486244,-169.600919,149.647349,5.732928,2.329998,3.661509,-5.438276,-2.414838,-3.544973,5.324642,-0.267254,0.582394,-0.080503,-16.679911,188.420265,0
0.103115,112.656167,-193.448624,65.553599,4.126908,-0.041588,5.348157,-4.658419,-0.029276,-5.185880,4.595284,-0.223418,0.573445,-0.073035,-8.774221,188.495781,0
0.104157,154.725501,-168.465314,-8.667045,2.781018,-1.955188,5.756921,-3.184528,1.918871,-5.681089,3.172145,-0.190541,0.570505,-0.058098,1.778008,188.420379,0
0.105199,180.472977,-117.749679,-77.852652,1.457748,-4.124408,5.491026,-0.830034,4.039779,-5.483845,0.937817,-0.139399,0.552867,-0.058098,8.394358,188.420274,0
0.106240,184.647017,-36.131092,-130.098864,0.451158,-5.200142,4.447289,1.158786,5.300561,-4.489229,-1.047461,-0.139399,0.579389,-0.046895,18.120958,188.420240,0
0.107282,154.782214,35.399941,-172.459660,-0.351852,-5.757536,2.768578,3.233428,5.800463,-2.839928,-3.043413,-0.059033,0.567500,-0.050629,20.597848,188.495680,0
0.108324,100.655801,104.019476,-179.279735,-0.544122,-5.331503,0.494579,4.834186,5.399806,-0.577911,-4.644444,-0.048074,0.569656,-0.035692,21.694918,188.420296,0
0.109365,17.186340,147.824834,-184.167046,-0.623292,-4.152810,-1.735765,5.632699,4.153727,1.637943,-5.373803,-0.007891,0.583178,-0.017021,25.189708,188.420314,0
0.110407,-57.844301,170.089940,-149.315720,0.077928,-2.193057,-3.608936,5.378966,2.312176,3.539045,-5.252836,-0.033462,0.581284,-0.013287,23.979538,188.420296,0
0.111449,-112.673948,193.768512,-65.505114,1.672638,0.178529,-5.275742,4.569259,-0.051331,5.276475,-4.477225,-0.051727,0.580238,-0.024490,13.054078,188.495680,0
0.112490,-155.344435,168.374451,8.370833,3.052458,2.063727,-5.648789,3.002083,-2.065642,5.687751,-3.000719,-0.069992,0.576449,-0.024490,3.779878,188.495736,0
0.113532,-181.205336,118.359509,77.765720,4.341798,4.218746,-5.363050,0.714753,-4.098332,5.444343,-0.734371,-0.117481,0.563188,-0.031958,-4.159741,188.420207,0
0.114574,-184.732854,36.777164,130.504356,5.359698,5.337084,-4.279627,-1.374814,-5.340735,4.487497,1.190424,-0.175929,0.562143,-0.043161,-12.857131,188.420314,0
0.115615,-155.639340,-35.237105,172.397349,6.151398,5.912229,-2.620759,-3.456918,-5.833286,2.796230,3.204166,-0.208806,0.562601,-0.039427,-15.254851,188.495600,0
0.116657,-100.333308,-104.013691,179.328220,6.321048,5.415190,-0.299138,-5.012899,-5.392196,0.504836,4.766060,-0.241683,0.574882,-0.046895,-17.550781,188.495756,0
0.117699,-16.580284,-147.408299,184.547917,6.422838,4.193894,1.899458,-5.774099,-4.168171,-1.698428,5.527440,-0.230724,0.568414,-0.024490,-20.321731,188.344769,0
0.118740,58.280219,-169.673405,149.130303,5.710308,2.283844,3.713101,-5.497978,-2.344999,-3.536579,5.356663,-0.252642,0.571746,-0.069301,-18.138901,188.420184,0
0.119782,112.315892,-194.100993,65.245834,4.149528,-0.080641,5.387843,-4.677076,0.051590,-5.303387,4.573937,-0.230724,0.581871,-0.039427,-9.181381,188.495816,0
0.120824,154.952351,-168.127049,-7.965341,2.792328,-2.040395,5.820419,-3.139752,1.959304,-5.777613,3.118777,-0.208806,0.576384,-0.017021,1.868488,188.495689,0
0.121865,181.096815,-118.571181,-77.384849,1.423818,-4.149260,5.514838,-0.803914,4.069185,-5.441878,0.870218,-0.117481,0.564626,-0.031958,7.704448,188.344954,0
0.122907,184.420167,-37.351263,-130.517425,0.428538,-5.274698,4.439352,1.211026,5.274831,-4.455655,-1.072366,-0.135746,0.574098,-0.069301,17.363188,188.495709,0
0.123949,155.428736,34.735491,-172.533523,-0.340542,-5.817891,2.740798,3.285667,5.822518,-2.865109,-3.068318,-0.069992,0.570636,-0.069301,19.941868,188.495633,0
0.124990,100.599089,104.079880,-179.218182,-0.510192,-5.303100,0.435050,4.841649,5.399806,-0.565321,-4.683581,-0.051727,0.570505,-0.028224,21.785398,188.495712,0
0.126032,16.256255,147.704025,-184.536364,-0.578052,-4.124408,-1.767514,5.632699,4.175782,1.650533,-5.395150,-0.018850,0.553912,-0.073035,25.302808,188.344889,0
0.127074,-59.035263,169.775836,-149.167993,0.111858,-2.214358,-3.608936,5.360309,2.308501,3.518061,-5.238605,-0.018850,0.572073,-0.076769,23.730718,188.495691,0
