1-Time,2-VGERA,3-VGERB,4-VGERC,5-VN,6-IGERAN,7-IGERBN,8-IGERCN,9-IGERAT,10-IGERBT,11-IGERCT,12-IN,13-IFD,14-IFAULT,15-VFAULT,16-Speed (rad/s),17-Active Power,18-Reactive Power,19-FAULT 
0.000000,62.429189,83.552594,-195.211591,-3.401300,2.735810,-6.265469,3.315850,-2.217409,6.376303,-3.826620,-0.061180,0.186533,-0.025873,58.831215,188.420446,989.864225,-1299.544037,0
0.001042,18.461179,150.064586,-157.675077,-2.703224,4.574216,-5.861800,1.011639,-4.136737,5.785445,-1.469565,0.037267,0.208443,-0.022156,16.128389,188.495902,989.697924,-1299.041398,0
0.002083,-30.478797,200.204034,-92.858060,-1.577294,6.001641,-4.488496,-1.578666,-5.507686,4.444993,1.142614,0.051852,0.198315,-0.018440,-33.644664,188.495863,988.699889,-1298.550595,0
0.003125,-103.702313,177.195559,-46.329309,-0.654031,6.585087,-2.582515,-3.797823,-6.030128,2.434314,3.309276,0.095606,0.188462,-0.003573,-105.348933,188.495788,988.966096,-1297.627585,0
0.004167,-176.315633,129.534308,-1.586854,0.257972,6.148420,-0.401874,-5.359738,-5.652191,0.273716,4.794334,0.113837,0.195559,-0.033307,-175.567104,188.345006,988.091061,-1297.428897,0
0.005208,-192.463227,74.285781,57.579635,1.428940,4.574216,2.207405,-6.032444,-4.018168,-2.319002,5.445475,0.164883,0.200864,-0.022156,-185.451913,188.495803,986.964540,-1297.080186,0
0.006250,-169.422679,28.127891,141.559838,3.050279,2.886259,4.171647,-6.152294,-2.361914,-4.210627,5.491169,0.164883,0.209476,-0.044457,-163.824671,188.495848,985.412337,-1296.230301,0
0.007292,-118.200117,-17.466238,187.675432,3.894726,0.603847,5.182898,-4.741158,-0.123933,-5.154236,4.021342,0.135714,0.222223,-0.011006,-110.786704,188.495861,984.810320,-1294.996750,0
0.008333,-62.966082,-83.226550,195.136559,4.052357,-1.887726,6.260735,-3.345486,2.328954,-6.287447,2.601017,0.102898,0.209545,-0.025873,-57.996420,188.420461,983.612999,-1294.742295,0
0.009375,-18.421777,-150.020422,158.049657,3.343021,-3.700445,5.861228,-1.041275,4.211229,-5.758321,0.255387,0.044560,0.206307,-0.014723,-15.237303,188.495855,982.931471,-1294.479698,0
0.010417,30.676399,-200.242085,92.795180,2.127016,-5.072828,4.487923,1.549030,5.637757,-4.391412,-2.356793,0.033621,0.195076,-0.022156,34.198000,188.495906,981.495505,-1293.957096,0
0.011458,103.436618,-177.867841,46.278581,1.226272,-5.615910,2.573620,3.787517,6.141673,-2.358686,-4.523455,-0.017425,0.187566,-0.040740,105.294320,188.495890,980.715875,-1293.790088,0
0.012500,175.869139,-129.466654,1.754855,0.348047,-5.241624,0.392978,5.306905,5.756325,-0.286276,-5.966627,-0.028364,0.192458,-0.048173,175.647591,188.420381,980.241892,-1293.893943,0
0.013542,192.751228,-73.842287,-56.864809,-0.834180,-3.689437,-2.178847,6.049201,4.140829,2.337307,-6.652038,-0.061180,0.197901,-0.037023,185.993991,188.495944,979.197882,-1293.873776,0
0.014583,169.371682,-27.390772,-141.063742,-2.433000,-2.041843,-4.093150,6.141988,2.525333,4.211295,-6.674885,-0.075764,0.206720,-0.014723,164.107808,188.495861,978.493488,-1293.387800,0
0.015625,117.911822,17.815772,-187.446673,-3.345004,0.200205,-5.146017,4.765647,0.216951,5.212225,-5.212674,-0.046595,0.220156,-0.025873,111.002291,188.495850,978.184337,-1293.241369,0
0.016667,62.395289,83.024068,-195.090074,-3.457597,2.706454,-6.269630,3.323582,-2.224819,6.305752,-3.819004,-0.010133,0.198177,-0.048173,58.043132,188.420553,977.401539,-1292.641198,0
0.017708,18.043082,149.747470,-157.966717,-2.737001,4.592564,-5.849316,1.042568,-4.114505,5.785445,-1.477181,0.015390,0.212439,-0.037023,15.430373,188.495890,977.508450,-1292.314024,0
0.018750,-30.343198,199.957389,-92.420600,-1.532256,5.957607,-4.480173,-1.601863,-5.496570,4.392080,1.108343,0.062790,0.191976,-0.029590,-33.475789,188.495875,977.083838,-1291.595403,0
0.019792,-103.058218,177.606634,-45.806788,-0.597734,6.577748,-2.590838,-3.813287,-6.041244,2.434314,3.339739,0.091960,0.184397,-0.011006,-104.808534,188.495872,977.001857,-1292.001570,0
0.020833,-175.490739,129.640013,-1.283062,0.257972,6.141081,-0.360259,-5.355872,-5.659602,0.291353,4.798142,0.128422,0.193009,0.003860,-174.846571,188.420439,977.050533,-1291.838594,0
0.021875,-192.610126,73.545845,56.996355,1.428940,4.625589,2.153305,-6.082704,-4.107095,-2.310183,5.434052,0.150299,0.198039,-0.037023,-185.564496,188.495812,977.937820,-1291.523520,0
0.022917,-169.467879,27.458425,140.952255,2.971464,2.900937,4.125870,-6.190955,-2.424904,-4.206218,5.529248,0.157591,0.190253,-0.029590,-164.038580,188.495821,978.887390,-1291.309308,0
0.023958,-117.725521,-17.560198,187.638977,3.883467,0.669897,5.182898,-4.783685,-0.149870,-5.176282,4.032766,0.143006,0.226081,-0.033307,-111.056904,188.495859,979.297568,-1291.196416,0
0.025000,-62.468886,-82.921180,195.306682,4.007319,-1.821675,6.277381,-3.314557,2.328954,-6.313903,2.593402,0.110191,0.200313,-0.014723,-58.615628,188.420490,979.362673,-1291.325807,0
0.026042,-18.353977,-149.703307,158.462814,3.331761,-3.733470,5.882035,-1.045141,4.196408,-5.753912,0.263003,0.059144,0.202655,-0.014723,-15.811478,188.495826,979.336039,-1291.195719,0
0.027083,30.427800,-199.948460,93.621494,2.138276,-5.091175,4.504569,1.533566,5.630346,-4.435506,-2.326330,0.004452,0.183363,-0.037023,34.074159,188.420470,979.755590,-1291.211276,0
0.028125,103.199319,-177.785626,47.141349,1.237532,-5.615910,2.548650,3.721793,6.104620,-2.442465,-4.485376,-0.050241,0.190253,-0.055607,105.339354,188.495953,980.210175,-1290.532817,0
0.029167,175.157244,-130.476725,1.961434,0.370565,-5.241624,0.455401,5.310771,5.793378,-0.286276,-5.951395,-0.072118,0.197419,-0.055607,175.253550,188.495901,980.253579,-1290.872265,0
0.030208,192.717328,-75.087258,-56.621775,-0.822920,-3.682098,-2.112262,6.026005,4.174176,2.284395,-6.636807,-0.079410,0.202586,-0.074190,186.106575,188.495839,980.584742,-1290.707442,0
0.031250,169.812379,-28.506548,-140.529068,-2.376704,-2.038174,-4.093150,6.130390,2.558680,4.202476,-6.712964,-0.053887,0.208167,-0.044457,164.524366,188.495997,980.853137,-1291.187245,0
0.032292,118.974015,17.064091,-187.191488,-3.322485,0.167179,-5.108564,4.757915,0.246594,5.216635,-5.220290,-0.090349,0.220569,-0.033307,111.869182,188.495783,980.862429,-1291.508136,0
0.033333,63.559181,82.378092,-195.053619,-3.468856,2.684438,-6.248823,3.288787,-2.191472,6.252840,-3.799965,-0.053887,0.208581,-0.018440,58.910023,188.495834,980.073460,-1291.126572,0
0.034375,18.867977,149.383375,-158.610756,-2.770779,4.581555,-5.840993,1.065764,-4.077453,5.763398,-1.496220,0.022683,0.205825,-0.029590,16.004548,188.495792,979.780727,-1290.915474,0
0.035417,-29.778202,199.381883,-93.222610,-1.577294,5.968616,-4.496819,-1.524540,-5.489159,4.453811,1.115959,0.095606,0.196799,-0.063040,-33.047973,188.495919,979.924840,-1291.258191,0
0.036458,-102.911318,178.029455,-46.390068,-0.654031,6.533715,-2.607484,-3.797823,-6.026423,2.456361,3.297853,0.121129,0.187566,-0.044457,-104.301909,188.495761,980.075313,-1290.959765,0
0.037500,-174.677144,130.156794,-1.538248,0.235454,6.141081,-0.422682,-5.332675,-5.615138,0.291353,4.782911,0.150299,0.193423,-0.018440,-174.700213,188.420361,979.261574,-1290.697634,0
0.038542,-193.220322,74.579406,56.583198,1.406421,4.596233,2.136659,-6.067239,-4.036695,-2.283727,5.426436,0.172176,0.198315,-0.018440,-185.992313,188.496011,978.475271,-1290.861804,0
0.039583,-169.705177,27.986951,140.235306,2.971464,2.911945,4.130032,-6.129097,-2.406377,-4.206218,5.502593,0.146652,0.208650,-0.014723,-163.880963,188.495973,977.684876,-1290.882753,0
0.040625,-118.493915,-17.278318,187.505309,3.917245,0.677236,5.112152,-4.799150,-0.123933,-5.185101,4.025150,0.110191,0.221947,-0.018440,-111.282070,188.495817,977.272170,-1291.437098,0
0.041667,-62.683584,-82.169499,195.209469,4.097394,-1.818006,6.252411,-3.326155,2.299311,-6.269810,2.593402,0.095606,0.213541,-0.033307,-57.962645,188.420372,976.814359,-1290.801932,0
0.042708,-18.060179,-149.491897,159.094701,3.309243,-3.711454,5.844582,-1.064471,4.181587,-5.692180,0.263003,0.055498,0.210648,-0.033307,-15.248561,188.495883,976.293340,-1290.406826,0
0.043750,29.987103,-199.572620,93.317702,2.149535,-5.028794,4.496246,1.467841,5.578472,-4.435506,-2.303483,0.004452,0.181365,0.007577,33.567534,188.495935,976.062169,-1289.522741,0
0.044792,102.589124,-178.713482,46.545917,1.226272,-5.641596,2.598589,3.698596,6.123147,-2.442465,-4.477761,-0.021072,0.185430,-0.029590,104.416171,188.495850,976.278618,-1289.740874,0
0.045833,174.287150,-130.065650,1.997889,0.359306,-5.208598,0.409624,5.306905,5.730388,-0.290685,-5.924740,-0.042949,0.194249,-0.044457,174.791958,188.420408,975.356980,-1288.826930,0
0.046875,193.372724,-74.147657,-56.135708,-0.834180,-3.722462,-2.103939,5.979611,4.188997,2.231482,-6.583497,-0.093995,0.198728,-0.022156,186.410549,188.495855,975.681202,-1287.678234,0
0.047917,169.529881,-27.707887,-139.933636,-2.376704,-2.071199,-4.076504,6.176784,2.543859,4.162792,-6.671077,-0.064826,0.218020,-0.051890,164.400525,188.420504,975.189638,-1286.612708,0
0.048958,118.567218,17.275502,-187.227943,-3.254929,0.086451,-5.108564,4.800443,0.283646,5.181360,-5.235521,-0.064826,0.222223,-0.025873,112.330773,188.495933,975.664452,-1285.848766,0
0.050000,62.960285,81.920037,-194.992861,-3.468856,2.691777,-6.223853,3.342913,-2.172946,6.288115,-3.849467,-0.002841,0.187084,-0.018440,59.304064,188.420428,976.430343,-1285.720432,0
0.051042,18.472479,149.183710,-158.999609,-2.815817,4.552199,-5.849316,1.077363,-4.025579,5.803083,-1.526683,0.037267,0.202931,-0.007290,16.398589,188.495886,977.199189,-1285.247102,0
0.052083,-29.540903,199.088258,-93.854497,-1.532256,5.935591,-4.575888,-1.516808,-5.478043,4.475858,1.062649,0.081021,0.199830,-0.003573,-32.721481,188.420481,977.564812,-1284.914573,0
0.053125,-102.368922,178.393550,-47.179926,-0.676550,6.570409,-2.632454,-3.774626,-6.048655,2.496045,3.248351,0.091960,0.191011,-0.007290,-103.986676,188.495843,977.991016,-1284.851760,0
0.054167,-174.259047,130.849749,-2.097224,0.224195,6.203462,-0.468458,-5.328809,-5.674423,0.348675,4.760064,0.139360,0.194249,-0.022156,-174.272397,188.495828,978.745447,-1284.851127,0
0.055208,-193.333321,75.366321,56.267255,1.395162,4.621919,2.099205,-6.082704,-4.110800,-2.248452,5.498785,0.146652,0.202104,-0.025873,-186.104896,188.495774,979.938681,-1285.650475,0
0.056250,-170.010275,28.879572,140.198851,2.982723,2.948640,4.096739,-6.187089,-2.495304,-4.223856,5.548287,0.135714,0.207409,-0.018440,-164.410104,188.425905,981.028347,-1286.229587,0
0.057292,-119.477009,-16.702813,187.553916,3.894726,0.706592,5.162091,-4.818480,-0.179512,-5.114551,4.063229,0.110191,0.221327,-0.037023,-112.047636,188.496031,981.567666,-1285.689456,0
0.058333,-64.118675,-81.969834,195.367441,4.041097,-1.788650,6.227442,-3.364817,2.277080,-6.300675,2.620057,0.095606,0.210579,-0.025873,-58.829536,188.420593,981.931218,-1286.289054,0
0.059375,-19.031973,-149.315722,159.398492,3.331761,-3.678428,5.836259,-1.103133,4.188997,-5.771549,0.312505,0.055498,0.207892,-0.044457,-15.822736,188.496007,982.851180,-1286.952087,0
0.060417,29.727205,-199.466915,94.046802,2.138276,-5.021455,4.512892,1.483306,5.552536,-4.435506,-2.253981,0.011744,0.198246,-0.011006,33.398659,188.420703,982.938914,-1286.542612,0
0.061458,102.476124,-178.572542,46.752496,1.248791,-5.619579,2.606912,3.725659,6.100915,-2.486558,-4.473953,-0.050241,0.185224,-0.037023,104.213521,188.496073,983.152002,-1286.229763,0
0.062500,173.936852,-130.970016,2.301681,0.359306,-5.256302,0.401301,5.314637,5.785967,-0.295095,-5.947587,-0.083057,0.192596,-0.022156,174.476725,188.496190,983.542878,-1287.096598,0
0.063542,193.282324,-74.852358,-55.673945,-0.744105,-3.729801,-2.124747,6.014406,4.196408,2.257938,-6.648230,-0.104934,0.197488,-0.048173,186.410549,188.496181,983.497633,-1288.251284,0
0.064583,169.947978,-28.224668,-139.435418,-2.331667,-2.041843,-4.076504,6.107193,2.543859,4.193658,-6.697732,-0.097641,0.207823,-0.055607,164.513108,188.420643,983.406944,-1289.019057,0
0.065625,119.143514,16.805701,-187.142881,-3.311226,0.119476,-5.096079,4.788844,0.287352,5.150494,-5.231713,-0.072118,0.221741,-0.037023,112.229448,188.496091,983.144831,-1288.920980,0
0.066667,63.344483,81.285807,-195.284501,-3.423819,2.666090,-6.219692,3.331314,-2.169240,6.274887,-3.799965,-0.050241,0.211268,-0.037023,58.842473,188.496123,982.288315,-1289.046157,0
0.067708,18.687178,148.784380,-159.449221,-2.782039,4.533852,-5.853477,1.088961,-4.040400,5.781036,-1.515260,0.033621,0.207754,-0.051890,16.049581,188.496257,981.781290,-1289.313632,0
0.068750,-29.145406,198.794633,-93.429189,-1.543516,5.950268,-4.517626,-1.528407,-5.474338,4.449402,1.077881,0.048206,0.193767,-0.051890,-32.394990,188.420638,981.196552,-1289.176955,0
0.069792,-102.018624,178.851605,-46.572343,-0.631512,6.552062,-2.669907,-3.759162,-6.019012,2.460770,3.233119,0.102898,0.185637,-0.025873,-103.558860,188.496053,980.747897,-1288.818333,0
0.070837,-173.942649,130.250754,-1.526096,0.224195,6.104386,-0.439328,-5.375202,-5.622549,0.344266,4.741025,0.117483,0.189840,-0.022156,-174.373722,188.420674,980.257014,-1287.987055,0
0.071875,-193.672319,74.755581,55.769036,1.383902,4.629258,2.095044,-6.036310,-4.099684,-2.244042,5.411205,0.150299,0.196110,-0.044457,-186.251254,188.496127,979.703043,-1286.947068,0
0.072917,-169.693877,28.080911,139.153807,2.993982,2.900937,4.084255,-6.187089,-2.413788,-4.166534,5.517824,0.161237,0.208029,-0.029590,-164.139904,188.420481,978.469353,-1285.940828,0
0.073959,-119.002412,-16.667578,187.444551,3.894726,0.677236,5.120476,-4.799150,-0.186923,-5.141007,4.051805,0.128422,0.244753,-0.025873,-112.306578,188.496100,978.419969,-1285.931234,0
0.075000,-63.214681,-81.100703,195.282379,4.041097,-1.759294,6.239927,-3.380281,2.288196,-6.243353,2.661943,0.070083,0.206031,-0.033307,-59.099736,188.420727,978.257175,-1285.159045,0
0.076042,-18.613876,-149.033841,159.848104,3.421836,-3.689437,5.898681,-1.122463,4.137124,-5.753912,0.323928,0.040913,0.200037,-0.018440,-16.149227,188.496082,978.290843,-1284.448139,0
0.077083,29.320408,-198.867919,94.326290,2.183313,-5.054481,4.508731,1.444645,5.552536,-4.448734,-2.246365,0.004452,0.195696,-0.003573,32.925810,188.420680,978.154621,-1284.421840,0
0.078125,102.204926,-179.159792,47.505899,1.282569,-5.652605,2.661012,3.675400,6.119441,-2.504196,-4.424451,-0.021072,0.190322,-0.018440,104.078421,188.496147,978.466958,-1284.444736,0
0.079167,173.394456,-131.169681,2.848506,0.393084,-5.267310,0.484532,5.268244,5.782262,-0.387692,-5.898086,-0.068472,0.196523,-0.044457,174.352884,188.420736,978.857102,-1283.405583,0
0.080208,193.824721,-75.756723,-55.576732,-0.800402,-3.755487,-2.078970,6.026005,4.203818,2.240301,-6.572074,-0.075764,0.200933,-0.033307,186.748299,188.496000,978.655054,-1282.949545,0
0.081250,169.914079,-29.105543,-139.386811,-2.421741,-2.060191,-4.026566,6.153587,2.588322,4.145155,-6.690117,-0.130457,0.201622,-0.040740,164.681983,188.420701,978.906195,-1282.453999,0
0.082292,120.194407,16.230196,-187.142881,-3.322485,0.057095,-5.125210,4.827505,0.324404,5.203407,-5.300254,-0.075764,0.224152,-0.048173,113.231439,188.495973,979.881852,-1283.490869,0
0.083333,64.530975,81.121376,-194.980709,-3.480115,2.596370,-6.219692,3.350645,-2.109956,6.292524,-3.887545,0.011744,0.209821,-0.029590,59.788172,188.420604,980.996408,-1283.321451,0
0.084375,19.500773,148.772635,-159.777316,-2.827076,4.522844,-5.911739,1.189480,-4.044105,5.820720,-1.545722,0.011744,0.212921,-0.033307,16.691306,188.420593,981.465630,-1283.792791,0
0.085417,-28.896808,198.512752,-94.255503,-1.577294,5.939260,-4.575888,-1.454950,-5.466928,4.515543,1.039802,0.081021,0.201622,-0.037023,-32.136048,188.420737,982.187999,-1283.799096,0
0.086458,-101.747426,178.863350,-47.422960,-0.654031,6.574079,-2.707361,-3.739831,-6.074591,2.513683,3.259774,0.084667,0.188737,-0.022156,-103.232368,188.496121,982.752277,-1284.703614,0
0.087500,-173.434152,131.096394,-2.328106,0.212935,6.163098,-0.476781,-5.332675,-5.674423,0.344266,4.763872,0.157591,0.193629,-0.033307,-173.675705,188.420705,982.844753,-1285.634230,0
0.088542,-193.796618,75.284106,55.465244,1.406421,4.698978,2.107528,-6.105900,-4.133032,-2.244042,5.449283,0.153945,0.198935,-0.014723,-186.420129,188.420674,983.250367,-1286.288857,0
0.089583,-170.021575,28.844337,139.056594,2.993982,2.966987,4.084255,-6.241215,-2.473072,-4.192990,5.536863,0.172176,0.208925,-0.037023,-164.398846,188.420631,983.800005,-1286.835882,0
0.090625,-119.431809,-16.279992,187.347337,3.905986,0.735948,5.141283,-4.868740,-0.238796,-5.211558,4.131770,0.143006,0.222016,-0.022156,-112.092670,188.496107,985.090881,-1287.714660,0
0.091667,-63.655378,-81.006743,195.428199,4.063616,-1.748286,6.294027,-3.399612,2.221501,-6.260991,2.703829,0.073729,0.213335,-0.022156,-58.739469,188.420674,985.945359,-1287.396399,0
0.092708,-18.896374,-148.763706,159.811649,3.376799,-3.682098,5.931974,-1.157258,4.163061,-5.815643,0.362006,0.062790,0.209545,-0.033307,-15.969094,188.420766,986.697250,-1287.889965,0
0.093750,28.947510,-199.091074,94.131864,2.172053,-5.058150,4.529538,1.467841,5.571062,-4.501647,-2.208287,-0.010133,0.204860,-0.048173,32.531768,188.421425,987.562887,-1287.912813,0
0.094792,101.617330,-179.124557,47.347928,1.248791,-5.645266,2.715112,3.679266,6.137968,-2.530652,-4.470145,-0.053887,0.188117,-0.025873,103.436697,188.495955,987.620810,-1288.444878,0
0.095833,173.134557,-131.251896,2.654079,0.381825,-5.315013,0.480370,5.303039,5.808199,-0.392101,-5.959011,-0.064826,0.195214,-0.033307,173.846259,188.495649,987.933772,-1289.194756,0
0.096875,193.847320,-75.192963,-54.908390,-0.766624,-3.795851,-2.095616,6.029871,4.240871,2.196207,-6.648230,-0.101287,0.201415,-0.025873,186.804591,188.420244,988.807718,-1289.437685,0
0.097917,170.083578,-28.471313,-138.609104,-2.376704,-2.140919,-4.034889,6.172917,2.625375,4.127517,-6.766273,-0.108580,0.225875,-0.048173,164.772049,188.420309,989.776468,-1289.495881,0
0.098958,119.471212,16.159726,-187.045668,-3.299967,0.038748,-5.116887,4.842970,0.387394,5.150494,-5.334525,-0.061180,0.232765,-0.011006,113.006273,188.495622,990.494144,-1288.324606,0
0.100000,63.615681,80.498891,-195.369563,-3.502634,2.603709,-6.294599,3.381574,-2.121072,6.296934,-3.914200,-0.006487,0.221672,-0.029590,59.709364,188.495550,990.725255,-1288.271143,0
0.101042,19.093975,148.479009,-159.935288,-2.804557,4.526513,-5.924223,1.131488,-3.992232,5.838358,-1.618071,-0.017425,0.191493,-0.033307,16.916472,188.420294,991.676792,-1287.357339,0
0.102083,-28.422211,198.559732,-94.316261,-1.566034,5.946599,-4.546757,-1.451084,-5.463222,4.489086,0.986493,0.095606,0.171995,-0.074190,-31.708232,188.420028,991.621618,-1286.921947,0
0.103125,-101.419728,179.380131,-47.641690,-0.665290,6.570409,-2.715684,-3.689571,-6.070886,2.584233,3.240735,0.128422,0.190047,-0.055607,-103.018460,188.495703,992.327893,-1286.781329,0
0.104167,-172.812657,131.495725,-2.899235,0.212935,6.254835,-0.497589,-5.328809,-5.722591,0.397178,4.741025,0.113837,0.196385,-0.022156,-173.495572,188.495698,992.855774,-1286.627977,0
0.105208,-194.056516,76.247197,55.210059,1.383902,4.717326,2.040944,-6.090436,-4.162674,-2.173492,5.456899,0.164883,0.201622,-0.025873,-186.577745,188.420227,993.492016,-1286.516921,0
0.106250,-170.270173,29.607762,138.825712,3.016501,2.981665,4.059286,-6.214152,-2.550883,-4.170943,5.559711,0.135714,0.204102,-0.025873,-164.522687,188.420312,994.305841,-1286.473366,0
0.107291,-120.381003,-15.657507,187.468854,3.917245,0.805668,5.103829,-4.880338,-0.268438,-5.189511,4.116538,0.124775,0.222636,-0.025873,-113.241019,188.495736,994.182019,-1286.461625,0
0.108333,-64.853170,-80.454727,195.440351,4.086135,-1.770302,6.214958,-3.426675,2.225206,-6.274219,2.707637,0.110191,0.206238,-0.014723,-59.775235,188.495691,993.921303,-1287.054359,0
0.109375,-19.924667,-148.857666,160.504295,3.421836,-3.630725,5.961104,-1.215250,4.148239,-5.837690,0.362006,0.044560,0.204929,-0.018440,-16.700885,188.420372,993.944119,-1287.587842,0
0.110417,28.540713,-198.750469,94.921722,2.194572,-5.054481,4.579477,1.378921,5.567357,-4.519284,-2.158785,0.000805,0.198452,0.000144,32.216535,188.420226,994.177522,-1287.440484,0
