1-Time,2-VGERA,3-VGERB,4-VGERC,5-VN,6-IGERAN,7-IGERBN,8-IGERCN,9-IGERAT,10-IGERBT,11-IGERCT,12-IN,13-IFD,14-IFAULT,15-VFAULT,16-Speed (rad/s),17-FAULT 
0.000000,-151.930342,168.579827,-2.253220,2.837568,4.648330,-4.938412,-0.102417,-4.326228,5.007887,-0.015686,-0.143052,0.441945,-0.035692,12.997528,188.420329,0
0.001042,-182.645834,117.840030,58.733523,3.991188,5.475544,-3.541470,-2.184521,-5.337060,3.698519,2.026518,-0.179582,0.445016,-0.076769,14.976778,188.420448,0
0.002083,-188.714071,39.543691,117.368940,5.110878,5.685011,-1.692110,-4.061400,-5.502468,1.868761,3.819673,-0.227071,0.450568,-0.065566,17.679868,188.344992,0
0.003125,-160.584670,-27.034171,164.715531,5.993058,4.996257,0.339804,-5.136035,-4.936403,-0.145652,4.968858,-0.252642,0.464352,-0.050629,17.272708,188.269622,0
0.004167,-91.452130,-79.815641,192.512879,6.535938,3.448336,2.732861,-5.781562,-3.348479,-2.458029,5.520324,-0.270907,0.463176,-0.061832,10.170028,188.420386,0
0.005208,-25.438777,-136.124734,187.760985,6.479388,1.538286,4.229017,-5.206931,-1.517955,-4.082150,5.089824,-0.238030,0.471929,-0.039427,4.334068,188.420392,0
0.006250,37.205853,-181.609338,139.897349,5.518038,-0.765845,5.419592,-4.042743,0.797767,-5.265617,3.954871,-0.186888,0.457297,-0.028224,1.065478,188.344974,0
0.007292,90.345468,-198.087691,64.347159,4.138218,-2.910213,5.621990,-2.094968,3.080408,-5.622336,2.136812,-0.161317,0.446387,-0.009553,-3.662101,188.269518,0
0.008333,151.266038,-168.646528,2.264773,2.973288,-4.546891,5.038608,0.039375,4.627899,-4.980242,0.076818,-0.139399,0.438875,-0.054364,-8.039071,188.344959,0
0.009375,182.151667,-116.662398,-58.648106,1.785738,-5.377656,3.605949,2.125211,5.587270,-3.679267,-1.897787,-0.106522,0.442599,-0.050629,-10.221901,188.420280,0
0.010417,188.401385,-37.351263,-116.914205,0.756528,-5.551620,1.764526,3.893881,5.730624,-1.862099,-3.701615,-0.069992,0.463699,-0.065566,-12.936301,188.420122,0
0.011458,159.591434,28.972900,-164.519319,-0.159582,-4.866416,-0.188017,4.946127,5.171910,0.127133,-4.818779,-0.059033,0.405102,-0.069301,-11.047531,188.269604,0
0.012500,89.721631,80.618765,-192.489016,-0.759012,-3.339796,-2.592979,5.636430,3.587662,2.473085,-5.370245,-0.015197,0.442337,-0.054364,-5.324671,188.420347,0
0.013542,23.799018,136.311732,-187.724811,-0.634602,-1.483001,-4.049449,5.080456,1.713029,4.038451,-5.025134,-0.026156,0.465266,-0.058098,0.613078,188.420274,0
0.014583,-37.847472,181.433909,-139.750379,0.258888,0.824680,-5.255899,3.878955,-0.569612,5.251295,-3.822582,-0.066339,0.456774,-0.043161,3.779878,188.495734,0
0.015625,-90.714867,198.467983,-63.990909,1.672638,2.958397,-5.466234,1.979688,-2.826522,5.557654,-2.082795,-0.066339,0.448347,-0.050629,8.383048,188.269566,0
0.016667,-151.612752,168.483179,-2.253220,2.871498,4.591525,-4.918569,-0.132268,-4.337256,4.957527,-0.026359,-0.132093,0.445146,-0.065566,13.110628,188.420388,0
0.017708,-182.974766,117.767544,58.647349,3.957258,5.454243,-3.517659,-2.173327,-5.270896,3.723699,2.030076,-0.168623,0.444820,-0.050629,15.180358,188.420363,0
0.018750,-188.419166,39.422882,117.184281,5.076948,5.667259,-1.672268,-4.024086,-5.432629,1.835187,3.744958,-0.205153,0.452136,-0.076769,17.431048,188.495718,0
0.019792,-160.596013,-26.828796,164.887879,6.015678,4.978505,0.292181,-5.098721,-4.884942,-0.107881,4.922606,-0.248989,0.462588,-0.035692,17.351878,188.269460,0
0.020833,-91.735692,-79.984773,192.032766,6.581178,3.427034,2.677300,-5.721860,-3.337452,-2.428653,5.498977,-0.278213,0.462849,-0.043161,10.034308,188.420323,0
0.021875,-25.495489,-136.305948,187.785607,6.479388,1.566688,4.201237,-5.180811,-1.503252,-4.103133,5.075593,-0.252642,0.471015,-0.061832,4.537648,188.420372,0
0.022917,37.296593,-181.089859,139.946591,5.563278,-0.723241,5.387843,-3.990504,0.768361,-5.223650,3.951314,-0.252642,0.455141,-0.035692,0.839278,188.495823,0
0.023958,90.492921,-198.389713,64.359470,4.126908,-2.842757,5.618021,-2.091237,3.076732,-5.622336,2.133254,-0.190541,0.446845,-0.031958,-3.662101,188.269532,0
0.025000,151.300066,-168.344505,2.264773,2.961978,-4.497187,5.022733,-0.001670,4.591141,-5.005422,0.091050,-0.172276,0.441357,-0.054364,-8.016451,188.495779,0
0.026042,182.469257,-116.746964,-58.537311,1.819668,-5.356354,3.649603,2.080435,5.557864,-3.700250,-1.929807,-0.117481,0.443382,-0.043161,-10.515961,188.495758,0
0.027083,188.163193,-37.617043,-116.803409,0.711288,-5.611975,1.772463,3.938657,5.708569,-1.820132,-3.708731,-0.037115,0.437242,-0.073035,-12.789271,188.495622,0
0.028125,159.795599,28.815848,-164.642425,-0.170892,-4.923221,-0.184049,5.002097,5.193964,0.089363,-4.843684,-0.018850,0.426006,-0.061832,-11.793991,188.269509,0
0.029167,89.438068,80.775816,-192.513637,-0.725082,-3.361098,-2.592979,5.681207,3.558256,2.498265,-5.427171,-0.022503,0.457035,-0.065566,-5.358601,188.495747,0
0.030208,23.674250,136.468784,-187.847917,-0.679842,-1.490101,-4.105009,5.106576,1.749787,4.126582,-5.028692,-0.033462,0.443317,-0.035692,0.782728,188.495716,0
0.031250,-37.972240,181.832578,-139.368750,0.247578,0.849532,-5.335270,3.905075,-0.584315,5.213525,-3.858160,-0.048074,0.456447,-0.046895,3.417958,188.495629,0
0.032292,-90.692182,198.528388,-63.806250,1.672638,3.054255,-5.545605,2.020733,-2.808144,5.637391,-2.072121,-0.088257,0.447237,-0.065566,8.100298,188.269467,0
0.033333,-151.998397,168.567746,-2.007008,2.826258,4.651880,-4.954286,-0.113611,-4.374013,4.995297,-0.008570,-0.132093,0.444036,-0.046895,12.963598,188.495772,0
0.034375,-182.645834,117.586331,58.844318,3.979878,5.468444,-3.529565,-2.206909,-5.348087,3.702716,2.026518,-0.175929,0.448543,-0.046895,14.988088,188.495821,0
0.035417,-188.725414,39.422882,117.368940,5.122188,5.716963,-1.652425,-4.087520,-5.491441,1.898138,3.833905,-0.216112,0.452136,-0.043161,17.679868,188.495857,0
0.036458,-160.505273,-26.961686,164.666288,5.981748,4.996257,0.335836,-5.150960,-4.995215,-0.145652,4.997320,-0.219765,0.463960,-0.054364,17.250088,188.420396,0
0.037500,-91.406760,-79.743155,192.734470,6.558558,3.473187,2.744766,-5.815144,-3.355830,-2.512586,5.545229,-0.245336,0.465658,-0.065566,10.192648,188.495779,0
0.038542,-25.631599,-136.148896,187.662501,6.434148,1.538286,4.248860,-5.233050,-1.481198,-4.090543,5.114729,-0.201500,0.461935,-0.073035,4.401928,188.495745,0
0.039583,36.944976,-181.826794,139.848106,5.551968,-0.762294,5.447372,-4.072594,0.790416,-5.311781,3.990450,-0.238030,0.455990,-0.069301,1.076788,188.495734,0
0.040625,90.583661,-198.075610,64.347159,4.092978,-2.938615,5.625958,-2.087505,3.058354,-5.643319,2.147485,-0.175929,0.448935,-0.005818,-3.673411,188.420390,0
0.041667,151.538258,-168.719013,2.252462,3.007218,-4.525589,5.058451,0.039375,4.646278,-5.038995,0.073261,-0.139399,0.442076,-0.058098,-8.061691,188.495633,0
0.042708,182.174352,-116.867773,-58.488068,1.797048,-5.381206,3.625792,2.106554,5.620351,-3.696054,-1.951154,-0.091910,0.441945,-0.035692,-10.244521,188.495749,0
0.043750,188.571523,-37.629124,-116.938826,0.711288,-5.601324,1.828023,3.942388,5.715921,-1.857902,-3.719404,-0.051727,0.448347,-0.035692,-12.947611,188.495656,0
0.044792,159.682174,28.948738,-164.556251,-0.148272,-4.923221,-0.215797,5.013292,5.105746,0.131330,-4.865031,-0.055380,0.479768,-0.046895,-11.024911,188.495700,0
0.045833,89.381356,80.618765,-192.759849,-0.691152,-3.382400,-2.589010,5.666281,3.595013,2.452101,-5.427171,0.003068,0.451221,-0.046895,-5.302051,188.495694,0
0.046875,23.651565,136.335894,-187.798675,-0.668532,-1.486551,-4.112947,5.061799,1.679947,4.113992,-5.018018,-0.037115,0.467357,-0.069301,0.658318,188.495767,0
0.047917,-37.904185,181.615122,-139.528788,0.270198,0.835331,-5.255899,3.901343,-0.536530,5.230312,-3.847487,-0.044421,0.432147,-0.084238,3.768568,188.495754,0
0.048958,-90.748895,198.516307,-63.818561,1.672638,2.983249,-5.509888,2.005807,-2.800792,5.624801,-2.040100,-0.066339,0.447890,-0.046895,8.349118,188.571120,0
0.050000,-151.726177,168.410694,-1.945455,2.848878,4.619927,-4.938412,-0.094954,-4.318877,5.012084,-0.005012,-0.124787,0.444232,-0.054364,13.076698,188.495870,0
0.051042,-183.042821,117.731302,58.684280,3.991188,5.482645,-3.545439,-2.199446,-5.281923,3.706912,2.019403,-0.183235,0.445408,-0.058098,15.157738,188.495734,0
0.052083,-188.589304,39.253749,117.196591,5.099568,5.649508,-1.652425,-4.061400,-5.436305,1.864564,3.801884,-0.219765,0.452463,-0.039427,17.487598,188.495655,0
0.053125,-160.403190,-26.973767,164.875569,5.993058,4.999807,0.308056,-5.106184,-4.940079,-0.128865,4.961742,-0.234377,0.462065,-0.061832,17.385808,188.572416,0
0.054167,-91.554212,-79.948531,192.352841,6.535938,3.451886,2.705080,-5.815144,-3.348479,-2.483210,5.509650,-0.259948,0.462523,-0.050629,10.056928,188.495774,0
0.055209,-25.484147,-136.475080,187.674811,6.400218,1.563138,4.225048,-5.199468,-1.481198,-4.107330,5.132519,-0.219765,0.461086,-0.046895,4.548958,188.496387,0
0.056250,37.092428,-181.536852,139.811175,5.551968,-0.772945,5.411655,-4.005430,0.786740,-5.253027,3.958429,-0.245336,0.453247,-0.061832,0.861898,188.500483,0
0.057292,90.595003,-198.305147,64.285606,4.115598,-2.896012,5.621990,-2.087505,3.047326,-5.643319,2.143927,-0.190541,0.446061,-0.050629,-3.673411,188.647119,0
0.058334,151.640341,-168.380748,2.190909,2.984598,-4.568193,5.070356,0.005793,4.602169,-5.043192,0.076818,-0.113828,0.442533,-0.061832,-8.016451,188.496386,0
0.059375,182.457915,-116.916097,-58.401894,1.797048,-5.395408,3.629760,2.095360,5.605648,-3.683464,-1.954712,-0.080951,0.442337,-0.069301,-10.527271,188.495721,0
0.060417,188.333330,-37.544558,-117.049622,0.699978,-5.608424,1.808181,3.961045,5.760030,-1.849509,-3.765656,-0.048074,0.442795,-0.013287,-12.811891,188.496440,0
0.061458,159.625461,28.840010,-164.728599,-0.182202,-4.930321,-0.207860,5.080456,5.186613,0.148117,-4.897051,-0.037115,0.435935,-0.084238,-11.760061,188.722886,0
0.062500,89.256588,80.655007,-192.944508,-0.747702,-3.393051,-2.640602,5.707326,3.580310,2.460495,-5.459191,-0.026156,0.440900,-0.054364,-5.369911,188.496603,0
0.063542,23.674250,136.492946,-187.700190,-0.623292,-1.461699,-4.132789,5.132695,1.672596,4.118188,-5.028692,-0.007891,0.468010,-0.050629,0.794038,188.497415,0
0.064583,-37.892842,182.279572,-139.097917,0.270198,0.895686,-5.359082,3.927463,-0.587991,5.356213,-3.836813,-0.073645,0.433976,-0.054364,3.395338,188.497155,0
0.065625,-90.544730,198.455902,-63.707765,1.672638,3.064906,-5.545605,1.949837,-2.877983,5.641588,-2.054332,-0.091910,0.445669,-0.076769,8.066368,188.721875,0
0.066667,-152.089137,168.688555,-1.957765,2.814948,4.740637,-4.962224,-0.169581,-4.443852,5.028871,0.023451,-0.143052,0.445277,-0.065566,12.974908,188.495787,0
0.067708,-182.702546,117.368875,58.758144,3.991188,5.500396,-3.509722,-2.255417,-5.384844,3.719502,2.065655,-0.161317,0.445603,-0.073035,14.999398,188.571145,0
0.068750,-189.054346,39.060455,117.516667,5.122188,5.738265,-1.644487,-4.124833,-5.535550,1.776434,3.873041,-0.186888,0.453377,-0.028224,17.770348,188.495698,0
0.069792,-160.380505,-27.118737,164.801705,6.026988,5.056612,0.399333,-5.173348,-4.962133,-0.175029,5.004436,-0.270907,0.461739,-0.061832,17.227468,188.721824,0
0.070834,-90.737552,-79.743155,193.448485,6.615108,3.458986,2.804295,-5.837532,-3.344803,-2.588127,5.570134,-0.267254,0.463241,-0.058098,10.226578,188.495644,0
0.071876,-25.506832,-136.523404,187.391667,6.434148,1.520534,4.272671,-5.192005,-1.462819,-4.187067,5.118287,-0.252642,0.456578,-0.039427,4.413238,188.571138,0
0.072917,36.797523,-182.829509,139.121781,5.574588,-0.829750,5.467215,-4.061400,0.863931,-5.353747,3.972661,-0.238030,0.455337,-0.046895,1.099408,188.495729,0
0.073958,90.595003,-197.773587,64.236364,4.126908,-2.963467,5.661675,-2.083774,3.091435,-5.651713,2.133254,-0.168623,0.446322,-0.043161,-3.707341,188.721929,0
0.075000,151.991958,-168.658609,2.153977,2.973288,-4.617897,5.066388,0.084152,4.694062,-5.047389,0.016335,-0.139399,0.442599,-0.035692,-8.073001,188.495716,0
0.076043,182.049585,-116.457022,-58.648106,1.774428,-5.409609,3.637698,2.155062,5.627703,-3.691857,-1.968943,-0.139399,0.439463,-0.035692,-10.267141,188.571160,0
0.077083,188.877770,-37.532477,-117.135796,0.688668,-5.619075,1.736746,4.020747,5.726948,-1.794952,-3.797677,-0.062686,0.457819,-0.046895,-12.992851,188.495741,0
0.078125,159.512036,28.803767,-164.507008,-0.182202,-4.944522,-0.235640,5.065531,5.135152,0.164904,-4.872146,-0.033462,0.465593,-0.061832,-10.945741,188.721835,0
0.079167,88.961683,80.437551,-193.412311,-0.815562,-3.357548,-2.640602,5.688670,3.569283,2.540232,-5.476980,-0.029809,0.432604,-0.043161,-5.313361,188.571102,0
0.080209,23.628880,136.492946,-187.466288,-0.668532,-1.458149,-4.172475,5.132695,1.676272,4.134975,-5.021576,-0.022503,0.455337,-0.058098,0.680938,188.571102,0
0.081250,-37.734047,182.460785,-138.937879,0.270198,0.892135,-5.335270,3.912537,-0.587991,5.305852,-3.843929,-0.051727,0.444428,-0.039427,3.723328,188.495526,0
0.082292,-90.612785,198.395498,-63.523106,1.672638,3.054255,-5.537668,1.957300,-2.866956,5.637391,-2.018753,-0.069992,0.444624,-0.061832,8.360428,188.721876,0
0.083333,-152.043767,168.640231,-1.736174,2.860188,4.708684,-4.962224,-0.184507,-4.399743,5.020477,0.023451,-0.154011,0.443513,-0.054364,13.099318,188.646538,0
0.084375,-182.827314,117.103095,58.684280,4.002498,5.500396,-3.541470,-2.255417,-5.359114,3.664945,2.051423,-0.186888,0.446975,-0.065566,15.169048,188.570966,0
0.085417,-188.974949,38.830918,117.381250,5.110878,5.720514,-1.652425,-4.128565,-5.502468,1.835187,3.858810,-0.234377,0.451417,-0.054364,17.555458,188.495767,0
0.086458,-160.391848,-27.118737,164.912501,6.015678,5.021109,0.347742,-5.184542,-4.965809,-0.187619,5.054246,-0.238030,0.463568,-0.031958,17.340568,188.721866,0
0.087500,-90.760237,-79.731074,193.177652,6.524628,3.451886,2.744766,-5.852458,-3.344803,-2.520980,5.591481,-0.238030,0.463894,-0.043161,10.056928,188.571006,0
0.088542,-25.710997,-136.632132,187.527084,6.445458,1.538286,4.280608,-5.218125,-1.451792,-4.136707,5.150308,-0.216112,0.457885,-0.039427,4.526338,188.571134,0
0.089583,36.638728,-182.394597,139.491099,5.563278,-0.822649,5.510869,-4.053937,0.860255,-5.328567,3.926409,-0.172276,0.456774,-0.087972,0.918448,188.570928,0
0.090625,90.629031,-198.111853,64.174811,4.160838,-2.974118,5.669613,-2.057654,3.131869,-5.660106,2.126138,-0.194194,0.447759,-0.058098,-3.662101,188.721936,0
0.091667,152.116726,-168.477395,1.895455,2.973288,-4.656950,5.074325,0.080421,4.708765,-5.038995,0.051913,-0.128440,0.441292,-0.061832,-8.016451,188.571165,0
0.092708,182.412545,-116.505346,-58.451137,1.842288,-5.477064,3.601980,2.199839,5.649757,-3.691857,-1.983175,-0.084604,0.442533,-0.065566,-10.527271,188.571091,0
0.093750,188.684948,-37.484153,-117.221970,0.677358,-5.619075,1.681186,4.058061,5.763706,-1.832722,-3.858160,-0.066339,0.451548,-0.043161,-12.857131,188.571089,0
0.094792,159.455324,28.827929,-164.679357,-0.204822,-4.951623,-0.299138,5.091650,5.175586,0.211067,-4.946861,-0.059033,0.444885,-0.069301,-11.748751,188.721867,0
0.095833,88.439928,80.365066,-193.744698,-0.759012,-3.311394,-2.692194,5.752103,3.613392,2.573805,-5.487654,-0.004238,0.405233,-0.076769,-5.426461,188.571161,0
0.096875,23.844388,136.553350,-187.355493,-0.679842,-1.429747,-4.172475,5.170009,1.606432,4.185335,-5.028692,-0.033462,0.464548,-0.073035,0.827968,188.571156,0
0.097917,-37.575252,183.137316,-138.445455,0.258888,0.945389,-5.422579,3.923732,-0.665181,5.402376,-3.886623,-0.033462,0.441031,-0.054364,3.350098,188.571047,0
0.098958,-90.329222,198.238446,-63.338447,1.717878,3.157213,-5.577354,1.927449,-2.999283,5.679358,-1.979617,-0.099216,0.445669,-0.058098,8.100298,188.721992,0
0.100000,-152.474782,168.809364,-1.576136,2.871498,4.786790,-4.990004,-0.233015,-4.557801,5.083428,0.115955,-0.154011,0.442272,-0.069301,12.952288,188.571141,0
0.101042,-182.543751,116.656101,58.708902,4.002498,5.578502,-3.497816,-2.296462,-5.432629,3.635569,2.126138,-0.194194,0.445408,-0.058098,15.078568,188.571123,0
0.102083,-189.474019,38.722189,117.615152,5.110878,5.756016,-1.612739,-4.229312,-5.564956,1.768040,3.979776,-0.238030,0.449850,-0.050629,17.804278,188.571268,0
0.103125,-159.858750,-27.227465,164.666288,5.981748,5.038860,0.439019,-5.251707,-4.980512,-0.254766,5.100498,-0.234377,0.457754,-0.046895,17.136988,188.721800,0
0.104167,-89.784782,-79.392809,194.273296,6.592488,3.437685,2.879698,-5.900965,-3.311721,-2.659471,5.662638,-0.274560,0.465070,-0.020755,10.283128,188.571071,0
0.105209,-25.722339,-136.607970,187.194698,6.388908,1.499233,4.363948,-5.251707,-1.415034,-4.208050,5.143192,-0.245336,0.471080,-0.028224,4.401928,188.571098,0
0.106250,36.298453,-183.493959,138.937122,5.551968,-0.890104,5.554524,-4.035281,0.922743,-5.366338,3.969103,-0.194194,0.456251,-0.065566,1.212508,188.570993,0
0.107292,90.413523,-197.519888,64.002462,4.115598,-3.052224,5.741047,-2.027803,3.223762,-5.710466,2.076328,-0.186888,0.448347,-0.043161,-3.684721,188.721860,0
0.108333,152.649823,-168.863984,1.920076,2.984598,-4.727955,5.129885,0.136391,4.800659,-5.110339,-0.037033,-0.110175,0.441945,-0.035692,-8.073001,188.571058,0
0.109375,182.049585,-116.348294,-58.377273,1.830978,-5.484164,3.605949,2.222227,5.719597,-3.637300,-2.025869,-0.095563,0.442599,-0.069301,-10.267141,188.571120,0
0.110417,189.286100,-37.351263,-117.332766,0.677358,-5.679430,1.732777,4.106569,5.800463,-1.790755,-3.918644,-0.080951,0.458407,-0.028224,-13.060711,188.571113,0
0.111458,159.171761,28.755444,-164.470076,-0.204822,-4.951623,-0.342792,5.128964,5.171910,0.261428,-4.975324,-0.022503,0.468141,-0.073035,-10.877881,188.721829,0
0.112500,87.929516,80.026800,-194.421781,-0.759012,-3.346897,-2.700131,5.778222,3.595013,2.611575,-5.526790,0.006721,0.421564,-0.046895,-5.347291,188.646455,0
0.113542,23.730963,136.565431,-187.121591,-0.645912,-1.380043,-4.224067,5.117770,1.602757,4.231499,-5.050039,0.017680,0.453900,-0.028224,0.714868,188.571152,0
0.114583,-37.314375,183.656795,-138.162311,0.281508,0.980892,-5.418611,3.890149,-0.672533,5.423360,-3.858160,-0.048074,0.435021,-0.065566,3.655468,188.645995,0
0.115625,-90.374592,198.117637,-63.079924,1.683948,3.182065,-5.593228,1.912523,-2.973552,5.683555,-1.954712,-0.099216,0.444950,-0.061832,8.326498,188.721911,0
0.116667,-152.610892,168.785202,-1.391477,2.848878,4.836494,-4.978098,-0.259134,-4.543098,5.075034,0.133744,-0.124787,0.440900,-0.035692,13.099318,188.571102,0
0.117708,-182.645834,116.486969,58.610417,3.968568,5.621106,-3.505753,-2.378552,-5.439981,3.694322,2.175948,-0.161317,0.442860,-0.061832,15.180358,188.564999,0
0.118750,-189.576101,38.299358,117.627462,5.110878,5.791519,-1.596864,-4.255431,-5.564956,1.759647,3.972661,-0.219765,0.450438,-0.020755,17.668558,188.719541,0
0.119792,-159.677270,-27.336194,164.887879,6.049608,5.056612,0.442988,-5.277827,-4.962133,-0.263159,5.111172,-0.219765,0.456055,-0.061832,17.238778,188.721712,0
0.120833,-89.399137,-79.187434,194.470266,6.615108,3.412833,2.879698,-5.912160,-3.333776,-2.663667,5.637733,-0.252642,0.459714,-0.043161,10.113478,188.571082,0
0.121875,-25.835764,-136.716699,187.010038,6.479388,1.467280,4.344106,-5.247976,-1.400331,-4.275197,5.182328,-0.289172,0.469904,-0.054364,4.571578,188.570966,0
0.122917,36.162343,-183.965114,138.481629,5.563278,-0.890104,5.641832,-4.076326,0.966852,-5.483845,3.983334,-0.238030,0.455010,-0.061832,1.042858,188.721799,0
0.123958,90.390838,-197.664859,63.867046,4.126908,-3.101928,5.713267,-2.031535,3.278899,-5.735646,2.090560,-0.201500,0.450699,-0.050629,-3.628171,188.721857,0
0.125000,153.160236,-168.888146,1.981629,2.950668,-4.813162,5.141791,0.158779,4.863147,-5.110339,-0.054822,-0.132093,0.444689,-0.054364,-8.061691,188.571093,0
0.126042,182.163010,-115.961705,-58.401894,1.808358,-5.551620,3.574200,2.281929,5.726948,-3.679267,-2.089910,-0.099216,0.444166,-0.058098,-10.572511,188.571062,0
0.127083,189.456238,-37.266697,-117.677462,0.654738,-5.732684,1.701029,4.203584,5.881330,-1.757182,-3.961338,-0.048074,0.453377,-0.054364,-12.936301,188.721851,0
