1-Time,2-VGERA,3-VGERB,4-VGERC,5-VN,6-IGERAN,7-IGERBN,8-IGERCN,9-IGERAT,10-IGERBT,11-IGERCT,12-IN,13-IFD,14-IFAULT,15-VFAULT,16-Speed (rad/s),17-FAULT 
0.000000,-98.541193,-75.949751,194.421023,6.626418,3.398632,2.859855,-5.882309,-3.293343,-2.663667,5.641291,-0.241683,0.462327,-0.035692,25.608178,188.948264,0
0.001042,-29.499392,-135.134100,190.432387,6.490698,1.509884,4.518723,-5.367380,-1.352547,-4.426278,5.321085,-0.241683,0.458864,-0.035692,26.614768,188.872785,0
0.002083,33.780418,-180.280438,142.236364,5.563278,-0.854602,5.574367,-4.117371,0.863931,-5.488042,4.050933,-0.205153,0.456905,-0.024490,21.163348,188.872593,0
0.003125,86.704526,-202.243522,67.769508,4.183458,-3.169383,5.812482,-2.072580,3.308305,-5.832170,2.140370,-0.157664,0.451483,-0.058098,16.209568,189.023431,0
0.004167,149.610033,-171.594268,4.394508,3.007218,-4.724405,5.114011,0.132660,4.749199,-5.064176,0.041240,-0.128440,0.442664,-0.039427,4.062628,188.948035,0
0.005208,186.824777,-122.847821,-56.776894,1.842288,-5.516117,3.601980,2.229690,5.708569,-3.691857,-2.065005,-0.099216,0.443905,-0.013287,0.002338,188.872608,0
0.006250,190.182158,-42.449405,-116.077084,0.745218,-5.643927,1.585940,4.143882,5.855599,-1.681641,-3.907970,-0.051727,0.399027,-0.054364,-10.199281,188.797327,0
0.007292,163.674734,23.923082,-166.279735,-0.193512,-4.962274,-0.354698,5.203591,5.193964,0.345361,-5.039365,-0.018850,0.433453,-0.046895,-15.775111,189.023548,0
0.008333,96.413706,76.523338,-194.852652,-0.770322,-3.322045,-2.791408,5.767028,3.499444,2.653542,-5.444960,-0.011544,0.427443,-0.065566,-20.310421,188.872591,0
0.009375,27.848291,135.526473,-190.174622,-0.679842,-1.362291,-4.434402,5.293144,1.595405,4.437137,-5.171006,-0.015197,0.449719,-0.050629,-22.414081,188.872689,0
0.010417,-34.410695,180.829863,-141.596970,0.191028,0.931188,-5.505919,3.983433,-0.672533,5.473720,-3.918644,-0.059033,0.450046,-0.009553,-17.912701,188.797326,0
0.011458,-87.255405,202.406358,-67.831818,1.570848,3.235319,-5.716254,1.942374,-3.025013,5.830439,-1.983175,-0.110175,0.451352,-0.039427,-10.923121,189.023542,0
0.012500,-150.580585,171.455082,-4.432197,2.769708,4.797441,-5.065407,-0.270328,-4.524719,5.091821,0.126628,-0.139399,0.447041,-0.046895,0.138058,188.872624,0
0.013542,-187.602506,123.566378,56.702273,3.934638,5.603354,-3.430350,-2.415866,-5.509820,3.673339,2.264894,-0.175929,0.444297,-0.043161,5.295418,188.872755,0
0.014583,-190.494844,43.469985,116.605682,5.065638,5.741815,-1.457964,-4.359910,-5.542902,1.646336,4.082954,-0.241683,0.446975,-0.031958,14.343418,188.872678,0
0.015625,-163.998763,-23.289091,166.709849,6.004368,5.056612,0.566014,-5.374842,-4.995215,-0.355486,5.253485,-0.241683,0.448804,-0.020755,20.620468,189.023504,0
0.016667,-96.374775,-76.420907,195.319698,6.615108,3.341827,2.967007,-5.871115,-3.260261,-2.714028,5.662638,-0.230724,0.458603,-0.046895,25.642108,188.872749,0
0.017708,-27.321632,-135.556932,190.247728,6.490698,1.421127,4.550472,-5.386036,-1.323141,-4.459852,5.328200,-0.256295,0.461020,-0.035692,27.191578,188.797360,0
0.018750,35.050778,-181.053616,141.029925,5.563278,-0.854602,5.621990,-4.106177,0.871282,-5.479648,4.058049,-0.227071,0.474281,-0.028224,22.554478,188.872666,0
0.019792,87.044801,-202.364331,66.760038,4.194768,-3.155182,5.864073,-2.061386,3.300953,-5.890924,2.111907,-0.175929,0.448086,-0.035692,16.424458,188.948169,0
0.020833,150.392666,-171.376812,4.197538,3.029838,-4.767008,5.169571,0.136391,4.819038,-5.139716,-0.005012,-0.146705,0.449654,-0.076769,4.017388,188.872802,0
0.021875,187.006257,-123.065277,-56.924621,1.842288,-5.555170,3.598012,2.252078,5.745327,-3.687660,-2.050774,-0.048074,0.448412,-0.024490,-0.099452,188.797248,0
0.022917,190.227528,-43.669576,-117.369697,0.688668,-5.704282,1.578003,4.259555,5.796787,-1.656461,-3.954222,-0.069992,0.452071,-0.028224,-9.984391,188.872738,0
0.023958,164.015009,23.125742,-166.919887,-0.250062,-4.994226,-0.422164,5.300607,5.227046,0.324378,-5.082059,-0.044421,0.463894,-0.035692,-15.514981,188.872646,0
0.025000,96.152828,76.619985,-195.862122,-0.838182,-3.247489,-2.874748,5.834193,3.462686,2.766853,-5.519675,-0.007891,0.464940,-0.013287,-20.808061,188.872872,0
0.026042,27.995743,135.852658,-189.719129,-0.691152,-1.309037,-4.458213,5.285682,1.551296,4.479104,-5.185237,-0.018850,0.459910,-0.043161,-21.780721,188.797360,0
0.027083,-34.864395,182.255410,-139.996591,0.236268,1.012845,-5.561480,3.957314,-0.746048,5.515687,-3.897296,-0.037115,0.424308,-0.046895,-17.268031,188.872477,0
0.028125,-87.357487,202.309711,-65.566667,1.627398,3.331176,-5.716254,1.875209,-3.105879,5.838832,-1.912018,-0.088257,0.443186,-0.009553,-9.667711,188.797286,0
0.029167,-151.136367,171.346354,-2.634848,2.826258,4.875547,-5.065407,-0.292716,-4.631316,5.137985,0.215574,-0.095563,0.441945,-0.020755,0.364258,188.797273,0
0.030208,-186.819874,122.152913,57.440909,3.957258,5.631757,-3.442256,-2.445717,-5.480414,3.631372,2.279126,-0.183235,0.443186,-0.028224,5.204938,188.797200,0
0.031250,-190.801092,42.817616,117.578220,5.099568,5.805720,-1.438121,-4.386029,-5.583335,1.583386,4.182574,-0.230724,0.438483,-0.035692,15.010708,188.797322,0
0.032292,-163.885338,-23.264929,166.783713,6.072228,5.070813,0.573951,-5.423350,-4.980512,-0.380666,5.274833,-0.241683,0.458015,-0.046895,20.371648,188.797199,0
0.033333,-96.250007,-76.155127,196.563069,6.592488,3.363129,3.022567,-5.971861,-3.274964,-2.772781,5.701774,-0.230724,0.459844,-0.028224,25.947478,188.721958,0
0.034375,-28.909582,-135.798550,189.336743,6.479388,1.428227,4.613969,-5.382305,-1.319465,-4.506016,5.324642,-0.201500,0.462327,-0.002084,26.467738,188.797193,0
0.035417,34.063981,-182.805347,140.278978,5.540658,-0.900755,5.709298,-4.072594,0.977879,-5.530009,4.043818,-0.216112,0.458081,0.001650,20.824048,188.721835,0
0.036458,87.294336,-201.627396,66.255303,4.183458,-3.254590,5.848199,-1.986758,3.345062,-5.853154,2.037192,-0.164970,0.444820,-0.039427,16.130398,188.797302,0
0.037500,151.005161,-171.388893,2.867992,2.961978,-4.823813,5.137822,0.181168,4.907256,-5.076766,-0.072611,-0.154011,0.439202,-0.024490,3.881668,188.721755,0
0.038542,186.234967,-121.337708,-57.761743,1.830978,-5.519667,3.550389,2.315511,5.763706,-3.637300,-2.121931,-0.040768,0.439398,-0.035692,-0.054212,188.797228,0
0.039583,190.488405,-41.011777,-117.603599,0.677358,-5.693631,1.566097,4.263286,5.848248,-1.635478,-3.989800,-0.033462,0.434890,-0.028224,-10.346311,188.646636,0
0.040625,163.062239,24.986202,-166.513637,-0.227442,-4.944522,-0.430101,5.270756,5.171910,0.349558,-5.018018,-0.000585,0.461869,-0.061832,-15.888211,188.721871,0
0.041667,94.859783,76.837442,-196.416099,-0.815562,-3.275891,-2.874748,5.808073,3.466362,2.712296,-5.526790,0.010374,0.454553,-0.020755,-20.525311,188.721900,0
0.042708,27.712181,136.311732,-189.091288,-0.668532,-1.344540,-4.422496,5.285682,1.540269,4.445530,-5.167448,-0.015197,0.460694,-0.039427,-22.323601,188.797246,0
0.043750,-34.535462,182.726565,-140.021213,0.236268,0.980892,-5.521794,3.998359,-0.735021,5.456933,-3.897296,-0.037115,0.454422,-0.020755,-17.528161,188.571071,0
0.044792,-88.072065,201.766070,-66.588447,1.604778,3.263721,-5.684506,1.890135,-3.105879,5.817849,-1.926249,-0.084604,0.447825,-0.020755,-10.866571,188.646466,0
0.045833,-151.794232,171.201383,-3.213447,2.781018,4.840045,-4.982066,-0.288985,-4.587207,5.100214,0.212017,-0.150358,0.444428,-0.043161,0.285088,188.721913,0
0.046875,-186.933299,121.935456,57.847159,3.968568,5.606905,-3.398601,-2.427060,-5.462035,3.643962,2.282683,-0.197847,0.441096,-0.046895,5.397208,188.797168,0
0.047917,-190.687667,41.899467,117.713637,5.133498,5.727614,-1.430184,-4.378567,-5.535550,1.583386,4.100743,-0.241683,0.444689,-0.069301,14.366038,188.571131,0
0.048958,-163.136733,-24.642152,166.635985,6.049608,5.010458,0.538234,-5.341260,-4.936403,-0.410043,5.182328,-0.230724,0.442141,-0.020755,20.677018,188.571105,0
0.050000,-94.355810,-77.061195,196.316857,6.637728,3.302774,2.986850,-5.886040,-3.223503,-2.701438,5.659080,-0.241683,0.474281,-0.050629,25.789138,188.722052,0
0.051042,-26.504972,-136.124734,189.213637,6.490698,1.431778,4.534598,-5.318872,-1.330492,-4.388508,5.267717,-0.245336,0.454553,-0.024490,27.089788,188.721835,0
0.052083,35.504478,-182.370435,139.872728,5.563278,-0.872353,5.606115,-4.091251,0.930094,-5.475452,4.015355,-0.205153,0.474738,-0.054364,22.350898,188.571147,0
0.053125,87.827433,-201.760286,66.255303,4.206078,-3.148081,5.792639,-1.986758,3.271547,-5.794400,2.097675,-0.205153,0.445016,-0.043161,16.390528,188.495683,0
0.054167,151.549601,-170.869414,3.409659,2.973288,-4.777659,5.110042,0.192362,4.804335,-5.101946,0.019893,-0.121134,0.448935,-0.035692,3.915598,188.721869,0
0.055208,186.563900,-122.304180,-57.737121,1.808358,-5.509016,3.538483,2.259541,5.704894,-3.628907,-2.075679,-0.091910,0.444036,-0.024490,-0.201242,188.495698,0
0.056250,190.238870,-42.292353,-118.465341,0.688668,-5.651028,1.585940,4.192390,5.778409,-1.639674,-3.918644,-0.069992,0.447171,-0.058098,-10.074871,188.571223,0
0.057292,163.425199,24.418399,-166.858334,-0.238752,-4.919670,-0.430101,5.211054,5.146180,0.303394,-5.007345,-0.051727,0.456055,-0.058098,-15.582841,188.495188,0
0.058333,94.655618,77.356921,-196.292993,-0.781632,-3.222637,-2.850937,5.781954,3.414901,2.745870,-5.501885,-0.048074,0.453965,-0.009553,-20.864611,188.721867,0
0.059375,26.623300,136.529188,-188.894319,-0.702462,-1.294836,-4.430433,5.177472,1.481457,4.378383,-5.085617,-0.018850,0.481010,-0.024490,-21.690241,188.495611,0
0.060417,-35.964617,182.992345,-139.036364,0.236268,1.023496,-5.509888,3.912537,-0.709290,5.448540,-3.847487,-0.037115,0.434302,-0.050629,-17.087071,188.495617,0
0.061458,-88.298915,201.862717,-64.643371,1.650018,3.221118,-5.680537,1.867747,-3.080149,5.763292,-1.904902,-0.110175,0.446975,-0.039427,-9.565921,188.495533,0
0.062500,-151.873630,170.971846,-1.773106,2.814948,4.854246,-5.005878,-0.307642,-4.565152,5.054051,0.172880,-0.139399,0.445146,-0.017021,0.409498,188.571009,0
0.063542,-186.456914,121.645515,58.475000,4.002498,5.596254,-3.422413,-2.382284,-5.465711,3.622978,2.257778,-0.168623,0.447171,-0.039427,5.284108,188.495631,0
0.064583,-190.619612,42.467270,118.636932,5.133498,5.738265,-1.426215,-4.333790,-5.513496,1.574992,4.107859,-0.208806,0.442337,-0.028224,15.078568,188.495633,0
0.065625,-163.454323,-23.893136,166.906819,6.004368,5.010458,0.593794,-5.285289,-4.929051,-0.372273,5.168097,-0.234377,0.458864,-0.054364,20.394268,188.495602,0
0.066667,-95.490060,-76.976628,196.464584,6.592488,3.267271,2.994787,-5.874846,-3.197773,-2.772781,5.655522,-0.230724,0.460498,-0.043161,25.947478,188.420159,0
0.067708,-28.024867,-136.245543,188.622728,6.422838,1.399825,4.494912,-5.255438,-1.308438,-4.409492,5.253485,-0.219765,0.462327,-0.013287,26.365948,188.495635,0
0.068750,35.186888,-182.926156,139.515720,5.529348,-0.922057,5.578335,-4.005430,0.970528,-5.437681,4.004681,-0.201500,0.456317,-0.050629,20.733568,188.495510,0
0.069792,88.145023,-201.301211,65.122727,4.126908,-3.137431,5.725173,-1.945713,3.311980,-5.769220,2.087002,-0.205153,0.442860,-0.046895,16.051228,188.495664,0
0.070833,151.390806,-170.796929,1.649242,2.950668,-4.724405,5.070356,0.181168,4.774929,-5.051586,0.012777,-0.124787,0.440639,-0.054364,3.768568,188.269490,0
0.071875,185.860665,-120.576611,-58.783523,1.797048,-5.441561,3.518640,2.252078,5.660785,-3.582743,-2.061448,-0.077298,0.439006,-0.061832,-0.156002,188.495673,0
0.072917,190.272898,-40.323165,-118.576137,0.677358,-5.601324,1.597846,4.147614,5.760030,-1.627084,-3.851044,-0.048074,0.428619,-0.028224,-10.504651,188.420218,0
0.073958,162.733306,25.590247,-166.747538,-0.216132,-4.916120,-0.326918,5.095382,5.098395,0.274018,-4.925514,-0.000585,0.461804,-0.043161,-15.944761,188.495655,0
0.075000,94.769043,77.671024,-195.849811,-0.838182,-3.215537,-2.767597,5.696132,3.400198,2.653542,-5.427171,-0.059033,0.451483,-0.020755,-20.468761,188.269489,0
0.076042,27.576071,136.746645,-188.598864,-0.679842,-1.337440,-4.339156,5.188666,1.558648,4.328023,-5.067828,-0.015197,0.455206,-0.050629,-22.233121,188.420245,0
0.077083,-35.227355,182.412462,-139.811932,0.213648,0.956040,-5.390831,3.905075,-0.735021,5.331032,-3.804792,-0.048074,0.462065,-0.005818,-17.494231,188.420321,0
0.078125,-88.820670,201.427805,-65.763637,1.616088,3.192716,-5.569417,1.890135,-2.999283,5.700341,-1.879997,-0.048074,0.447106,-0.046895,-10.764781,188.495711,0
0.079167,-152.111822,170.609419,-1.834659,2.803638,4.722885,-4.934443,-0.210626,-4.480610,5.012084,0.130186,-0.113828,0.444101,-0.035692,0.409498,188.269400,0
0.080208,-186.729134,121.391816,58.967424,3.979878,5.496846,-3.343041,-2.311388,-5.322357,3.601995,2.190179,-0.164970,0.440835,-0.035692,5.555548,188.344764,0
0.081250,-190.347392,40.932995,118.538447,5.133498,5.603354,-1.410341,-4.229312,-5.421602,1.621156,3.990450,-0.208806,0.449262,-0.039427,14.535688,188.420066,0
0.082292,-162.717060,-25.814000,166.722160,6.038298,4.939452,0.494579,-5.188274,-4.826130,-0.317716,5.064920,-0.252642,0.441684,-0.028224,20.688328,188.420265,0
0.083333,-94.060905,-78.136395,195.418182,6.603798,3.292123,2.911447,-5.800218,-3.194097,-2.646881,5.545229,-0.248989,0.465332,-0.031958,25.698658,188.269427,0
0.084375,-26.028587,-136.620051,188.733523,6.456768,1.438878,4.387760,-5.289021,-1.334168,-4.312968,5.193002,-0.248989,0.455794,-0.054364,26.999308,188.269494,0
0.085417,36.139658,-181.669742,139.971213,5.529348,-0.826199,5.479121,-4.035281,0.867607,-5.357944,3.972661,-0.223418,0.459779,-0.069301,22.350898,188.420164,0
0.086458,88.870943,-201.397859,66.009091,4.172148,-3.038023,5.697393,-2.046460,3.194356,-5.723056,2.129696,-0.183235,0.451679,-0.043161,16.345288,188.269546,0
0.087500,151.663026,-170.470744,2.683333,2.973288,-4.593045,5.058451,0.084152,4.668332,-4.997029,0.062587,-0.106522,0.449980,-0.035692,3.813808,188.269518,0
0.088542,186.382420,-121.736378,-58.783523,1.808358,-5.388307,3.498797,2.207301,5.579918,-3.603727,-2.011638,-0.077298,0.445408,-0.031958,-0.291722,188.269498,0
0.089583,189.694430,-41.422528,-119.117803,0.643428,-5.540969,1.601814,4.080449,5.642406,-1.643871,-3.808350,-0.026156,0.449980,0.005384,-10.255831,188.420160,0
0.090625,162.653909,25.892269,-166.993751,-0.261372,-4.855765,-0.334855,5.114039,5.061637,0.257231,-4.868589,-0.018850,0.468075,-0.020755,-15.560221,188.269342,0
0.091667,94.133863,78.758305,-195.332766,-0.792942,-3.194235,-2.787440,5.655087,3.418577,2.632559,-5.370245,-0.048074,0.436327,-0.017021,-20.762821,188.269518,0
0.092708,25.625160,136.782887,-188.598864,-0.702462,-1.344540,-4.275658,5.114039,1.580702,4.269269,-4.993113,-0.048074,0.427247,-0.061832,-21.645001,188.194051,0
0.093750,-36.951415,182.146682,-139.085606,0.247578,0.963141,-5.355113,3.864030,-0.643127,5.293262,-3.769214,-0.033462,0.404775,-0.024490,-17.109691,188.420292,0
0.094792,-89.331082,201.524452,-64.446402,1.683948,3.171414,-5.581323,1.908792,-2.944146,5.670965,-1.922691,-0.102869,0.444558,0.005384,-9.577231,188.269635,0
0.095833,-151.998397,170.367800,-1.477652,2.848878,4.687383,-4.906663,-0.165850,-4.403419,4.986904,0.083934,-0.135746,0.445538,-0.009553,0.386878,188.193989,0
0.096875,-186.422886,121.899214,59.275190,4.025118,5.450692,-3.394633,-2.266611,-5.315005,3.589405,2.122580,-0.143052,0.441880,-0.035692,5.408518,188.194071,0
0.097917,-190.279337,42.310218,119.486364,5.144808,5.582053,-1.457964,-4.162147,-5.425278,1.646336,3.954871,-0.183235,0.448282,-0.009553,15.282148,188.344825,0
0.098958,-163.272843,-24.738799,167.029925,6.026988,4.946553,0.462831,-5.147229,-4.848185,-0.296733,5.025783,-0.216112,0.460563,-0.035692,20.382958,188.193946,0
0.100000,-95.308580,-78.245123,195.356629,6.581178,3.277922,2.883667,-5.755442,-3.197773,-2.659471,5.530997,-0.270907,0.460498,-0.017021,25.845688,188.194020,0
0.101042,-26.232752,-136.765022,188.278031,6.502008,1.438878,4.367917,-5.214393,-1.334168,-4.271001,5.136076,-0.241683,0.454749,-0.013287,26.377258,188.194045,0
0.102083,36.672756,-181.983846,139.380303,5.529348,-0.794247,5.431498,-4.005430,0.845552,-5.269814,3.947756,-0.212459,0.456839,-0.020755,20.722258,188.269353,0
0.103125,89.335986,-201.168321,64.260985,4.115598,-3.016721,5.669613,-1.990490,3.157599,-5.634926,2.058539,-0.190541,0.444297,-0.031958,15.949438,188.194004,0
0.104167,151.334093,-170.277450,0.762879,2.950668,-4.532690,5.022733,0.058032,4.646278,-4.950865,0.080376,-0.143052,0.439528,-0.039427,3.734638,188.193937,0
0.105208,185.690527,-120.540368,-59.743750,1.819668,-5.327952,3.498797,2.125211,5.535809,-3.582743,-1.933365,-0.080951,0.440965,-0.028224,-0.280412,188.194005,0
0.106250,189.671745,-40.323165,-119.327084,0.666048,-5.491265,1.641500,3.998359,5.624027,-1.698428,-3.722962,-0.051727,0.446518,-0.009553,-10.674301,188.194121,0
0.107292,162.608539,25.988917,-167.030682,-0.216132,-4.852215,-0.291200,5.039411,5.068989,0.219461,-4.815221,-0.044421,0.453181,-0.031958,-15.967381,188.194134,0
0.108333,95.211401,78.927438,-194.717235,-0.804252,-3.201336,-2.668382,5.587923,3.389171,2.527642,-5.313319,-0.015197,0.454618,-0.024490,-20.344351,188.194040,0
0.109375,27.179083,137.109072,-188.291099,-0.691152,-1.383593,-4.208193,5.091650,1.580702,4.214712,-4.978882,-0.018850,0.471080,0.001650,-22.210501,188.194061,0
0.110417,-36.622482,181.627203,-139.676516,0.202338,0.849532,-5.279710,3.893881,-0.602694,5.234508,-3.754983,-0.077298,0.456513,0.027790,-17.562091,188.194098,0
0.111458,-90.125057,201.306996,-64.631061,1.650018,3.086207,-5.501951,1.919986,-2.892686,5.637391,-1.919134,-0.048074,0.446322,-0.039427,-10.640371,188.193978,0
0.112500,-151.850945,170.150344,-0.788258,2.826258,4.580874,-4.906663,-0.128536,-4.333580,4.949133,0.041240,-0.168623,0.441619,-0.024490,0.533908,188.194168,0
0.113542,-186.593024,120.981065,60.186174,4.002498,5.379687,-3.402570,-2.206909,-5.241490,3.572618,2.079886,-0.205153,0.439071,-0.054364,5.736508,188.194094,0
0.114583,-189.848322,40.051089,119.338637,5.133498,5.571402,-1.521461,-4.087520,-5.292951,1.650533,3.880157,-0.216112,0.441815,-0.043161,14.727958,188.194076,0
0.115625,-162.478868,-26.587178,166.968372,6.015678,4.893299,0.391396,-5.091258,-4.800400,-0.242176,4.968858,-0.274560,0.441945,-0.017021,20.688328,188.194094,0
0.116667,-94.287755,-79.320324,194.433334,6.603798,3.331176,2.776515,-5.677083,-3.183070,-2.537767,5.456283,-0.252642,0.453965,-0.046895,25.562938,188.194042,0
0.117708,-25.620257,-137.296582,188.278031,6.456768,1.499233,4.296483,-5.233050,-1.400331,-4.182870,5.178771,-0.234377,0.462653,-0.046895,26.942758,188.194060,0
0.118750,37.149141,-181.150263,139.983523,5.585898,-0.744543,5.356094,-4.024086,0.753658,-5.223650,3.979776,-0.219765,0.460955,-0.005818,22.339588,188.118616,0
0.119792,90.141303,-201.083755,65.467424,4.138218,-2.903112,5.614052,-2.094968,3.095111,-5.634926,2.154601,-0.194194,0.448543,-0.009553,16.277428,188.194013,0
0.120833,152.071356,-169.975427,1.378409,2.939358,-4.486536,5.026702,-0.001670,4.547032,-4.984438,0.162207,-0.117481,0.449654,-0.017021,3.644158,188.194002,0
0.121875,186.212282,-121.277303,-60.125379,1.774428,-5.313751,3.526577,2.121480,5.473321,-3.582743,-1.908460,-0.095563,0.446649,-0.035692,-0.472682,188.194063,0
0.122917,189.308785,-40.286923,-119.782576,0.609498,-5.448662,1.601814,3.994628,5.613000,-1.694231,-3.666036,-0.066339,0.450699,0.016587,-10.391551,188.118474,0
0.123958,162.336319,27.136603,-167.104546,-0.227442,-4.841564,-0.275326,4.987172,5.072665,0.206871,-4.822337,-0.026156,0.460367,-0.039427,-15.582841,188.194036,0
0.125000,93.680163,80.050962,-194.791099,-0.792942,-3.190685,-2.692194,5.580460,3.425929,2.548625,-5.288415,-0.007891,0.440508,-0.028224,-20.649721,188.194038,0
0.126042,24.547623,137.423175,-188.155682,-0.634602,-1.387143,-4.192318,5.121501,1.613784,4.202122,-4.968208,-0.048074,0.462327,-0.020755,-21.588451,188.193984,0
0.127083,-38.040295,181.892983,-138.925569,0.247578,0.853082,-5.303522,3.878955,-0.576963,5.272279,-3.808350,-0.015197,0.435935,0.001650,-17.109691,188.118667,0
