1-Time,2-VGERA,3-VGERB,4-VGERC,5-VN,6-IGERAN,7-IGERBN,8-IGERCN,9-IGERAT,10-IGERBT,11-IGERCT,12-IN,13-IFD,14-IFAULT,15-VFAULT,16-Speed (rad/s),17-Active Power,18-Reactive Power,19-FAULT 
0.000000,-170.872318,142.702530,4.172917,2.961978,6.707491,-2.537419,-4.188267,-6.292755,2.792033,3.947756,-0.216112,0.308552,-0.031958,9.649768,188.344919,1517.331556,-909.834272,0
0.001042,-201.905400,81.730208,59.767614,4.002498,5.922879,0.002475,-5.669621,-5.653174,0.202674,5.516766,-0.230724,0.317436,-0.069301,-2.169182,188.495709,1517.116859,-910.074651,0
0.002083,-175.250523,28.103075,141.879356,5.540658,4.662531,2.367751,-6.565149,-4.322553,-2.076130,6.345744,-0.259948,0.330827,-0.028224,-16.532881,188.495731,1517.698406,-909.666372,0
0.003125,-129.165944,-22.540075,193.313069,6.524628,2.649523,4.086148,-6.031563,-2.451596,-3.855528,5.997075,-0.256295,0.338144,-0.058098,-23.601631,188.495731,1517.632832,-909.633136,0
0.004167,-68.517594,-84.720488,202.841478,6.750828,-0.162297,5.963288,-5.039019,0.452247,-5.710466,4.965300,-0.241683,0.312406,-0.043161,-11.364211,188.344880,1517.222375,-909.818950,0
0.005208,-14.481921,-155.744122,171.449432,6.151398,-2.512582,6.518889,-3.150946,2.819430,-6.444888,3.250418,-0.190541,0.330370,-0.024490,-7.394401,188.495843,1517.476732,-909.487349,0
0.006250,33.871158,-203.318722,103.901137,4.907298,-4.696003,5.955351,-0.516599,4.870498,-5.806990,0.688768,-0.091910,0.311622,-0.043161,-15.560221,188.495721,1516.459046,-909.296665,0
0.007292,105.238171,-193.472786,47.789394,3.855468,-6.109013,4.661592,2.009539,6.535613,-4.661293,-1.769704,-0.048074,0.303652,-0.065566,-12.563071,188.493841,1516.401309,-909.245174,0
0.008333,170.525604,-142.467209,-3.792045,2.894118,-6.517295,2.796358,4.091643,6.855404,-2.743405,-3.797677,-0.044421,0.313647,-0.017021,-4.668691,188.344551,1515.627648,-909.034599,0
0.009375,201.649426,-81.917718,-59.509849,1.819668,-5.743335,0.153281,5.576728,6.179065,-0.233782,-5.345340,-0.000585,0.320506,-0.046895,4.492408,188.495197,1516.237985,-909.122531,0
0.010417,175.085289,-28.677174,-142.027841,0.202338,-4.468785,-2.200089,6.531959,4.844768,2.158333,-6.138740,0.014027,0.327235,-0.013287,20.507368,188.495227,1516.088583,-909.147010,0
0.011458,129.284272,22.727073,-193.166099,-0.781632,-2.473529,-3.878800,5.975985,2.959108,3.929337,-5.825649,-0.018850,0.351862,-0.039427,26.162368,188.495193,1515.975986,-909.906074,0
0.012500,68.046112,85.245751,-202.854546,-0.939972,0.331191,-5.819438,4.964784,0.106726,5.805259,-4.797432,0.003068,0.334420,-0.028224,15.847648,188.346167,1516.575874,-910.214142,0
0.013542,14.089837,155.689502,-171.437879,-0.329232,2.738280,-6.347259,3.076711,-2.297214,6.472533,-3.075434,-0.033462,0.324034,-0.061832,11.674258,188.495957,1516.631320,-910.000599,0
0.014584,-33.820885,203.856066,-103.397159,0.926178,4.879098,-5.748003,0.453558,-4.344607,5.872406,-0.531573,-0.121134,0.299602,-0.013287,19.534708,188.495298,1517.053093,-910.757614,0
0.015625,-105.278638,193.526893,-47.691667,1.944078,6.331161,-4.430433,-2.162133,-6.028101,4.709922,2.015845,-0.212459,0.304632,-0.043161,17.419738,188.495340,1517.274304,-912.258563,0
0.016667,-171.269306,142.593802,3.594318,2.950668,6.782047,-2.549325,-4.225580,-6.355242,2.804623,4.047375,-0.179582,0.312798,-0.024490,9.683698,188.269044,1518.106997,-913.819559,0
0.017708,-201.803317,82.708761,59.546023,4.013808,5.972583,0.062004,-5.781562,-5.678904,0.236247,5.580807,-0.281866,0.324360,-0.039427,-1.479272,188.495206,1518.854183,-914.608268,0
0.018750,-175.613483,29.407812,142.236364,5.574588,4.673182,2.387594,-6.684553,-4.315201,-2.130687,6.381323,-0.267254,0.328084,-0.005818,-15.062581,188.495255,1519.046979,-916.106291,0
0.019792,-129.347424,-22.334699,193.116099,6.558558,2.670825,4.125833,-6.065146,-2.455272,-3.884905,6.025538,-0.245336,0.347943,-0.065566,-24.427261,188.495276,1519.366631,-916.627820,0
0.020833,-67.837044,-84.623840,203.124622,6.739518,-0.180049,6.030754,-5.106184,0.426517,-5.777613,4.986647,-0.241683,0.331415,-0.046895,-12.359491,188.269091,1520.244135,-916.799693,0
0.021875,-14.277756,-155.212563,171.338637,6.162708,-2.565836,6.546670,-3.180797,2.914999,-6.432297,3.232628,-0.161317,0.310119,-0.020755,-6.783661,188.495309,1519.640901,-917.793284,0
0.022917,33.417458,-203.850282,103.741099,4.873368,-4.660500,5.971225,-0.576301,4.899904,-5.886727,0.742136,-0.157664,0.329194,-0.020755,-15.571531,188.419813,1521.119855,-917.950611,0
0.023958,104.682389,-193.207006,48.183333,3.866778,-6.151617,4.645718,2.020733,6.576047,-4.665490,-1.801725,-0.055380,0.302803,-0.065566,-11.307661,188.495503,1521.006976,-918.816793,0
0.025000,170.707084,-143.095416,-2.991856,2.871498,-6.584751,2.772546,4.102837,6.928919,-2.781175,-3.815466,-0.037115,0.314170,-0.031958,-5.584801,188.344446,1522.109993,-919.637243,0
0.026042,201.445261,-82.968757,-59.325190,1.785738,-5.775287,0.173124,5.591654,6.230526,-0.254766,-5.348898,-0.000585,0.320637,-0.020755,7.885408,188.495363,1522.728152,-919.939699,0
0.027083,175.538989,-29.220815,-141.584660,0.179718,-4.514939,-2.180246,6.509571,4.844768,2.137349,-6.188550,0.028639,0.335074,-0.061832,21.808018,188.495336,1523.104741,-920.443950,0
0.028125,128.864600,22.557940,-193.153788,-0.725082,-2.477079,-3.930392,5.975985,2.944405,3.941927,-5.846996,0.003068,0.346179,-0.028224,28.446988,188.495235,1523.130108,-920.662547,0
0.029167,67.399590,84.593382,-203.260796,-1.007832,0.338292,-5.811500,4.987172,0.136132,5.780079,-4.783200,0.003068,0.326647,-0.031958,16.820308,188.269113,1522.848873,-920.079540,0
0.030208,14.055810,155.435803,-171.524054,-0.385782,2.709878,-6.343291,3.058054,-2.352351,6.493516,-3.086107,-0.069992,0.333244,-0.035692,12.002248,188.495244,1523.030918,-920.805647,0
0.031250,-33.242417,203.469477,-103.828031,0.903558,4.811642,-5.732129,0.468483,-4.333580,5.868209,-0.570710,-0.102869,0.323054,-0.009553,20.077588,188.495329,1522.953616,-920.614846,0
0.032292,-104.983733,193.877240,-48.454924,1.932768,6.363114,-4.462182,-2.106162,-5.969289,4.701529,1.944688,-0.172276,0.305024,-0.050629,17.091748,188.495189,1522.605094,-919.749457,0
0.033333,-170.554728,143.632760,2.966477,2.939358,6.746544,-2.541387,-4.199461,-6.329512,2.808820,3.994008,-0.216112,0.317109,-0.054364,9.649768,188.269105,1522.073265,-919.515368,0
0.034375,-202.211647,83.663152,59.213637,4.013808,5.993885,0.022318,-5.725591,-5.704635,0.278214,5.545229,-0.227071,0.322923,-0.039427,-2.044772,188.495251,1522.510605,-919.263162,0
0.035417,-175.704223,29.274923,141.189963,5.563278,4.708684,2.403468,-6.598732,-4.307850,-2.092917,6.384881,-0.281866,0.330631,-0.065566,-16.623361,188.495332,1522.181603,-918.908357,0
0.036458,-129.029834,-22.141405,193.473107,6.547248,2.699227,4.086148,-6.106191,-2.514084,-3.876512,6.007749,-0.274560,0.346505,-0.017021,-23.884381,188.495280,1522.511475,-918.290055,0
0.037500,-67.610194,-83.898986,203.100001,6.739518,-0.162297,5.999005,-5.061407,0.444895,-5.735646,4.936837,-0.238030,0.296728,-0.017021,-11.318971,188.269021,1521.291850,-918.134476,0
0.038542,-14.447894,-155.321291,171.855682,6.151398,-2.505481,6.526827,-3.203185,2.874566,-6.465871,3.239744,-0.208806,0.307702,-0.043161,-7.224751,188.495360,1521.844832,-918.093792,0
0.039583,33.099868,-202.920052,104.516667,4.941228,-4.646299,5.983131,-0.583763,4.859471,-5.874137,0.745694,-0.124787,0.306200,-0.028224,-15.628081,188.495188,1521.184868,-917.869246,0
0.040625,104.727759,-193.811051,49.254356,3.866778,-6.162268,4.725090,1.987151,6.568695,-4.715850,-1.744799,-0.073645,0.308682,-0.020755,-12.732721,188.495231,1521.998646,-917.606225,0
0.041667,170.151302,-143.699461,-2.548674,2.882808,-6.577650,2.812232,4.087912,6.910540,-2.772781,-3.801235,-0.033462,0.317305,-0.043161,-4.713931,188.269075,1521.487972,-917.743650,0
0.042708,202.046413,-83.319103,-58.832765,1.808358,-5.793039,0.200904,5.610311,6.230526,-0.225389,-5.338224,-0.044421,0.321159,-0.046895,4.413238,188.495242,1521.312550,-918.241101,0
0.043750,175.402879,-28.797983,-141.104546,0.304128,-4.479436,-2.152466,6.539422,4.885201,2.133153,-6.217013,0.028639,0.332461,-0.043161,20.620468,188.419808,1521.841533,-918.101730,0
0.044792,128.796545,22.666668,-193.301516,-0.770322,-2.516132,-3.906580,6.035687,2.992190,3.950320,-5.882575,0.010374,0.335596,-0.031958,26.377258,188.495246,1522.749374,-917.943039,0
0.045833,67.410932,84.255117,-203.174622,-0.951282,0.324091,-5.815469,5.005829,0.099375,5.771685,-4.793874,-0.048074,0.324687,-0.009553,15.779788,188.269196,1522.480703,-918.267096,0
0.046875,14.180577,155.423722,-172.016478,-0.385782,2.688576,-6.375039,3.117756,-2.278836,6.531287,-3.150149,-0.062686,0.324491,-0.039427,11.696878,188.495291,1523.668600,-917.560306,0
0.047917,-33.015567,203.203698,-104.837500,0.869628,4.825844,-5.791658,0.513259,-4.344607,5.901783,-0.595615,-0.091910,0.315607,-0.050629,19.738288,188.419828,1524.160989,-917.959221,0
0.048958,-104.892993,194.022210,-49.353599,1.921458,6.373765,-4.482025,-2.102431,-6.024425,4.747692,1.958919,-0.175929,0.308094,-0.043161,17.578078,188.495300,1524.942536,-918.885002,0
0.050000,-170.713523,143.922702,2.584848,2.928048,6.803348,-2.612822,-4.218118,-6.366270,2.863377,4.015355,-0.190541,0.313582,-0.031958,9.762868,188.344471,1525.875113,-919.198911,0
0.051042,-202.211647,83.155754,58.684280,3.957258,6.000986,0.062004,-5.736785,-5.708310,0.265624,5.548787,-0.248989,0.319134,-0.031958,-1.366172,188.495296,1525.660526,-919.262017,0
0.052083,-175.670196,28.876253,141.091478,5.540658,4.726436,2.427280,-6.632314,-4.348283,-2.092917,6.402670,-0.274560,0.326908,-0.054364,-15.107821,188.419885,1526.260280,-919.109562,0
0.053125,-128.927751,-22.189729,193.103788,6.535938,2.709878,4.109959,-6.147236,-2.521435,-3.926872,6.103811,-0.278213,0.354148,-0.054364,-24.449881,188.495249,1527.371484,-919.905026,0
0.054167,-67.814359,-83.681530,203.321592,6.716898,-0.091292,6.046628,-5.102452,0.393435,-5.773417,5.011552,-0.227071,0.314562,-0.050629,-12.416041,188.344574,1528.759952,-919.872763,0
0.055208,-14.878909,-154.958864,172.077273,6.162708,-2.498380,6.562544,-3.191991,2.826781,-6.478461,3.310901,-0.197847,0.321943,-0.039427,-6.930691,188.495351,1529.517450,-919.293344,0
0.056250,32.646168,-202.883810,105.575379,4.941228,-4.649849,5.999005,-0.602420,4.903580,-5.853154,0.784830,-0.157664,0.306135,-0.054364,-15.820351,188.419945,1529.636639,-919.921897,0
0.057292,104.319429,-193.931860,49.722159,3.889398,-6.155167,4.701278,2.020733,6.561344,-4.724244,-1.776820,-0.095563,0.306396,-0.050629,-11.533861,188.495247,1529.382571,-920.469740,0
0.058333,169.731629,-144.037726,-2.437879,2.882808,-6.588301,2.808264,4.054329,6.877458,-2.810552,-3.801235,-0.048074,0.314627,-0.073035,-5.709211,188.344446,1529.269512,-920.204812,0
0.059375,202.001043,-82.872109,-58.254167,1.808358,-5.768187,0.204873,5.606579,6.245229,-0.237979,-5.334667,0.017680,0.319134,-0.020755,7.681828,188.495331,1529.270959,-919.987254,0
0.060417,175.550332,-28.556365,-140.230493,0.247578,-4.482986,-2.156435,6.505840,4.848444,2.137349,-6.188550,-0.000585,0.326581,-0.031958,21.887188,188.419949,1528.342995,-919.927490,0
0.061458,128.683120,22.195513,-193.116857,-0.736392,-2.530333,-3.886737,6.002105,3.025272,3.937730,-5.882575,0.003068,0.322792,-0.069301,28.548778,188.495271,1528.391699,-919.619800,0
0.062500,67.785235,83.469858,-203.113069,-0.962592,0.288588,-5.775783,4.983441,0.165538,5.712931,-4.776085,-0.011544,0.341867,-0.050629,16.910788,188.419846,1527.853251,-918.677292,0
0.063542,15.133347,155.375399,-172.336554,-0.363162,2.677925,-6.343291,3.128950,-2.223699,6.497713,-3.107454,-0.040768,0.322531,-0.065566,12.239758,188.495275,1527.022494,-918.533391,0
0.064583,-32.505155,202.261387,-105.686932,0.835698,4.772589,-5.755940,0.509528,-4.256389,5.901783,-0.613404,-0.091910,0.316260,-0.043161,20.032348,188.419840,1526.400990,-917.777817,0
0.065625,-104.575403,194.734984,-49.292046,1.921458,6.331161,-4.485993,-2.087505,-5.976640,4.747692,1.919783,-0.164970,0.306331,-0.031958,17.306638,188.495284,1526.302150,-917.136118,0
0.066667,-169.148258,144.273048,2.818750,2.905428,6.735893,-2.565199,-4.188267,-6.296430,2.813017,3.954871,-0.223418,0.310969,-0.028224,9.774178,188.344453,1524.545912,-916.429115,0
0.067708,-202.790115,83.240321,58.253409,3.979878,5.937081,0.038192,-5.706934,-5.671553,0.261428,5.552345,-0.219765,0.315803,0.001650,-1.909052,188.495305,1524.195837,-916.675857,0
0.068750,-175.749593,28.767525,139.934281,5.518038,4.662531,2.379657,-6.572612,-4.381365,-2.055147,6.370649,-0.270907,0.353495,-0.017021,-16.623361,188.419739,1523.941947,-915.918284,0
0.069792,-129.063861,-21.573602,193.399243,6.569868,2.756031,4.082179,-6.102459,-2.458947,-3.889102,6.075348,-0.259948,0.319265,-0.013287,-23.759971,188.495251,1522.963091,-916.098637,0
0.070833,-68.789814,-82.811705,202.792235,6.750828,-0.116144,5.967256,-5.094990,0.397111,-5.672696,4.975973,-0.241683,0.325993,-0.013287,-11.398141,188.344498,1521.403087,-915.615548,0
0.071875,-15.911076,-155.357533,172.582008,6.174018,-2.484179,6.546670,-3.236767,2.823106,-6.432297,3.303785,-0.197847,0.318677,-0.050629,-7.462261,188.495220,1520.976500,-915.871276,0
0.072917,32.294551,-201.784447,105.957008,4.975158,-4.610796,5.963288,-0.609883,4.811686,-5.823777,0.777714,-0.128440,0.318808,0.012853,-15.582841,188.419864,1519.784720,-914.980239,0
0.073958,104.092579,-194.632552,49.340530,3.878088,-6.126765,4.721121,1.972225,6.557668,-4.732637,-1.755473,-0.073645,0.305285,-0.043161,-12.992851,188.495251,1520.098000,-914.764886,0
0.075000,168.597379,-143.989403,-2.721023,2.871498,-6.556349,2.800326,4.069255,6.895837,-2.764388,-3.794119,-0.048074,0.312079,-0.046895,-4.736551,188.344457,1519.427669,-914.972279,0
0.076042,202.477428,-82.799624,-57.872538,1.808358,-5.782388,0.216778,5.610311,6.248905,-0.242176,-5.363129,-0.007891,0.316848,-0.043161,4.254898,188.495206,1519.691307,-915.358290,0
0.077083,175.380194,-28.749659,-139.811932,0.236268,-4.493637,-2.128655,6.505840,4.859471,2.082792,-6.135182,0.003068,0.321029,-0.054364,20.439508,188.419894,1519.224893,-914.323178,0
0.078125,129.420382,21.676034,-193.276895,-0.725082,-2.569386,-3.870863,6.073001,3.032623,3.933534,-5.911038,-0.022503,0.336380,-0.035692,26.230228,188.495235,1519.639423,-914.784342,0
0.079167,69.429897,83.228240,-202.719129,-0.985212,0.267286,-5.783720,5.054337,0.147160,5.754898,-4.804547,-0.004238,0.324948,-0.050629,15.892888,188.344491,1519.941745,-915.976872,0
0.080208,15.870610,155.339156,-172.668940,-0.408402,2.670825,-6.379008,3.125218,-2.278836,6.506106,-3.125244,-0.037115,0.324295,-0.017021,11.708188,188.419983,1520.084874,-916.959619,0
0.081250,-32.357702,202.152659,-105.514584,0.869628,4.811642,-5.748003,0.502065,-4.285795,5.897586,-0.606288,-0.121134,0.315541,-0.020755,19.568638,188.420924,1519.987688,-917.294851,0
0.082292,-104.076333,194.940359,-49.021212,1.910148,6.352463,-4.529648,-2.072580,-5.961937,4.802249,1.951804,-0.175929,0.303718,-0.020755,17.725108,188.495242,1520.274840,-917.429526,0
0.083333,-168.955436,144.140158,2.769508,2.894118,6.742994,-2.612822,-4.203192,-6.344215,2.800427,4.033144,-0.212459,0.311099,-0.069301,9.977758,188.419775,1520.571621,-918.658210,0
0.084375,-202.824142,82.986622,57.797917,3.957258,6.011636,0.030255,-5.695740,-5.723013,0.307591,5.548787,-0.256295,0.319461,-0.028224,-1.185212,188.419936,1521.282210,-918.225085,0
0.085417,-175.885703,29.492379,139.971213,5.529348,4.708684,2.395531,-6.662165,-4.344607,-2.109704,6.384881,-0.263601,0.314562,-0.020755,-14.904241,188.419714,1520.846893,-919.386282,0
0.086458,-130.186769,-20.909153,193.128410,6.524628,2.738280,4.098053,-6.109922,-2.532462,-3.905888,6.107369,-0.241683,0.356827,-0.065566,-24.280231,188.495246,1521.790149,-919.765477,0
0.087500,-70.026146,-82.666734,202.927652,6.750828,-0.073540,5.979162,-5.098721,0.360353,-5.681089,4.961742,-0.238030,0.325928,-0.031958,-12.619621,188.419878,1521.864104,-920.055617,0
0.088542,-16.194639,-154.874297,172.754357,6.151398,-2.484179,6.566513,-3.225573,2.778997,-6.470068,3.307343,-0.216112,0.325014,-0.061832,-6.874141,188.344366,1522.112310,-919.959526,0
0.089583,31.999646,-202.026066,105.944697,4.884678,-4.603695,5.959319,-0.613614,4.855795,-5.811187,0.806177,-0.110175,0.318612,-0.050629,-15.548911,188.419809,1522.343066,-920.273205,0
0.090625,103.378001,-194.692957,49.143561,3.900708,-6.126765,4.701278,1.938643,6.553992,-4.715850,-1.723452,-0.088257,0.304893,-0.020755,-11.737441,188.495313,1522.017516,-919.976048,0
0.091667,168.177707,-144.375992,-2.696402,2.882808,-6.552798,2.840012,4.039404,6.877458,-2.797962,-3.762098,-0.066339,0.313386,-0.035692,-5.799691,188.495323,1522.022020,-919.428544,0
0.092709,202.409373,-82.980837,-57.540152,1.830978,-5.810790,0.264401,5.558072,6.212147,-0.263159,-5.327551,-0.004238,0.320049,-0.058098,7.466938,188.344523,1521.422316,-918.930769,0
0.093750,175.947319,-29.981912,-139.221023,0.304128,-4.539790,-2.108812,6.472257,4.881526,2.036629,-6.145856,0.006721,0.329194,-0.039427,21.683608,188.419737,1521.639185,-919.070296,0
0.094792,130.373152,20.721643,-193.166099,-0.747702,-2.576487,-3.839114,6.017030,3.080408,3.845403,-5.903922,0.017680,0.341541,-0.002084,28.333888,188.495325,1521.644587,-918.331416,0
0.095833,69.951652,82.430900,-202.829925,-0.951282,0.245985,-5.720223,4.983441,0.180241,5.712931,-4.815221,0.003068,0.329586,-0.002084,16.922098,188.495258,1521.432990,-917.969470,0
0.096875,15.813897,155.133780,-172.939773,-0.408402,2.667274,-6.363134,3.166263,-2.264133,6.497713,-3.135917,-0.048074,0.324491,-0.039427,12.092728,188.419829,1521.462812,-917.770553,0
0.097917,-31.926687,201.427805,-105.883902,0.858318,4.765489,-5.744035,0.509528,-4.245362,5.834636,-0.620520,-0.110175,0.314300,-0.017021,19.772218,188.419909,1520.350165,-917.239312,0
0.098958,-103.633975,195.568566,-48.824243,1.932768,6.320511,-4.505836,-2.020341,-5.936207,4.793856,1.916225,-0.183235,0.300974,-0.046895,17.555458,188.495334,1520.246664,-916.793113,0
0.100000,-167.571651,145.022064,2.806439,2.928048,6.725242,-2.604885,-4.113639,-6.311133,2.804623,3.926409,-0.190541,0.310119,-0.035692,9.796798,188.419965,1519.475850,-915.630053,0
0.101042,-203.255157,84.351764,57.502462,4.002498,5.983234,-0.025305,-5.692009,-5.675229,0.315985,5.520324,-0.256295,0.317958,-0.039427,-1.648922,188.419970,1518.941151,-915.851020,0
0.102083,-176.328061,30.833359,138.838637,5.518038,4.722885,2.292348,-6.580075,-4.366662,-2.038360,6.324397,-0.281866,0.330631,-0.084238,-16.385851,188.419967,1518.332508,-915.172813,0
0.103125,-130.674496,-20.208460,193.534660,6.513318,2.763132,4.074242,-6.098728,-2.510408,-3.847135,6.057559,-0.252642,0.343501,-0.020755,-23.703421,188.495278,1517.502765,-914.904826,0
0.104167,-70.048831,-81.651938,202.669129,6.705588,-0.073540,5.947413,-5.035288,0.330947,-5.630729,4.965300,-0.238030,0.326189,-0.002084,-11.443381,188.419884,1516.946040,-914.244875,0
0.105208,-15.979131,-155.055511,173.197538,6.185328,-2.480629,6.522858,-3.225573,2.790024,-6.440691,3.350037,-0.186888,0.324426,-0.046895,-7.292611,188.417132,1517.296012,-914.025169,0
0.106250,31.727426,-200.805894,106.523296,4.941228,-4.582394,5.919633,-0.598689,4.774929,-5.832170,0.784830,-0.150358,0.322401,-0.013287,-15.243541,188.419898,1516.595235,-913.531801,0
0.107292,103.117124,-195.478216,49.205114,3.878088,-6.130315,4.705247,1.916255,6.524586,-4.736834,-1.680758,-0.080951,0.300909,-0.069301,-13.264291,188.494252,1516.915499,-913.017421,0
0.108333,166.884662,-145.173331,-2.277841,2.961978,-6.520846,2.780484,4.024479,6.851728,-2.781175,-3.737193,-0.073645,0.313974,-0.028224,-4.713931,188.420434,1515.985202,-913.103381,0
0.109375,202.931128,-84.551355,-57.257008,1.819668,-5.810790,0.248527,5.520758,6.241553,-0.279946,-5.302646,-0.000585,0.319461,-0.054364,4.130488,188.420271,1516.443799,-913.460756,0
0.110417,176.117457,-30.815494,-138.728599,0.304128,-4.539790,-2.100875,6.438675,4.859471,2.040825,-6.096046,0.014027,0.328933,-0.043161,20.213308,188.420401,1515.509563,-913.569533,0
