1-Time,2-VGERA,3-VGERB,4-VGERC,5-VN,6-IGERAN,7-IGERBN,8-IGERCN,9-IGERAT,10-IGERBT,11-IGERCT,12-IN,13-IFD,14-IFAULT,15-VFAULT,16-Speed (rad/s),17-Active Power,18-Reactive Power,19-FAULT 
0.000000,-118.129691,195.773942,-35.319508,2.249448,4.041232,-5.525762,1.046845,-3.763839,5.608014,-1.033230,-0.117481,0.436589,-0.046895,16.051228,188.495584,1588.416696,8.868394,0
0.001042,-161.265220,157.030482,30.406818,3.516168,5.212824,-4.485993,-1.031528,-5.054027,4.672152,0.966280,-0.157664,0.446714,-0.028224,10.203958,188.495378,1589.158366,9.644693,0
0.002083,-195.428832,82.430900,82.160606,4.432278,5.937081,-2.743785,-3.333783,-5.697283,2.859180,3.182819,-0.194194,0.446061,-0.061832,2.795908,188.495607,1589.403064,9.164204,0
0.003125,-180.445389,18.341704,143.098106,5.608518,5.447142,-0.822991,-4.550210,-5.359114,1.008439,4.388929,-0.248989,0.455010,-0.043161,-1.320932,188.570897,1589.445744,8.794121,0
0.004167,-133.226559,-43.343391,188.893561,6.434148,4.442413,1.498631,-5.632307,-4.340931,-1.291349,5.410031,-0.263601,0.459191,-0.046895,-7.179511,188.495455,1589.734726,9.292806,0
0.005208,-62.630836,-100.002831,197.806440,6.660348,2.525263,3.562295,-5.512903,-2.418514,-3.398089,5.431378,-0.252642,0.449719,-0.061832,-12.269011,188.570003,1590.052826,9.395194,0
0.006250,0.909852,-162.461105,170.526137,6.162708,0.345392,5.129885,-4.833794,-0.231443,-4.921488,4.709135,-0.241683,0.426529,-0.065566,-17.007901,188.489853,1590.069777,8.977056,0
0.007292,58.892714,-186.840369,114.291288,5.088258,-1.909034,5.717236,-3.102438,2.040171,-5.592959,3.086757,-0.183235,0.424504,-0.031958,-15.842971,188.495732,1590.068098,7.791648,0
0.008333,118.486212,-195.828562,35.183333,3.617958,-3.953995,5.705330,-1.158394,4.069185,-5.626532,1.226003,-0.146705,0.438026,-0.058098,-10.810021,188.495676,1590.618213,7.671152,0
0.009375,161.224754,-156.299844,-30.309091,2.373858,-5.082983,4.645718,0.983412,5.304237,-4.678080,-0.745044,-0.088257,0.445865,-0.046895,-7.337851,188.571089,1590.877842,8.281389,0
0.010417,195.637900,-81.615695,-82.075190,1.355958,-5.821441,2.867792,3.278205,5.969548,-2.898682,-3.039855,-0.040768,0.450634,-0.031958,2.422678,188.495622,1592.054080,7.367380,0
0.011458,179.656317,-17.743956,-143.320455,0.213648,-5.327952,0.907312,4.461049,5.572567,-1.014367,-4.249523,-0.015197,0.455076,-0.039427,6.347248,188.495685,1592.509692,6.307061,0
0.012500,132.403460,43.953221,-189.239016,-0.691152,-4.326774,-1.450027,5.595385,4.528654,1.310601,-5.302646,-0.000585,0.460236,-0.046895,12.454648,188.495649,1593.623146,5.556447,0
0.013542,61.921162,100.503933,-197.696402,-0.849492,-2.356369,-3.485910,5.490907,2.639318,3.434127,-5.320435,-0.029809,0.457101,-0.050629,17.306638,188.571011,1595.011391,4.719096,0
0.014583,-1.721608,162.950125,-170.563826,-0.340542,-0.190700,-5.037627,4.744633,0.437544,4.999494,-4.587519,-0.033462,0.439724,-0.054364,21.457408,188.495734,1596.416393,3.698496,0
0.015626,-59.171373,187.244823,-113.541099,0.711288,2.095680,-5.621008,2.987158,-1.834070,5.645784,-2.975814,-0.059033,0.443840,-0.043161,21.423478,188.488018,1597.616905,2.884722,0
0.016667,-119.048433,196.160531,-34.876326,2.238138,4.122888,-5.577354,1.009532,-3.892490,5.662571,-1.008325,-0.099216,0.437111,-0.046895,16.028608,188.495389,1599.508477,2.051517,0
0.017709,-161.639523,155.761988,30.271402,3.470928,5.276729,-4.489962,-1.158394,-5.145921,4.672152,1.040995,-0.168623,0.444101,-0.069301,11.380198,188.570779,1600.337720,1.021169,0
0.018750,-196.767247,81.416104,82.259091,4.432278,6.047139,-2.688225,-3.483038,-5.811231,2.842394,3.289554,-0.197847,0.446453,-0.024490,2.637568,188.495606,1602.503036,0.082591,0
0.019792,-179.186371,17.749740,143.885985,5.631138,5.514597,-0.711870,-4.703196,-5.377493,0.970669,4.499222,-0.194194,0.455990,-0.013287,-1.479272,188.476996,1603.437189,-0.565496,0
0.020834,-132.228419,-43.850789,189.779925,6.524628,4.428212,1.649437,-5.677083,-4.344607,-1.404660,5.530997,-0.238030,0.464025,-0.043161,-7.032481,188.472455,1605.265586,-1.715536,0
0.021875,-61.791491,-100.631038,197.486364,6.637728,2.464908,3.681352,-5.606187,-2.363378,-3.494613,5.484745,-0.245336,0.430252,-0.035692,-12.393421,188.494895,1606.218948,-2.638322,0
0.022917,1.964704,-162.968503,170.772349,6.207948,0.281487,5.217194,-4.863645,-0.154252,-5.064176,4.755387,-0.252642,0.428750,-0.095440,-16.860871,188.507589,1608.333535,-3.665497,0
0.023959,59.244332,-186.828288,113.244887,5.088258,-1.994241,5.788670,-3.053930,2.128389,-5.664303,3.115220,-0.197847,0.442403,-0.061832,-16.261441,188.520432,1609.574711,-4.039560,0
0.025000,119.246160,-196.335960,34.863258,3.617958,-3.985947,5.748984,-1.124812,4.164754,-5.681089,1.183309,-0.179582,0.440377,-0.058098,-11.533861,188.500262,1611.168978,-4.894022,0
0.026042,161.496974,-155.127996,-30.333712,2.407788,-5.146888,4.637781,1.039383,5.355697,-4.652900,-0.876685,-0.106522,0.448804,-0.073035,-7.190821,188.571509,1611.434065,-6.566051,0
0.027084,196.817520,-80.915003,-82.112121,1.389888,-5.903097,2.804295,3.360295,6.050414,-2.881895,-3.107454,-0.040768,0.442860,-0.028224,2.535778,188.496053,1612.978743,-7.206176,0
0.028125,178.556095,-17.019102,-144.009849,0.202338,-5.356354,0.891438,4.528213,5.579918,-1.001777,-4.260197,-0.037115,0.446518,-0.058098,6.663928,188.496036,1612.913831,-6.870655,0
0.029167,131.666198,44.279405,-189.953031,-0.713772,-4.316123,-1.446058,5.628968,4.521302,1.356764,-5.370245,-0.029809,0.458407,-0.035692,12.284998,188.496105,1613.838823,-7.314844,0
0.030209,61.047789,101.156301,-197.240910,-0.872112,-2.377671,-3.505753,5.498370,2.584182,3.471898,-5.323993,-0.029809,0.455794,-0.076769,17.363188,188.702114,1613.743972,-7.733767,0
0.031250,-2.776461,163.300472,-170.526894,-0.385782,-0.183599,-5.109061,4.763290,0.426517,5.024674,-4.587519,-0.055380,0.431820,-0.043161,21.434788,188.474820,1614.077422,-7.550240,0
0.032292,-59.727156,186.942801,-112.703978,0.745218,2.116981,-5.624977,2.983426,-1.874503,5.683555,-2.922446,-0.069992,0.448674,-0.013287,20.903218,188.487215,1614.101496,-8.136004,0
0.033334,-119.683613,196.269259,-34.556250,2.215518,4.190344,-5.648789,0.983412,-3.932923,5.641588,-0.969189,-0.099216,0.439006,-0.054364,15.700618,188.489104,1614.238716,-8.714347,0
0.034375,-161.855030,155.302913,30.579167,3.459618,5.322882,-4.497899,-1.206902,-5.167975,4.621791,1.094363,-0.157664,0.444362,-0.058098,9.932518,188.564811,1614.042125,-9.569429,0
0.035417,-197.391084,80.751655,82.431440,4.477518,6.011636,-2.660445,-3.479306,-5.792853,2.813017,3.303785,-0.194194,0.446649,-0.039427,2.660188,188.487143,1613.880375,-9.744580,0
0.036459,-178.868781,17.169857,144.206061,5.597208,5.482645,-0.715839,-4.695733,-5.406899,0.962275,4.495664,-0.179582,0.457819,-0.039427,-1.388792,188.557183,1614.098593,-9.384835,0
0.037500,-131.649951,-43.983679,190.407766,6.524628,4.463715,1.633563,-5.714397,-4.315201,-1.421446,5.552345,-0.267254,0.460563,-0.076769,-7.202131,188.469638,1614.217818,-9.641805,0
0.038542,-61.133626,-101.065951,197.363258,6.660348,2.429406,3.705164,-5.606187,-2.396460,-3.473629,5.442051,-0.256295,0.447302,-0.073035,-12.382111,188.696965,1613.664569,-8.811706,0
0.039584,2.849419,-163.355092,170.587690,6.151398,0.277937,5.276723,-4.874839,-0.121170,-5.118733,4.808755,-0.208806,0.450176,-0.065566,-17.041831,188.470237,1614.815615,-8.761688,0
0.040625,59.664004,-186.949097,112.481629,5.088258,-2.068797,5.804544,-3.094975,2.150443,-5.693680,3.104546,-0.172276,0.419212,-0.054364,-15.729871,188.489468,1615.123684,-8.776139,0
0.041667,119.972080,-196.299717,34.604735,3.606648,-4.053402,5.760890,-1.080036,4.234594,-5.765023,1.165520,-0.139399,0.439855,-0.076769,-10.719541,188.485912,1616.735040,-9.019399,0
0.042709,161.927989,-154.632679,-30.432197,2.362548,-5.207243,4.633812,1.080428,5.429212,-4.703260,-0.908705,-0.102869,0.446387,-0.058098,-7.145581,188.637085,1618.041294,-9.168089,0
0.043750,197.498070,-79.936450,-82.419887,1.389888,-5.952801,2.804295,3.405071,6.076144,-2.886092,-3.175054,-0.077298,0.449915,-0.020755,2.592328,188.487610,1618.897047,-9.422601,0
0.044792,177.977627,-16.270086,-144.514584,0.179718,-5.395408,0.804129,4.636423,5.664460,-0.905253,-4.359817,-0.004238,0.438548,-0.046895,6.482968,188.494918,1620.501719,-10.473156,0
0.045834,130.917593,44.641832,-190.556251,-0.679842,-4.326774,-1.537336,5.681207,4.565411,1.444895,-5.412939,-0.029809,0.462523,-0.058098,12.499888,188.496009,1621.658148,-10.898631,0
0.046875,60.378582,101.458324,-197.327084,-0.838182,-2.320867,-3.616874,5.546877,2.620939,3.534848,-5.331109,-0.015197,0.431167,-0.065566,17.397118,188.571404,1622.350969,-10.782902,0
0.047917,-3.593121,163.530009,-170.748485,-0.329232,-0.087742,-5.156684,4.804335,0.411814,5.154771,-4.644444,-0.033462,0.411047,-0.039427,21.559198,188.496111,1624.383714,-11.076321,0
0.048959,-59.908636,187.462280,-111.571402,0.790458,2.205738,-5.708317,2.949844,-1.925964,5.742308,-2.947351,-0.066339,0.444166,-0.035692,21.265138,188.496268,1625.459966,-11.065978,0
0.050000,-120.330136,196.559200,-34.334659,2.260758,4.250698,-5.660694,0.953561,-4.032168,5.721325,-0.951399,-0.106522,0.439659,-0.020755,15.734548,188.495987,1627.359252,-11.624647,0
0.051042,-162.388128,153.974014,30.406818,3.459618,5.404539,-4.497899,-1.270335,-5.208408,4.646971,1.147730,-0.139399,0.443905,-0.031958,11.131378,188.496069,1627.888901,-11.943499,0
0.052084,-198.253114,79.736859,82.591478,4.420968,6.103944,-2.648539,-3.583785,-5.914152,2.813017,3.396289,-0.216112,0.449000,-0.073035,2.445298,188.496154,1630.005773,-12.539271,0
0.053125,-177.768558,16.602054,144.981629,5.642448,5.546550,-0.632499,-4.818868,-5.439981,0.832178,4.549032,-0.267254,0.457035,-0.061832,-1.547132,188.496083,1630.475762,-13.808297,0
0.054167,-131.082826,-44.406511,190.666288,6.502008,4.470816,1.720872,-5.807681,-4.326228,-1.517970,5.630617,-0.256295,0.460236,-0.046895,-7.122961,188.496187,1631.736753,-14.744639,0
0.055209,-60.282938,-101.585430,197.092425,6.637728,2.401003,3.808347,-5.632307,-2.267808,-3.633103,5.530997,-0.234377,0.423785,-0.054364,-12.483901,188.496174,1633.235745,-16.990426,0
0.056250,3.858902,-163.524224,170.895455,6.162708,0.189180,5.320377,-4.889764,-0.077061,-5.185880,4.844333,-0.259948,0.415097,-0.043161,-16.928731,188.496111,1634.408267,-17.331268,0
0.057292,59.890854,-187.251120,111.558334,5.031708,-2.154004,5.844230,-3.042736,2.223958,-5.735646,3.054736,-0.219765,0.437111,-0.031958,-16.216201,188.496167,1634.813920,-18.294409,0
0.058334,120.471150,-196.456769,34.383144,3.640578,-4.156360,5.812482,-1.035259,4.267675,-5.798597,1.126383,-0.161317,0.446191,-0.084238,-11.341591,188.496147,1635.511889,-18.720027,0
0.059375,162.302291,-153.388346,-30.481439,2.328618,-5.296000,4.606032,1.166249,5.418185,-4.673883,-0.976304,-0.095563,0.450176,-0.046895,-6.806281,188.496154,1634.998980,-19.327626,0
0.060417,198.292045,-79.163272,-82.616856,1.355958,-5.995405,2.788421,3.438653,6.142308,-2.852519,-3.199958,-0.084604,0.450046,-0.054364,2.716738,188.492573,1635.904923,-19.623482,0
0.061459,177.251707,-15.786849,-145.019319,0.168408,-5.377656,0.776349,4.651349,5.587270,-0.901056,-4.374048,-0.033462,0.456774,-0.073035,6.731788,188.495745,1635.078836,-19.736225,0
0.062500,130.384495,44.943855,-190.900948,-0.691152,-4.323224,-1.557179,5.651356,4.543357,1.465878,-5.452075,-0.026156,0.453116,-0.069301,12.364168,188.495714,1635.415184,-20.003892,0
0.063554,58.507069,103.548320,-196.686932,-0.826872,-2.246311,-3.636717,5.517027,2.536397,3.618782,-5.284857,-0.029809,0.425614,-0.061832,17.691178,188.420282,1635.047932,-20.469154,0
0.064594,-5.532688,164.182378,-170.489963,-0.317922,-0.048689,-5.224150,4.755827,0.279487,5.188345,-4.605308,-0.037115,0.448935,-0.020755,21.366928,188.495658,1635.080602,-21.532279,0
0.065625,-60.158171,187.365632,-111.091288,0.813078,2.241241,-5.716254,2.897605,-1.940667,5.754898,-2.883310,-0.073645,0.442990,-0.054364,20.857978,188.495673,1634.736338,-22.097113,0
0.066667,-121.033371,196.414229,-33.928409,2.260758,4.250698,-5.664663,0.949830,-4.050547,5.738112,-0.954957,-0.117481,0.440900,-0.087972,15.406558,188.495669,1635.187195,-21.811626,0
0.067708,-162.614978,153.599506,30.874621,3.459618,5.400989,-4.466151,-1.326306,-5.241490,4.655365,1.126383,-0.146705,0.450503,-0.043161,9.706318,188.571187,1635.580479,-21.369672,0
0.068750,-198.729499,79.132813,82.800758,4.409658,6.089743,-2.636633,-3.594979,-5.884746,2.817213,3.403405,-0.190541,0.445538,-0.046895,2.524468,188.495736,1635.417264,-21.137875,0
0.069792,-177.416941,15.889281,145.129357,5.585898,5.528799,-0.608687,-4.807674,-5.425278,0.848965,4.577495,-0.248989,0.452005,-0.058098,-1.501892,188.495651,1635.443661,-20.873957,0
0.070834,-130.345564,-44.744776,191.257198,6.490698,4.460165,1.720872,-5.815144,-4.304174,-1.530560,5.634175,-0.248989,0.449915,-0.058098,-7.258681,188.495721,1635.377081,-20.858397,0
0.071875,-59.783868,-101.935776,197.018561,6.637728,2.429406,3.824221,-5.669621,-2.322945,-3.616317,5.477630,-0.234377,0.452071,-0.043161,-12.529141,188.646404,1634.849902,-19.930959,0
0.072917,4.448712,-163.874571,170.661554,6.151398,0.214032,5.352126,-4.878570,-0.073385,-5.185880,4.801639,-0.230724,0.455337,-0.046895,-17.007901,188.495631,1634.447943,-19.902774,0
0.073958,59.992937,-187.335686,111.115152,5.054328,-2.143353,5.828356,-2.997960,2.227634,-5.756630,3.036947,-0.208806,0.447041,-0.039427,-15.718561,188.495627,1634.541568,-19.974829,0
0.075000,121.140357,-196.348041,34.112311,3.584028,-4.181212,5.804544,-1.001677,4.333839,-5.777613,1.126383,-0.102869,0.440769,-0.039427,-10.685611,188.495846,1634.950265,-20.297883,0
0.076042,162.608539,-152.917191,-30.715341,2.351238,-5.327952,4.610001,1.259533,5.480673,-4.669687,-1.015441,-0.099216,0.447563,-0.020755,-6.896761,188.571094,1635.621439,-20.839502,0
0.077083,198.655005,-78.390094,-82.752273,1.344648,-6.027357,2.740798,3.520744,6.153335,-2.793765,-3.253326,-0.073645,0.447106,-0.050629,2.807218,188.495631,1635.748544,-21.701068,0
0.078125,176.775322,-15.206966,-145.524053,0.213648,-5.374106,0.740631,4.699856,5.631379,-0.880073,-4.413184,-0.015197,0.457689,-0.069301,6.516898,188.496883,1636.514824,-21.666308,0
0.079167,129.908110,45.366687,-191.171781,-0.679842,-4.337425,-1.628613,5.714789,4.561735,1.545616,-5.509001,-0.044421,0.446387,-0.009553,12.590368,188.495749,1637.575880,-22.304542,0
0.080209,59.006139,102.545605,-197.068561,-0.804252,-2.264062,-3.735931,5.539415,2.543749,3.618782,-5.380919,-0.055380,0.443252,-0.054364,17.487598,188.571027,1638.726385,-22.554428,0
0.081250,-4.999591,163.807870,-170.920834,-0.306612,-0.073540,-5.263836,4.781947,0.323596,5.221918,-4.623097,-0.029809,0.419278,-0.050629,21.627058,188.495640,1639.268015,-22.487967,0
0.082292,-60.350993,187.764302,-109.897159,0.790458,2.298045,-5.759909,2.901336,-2.047263,5.843029,-2.872637,-0.069992,0.441292,-0.020755,21.219898,188.495645,1640.624468,-23.422429,0
0.083334,-121.600496,196.474634,-33.694508,2.238138,4.318154,-5.668631,0.878934,-4.090980,5.750702,-0.915821,-0.084604,0.444689,-0.035692,15.530968,188.495703,1641.129753,-23.939346,0
0.084375,-163.272843,152.379334,30.739205,3.436998,5.468444,-4.446308,-1.367351,-5.278248,4.605005,1.247350,-0.157664,0.443317,-0.020755,10.882558,188.646400,1641.113405,-25.568490,0
0.085417,-199.330652,78.262988,82.960796,4.432278,6.139446,-2.573136,-3.654681,-5.939883,2.766853,3.488793,-0.219765,0.447237,-0.039427,2.298268,188.495573,1642.072048,-26.635657,0
0.086458,-176.407458,15.091941,145.966478,5.653758,5.525248,-0.533284,-4.863645,-5.403223,0.811194,4.655767,-0.241683,0.451025,-0.043161,-1.648922,188.495745,1642.385970,-27.147855,0
0.087500,-130.073344,-45.203851,191.232576,6.479388,4.399810,1.776432,-5.856189,-4.282119,-1.568331,5.683985,-0.238030,0.432669,-0.058098,-7.303921,188.495785,1642.862115,-27.670412,0
0.088542,-58.865126,-102.624387,196.895455,6.649038,2.322897,3.863907,-5.669621,-2.260457,-3.675070,5.520324,-0.256295,0.447041,-0.054364,-12.563071,188.571199,1643.485661,-28.282415,0
0.089583,5.265372,-163.729600,170.833902,6.162708,0.157228,5.423560,-4.878570,0.014833,-5.232043,4.758945,-0.223418,0.433845,-0.050629,-16.906111,188.495741,1643.507286,-29.581228,0
0.090625,60.367239,-187.710194,110.068750,5.031708,-2.200157,5.883916,-2.968109,2.275419,-5.794400,3.015600,-0.205153,0.448478,-0.061832,-16.159651,188.495627,1643.992287,-29.893534,0
0.091667,121.548687,-196.227232,33.816856,3.606648,-4.209615,5.820419,-0.964363,4.348542,-5.744040,1.087247,-0.150358,0.445212,-0.102909,-11.205871,188.495642,1643.658329,-30.347347,0
0.092709,163.073581,-151.999042,-30.764583,2.339928,-5.317301,4.574283,1.270728,5.476997,-4.606736,-1.065250,-0.117481,0.447563,-0.050629,-6.500911,188.646482,1643.015028,-31.079040,0
0.093750,198.949910,-77.484026,-83.096970,1.322028,-5.991854,2.713018,3.487161,6.153335,-2.772781,-3.303136,-0.066339,0.446061,-0.054364,2.841148,188.495640,1643.212392,-31.412579,0
0.094793,176.072087,-14.240494,-145.967235,0.191028,-5.409609,0.712851,4.696125,5.609324,-0.863286,-4.409626,-0.066339,0.456251,-0.046895,6.856198,188.495785,1642.761498,-31.146159,0
0.095833,129.306957,45.753276,-191.233334,-0.691152,-4.259318,-1.624645,5.696132,4.532329,1.533025,-5.441402,-0.011544,0.438287,-0.031958,12.511198,188.495671,1641.594984,-30.745313,0
0.096875,58.416329,103.113408,-196.797728,-0.826872,-2.249861,-3.712120,5.490907,2.529046,3.622978,-5.352456,-0.051727,0.434237,-0.031958,17.657248,188.646460,1641.170564,-30.601540,0
0.097917,-5.578058,164.121973,-170.662311,-0.351852,-0.041588,-5.180496,4.722245,0.272135,5.158968,-4.587519,0.010374,0.442011,-0.035692,21.400858,188.495812,1640.178634,-30.720300,0
0.098959,-60.804693,187.522684,-109.626326,0.813078,2.329998,-5.720223,2.867754,-2.003154,5.704538,-2.837058,-0.059033,0.433518,-0.031958,20.824048,188.495667,1638.035817,-30.165145,0
0.100000,-122.088224,196.196773,-33.423674,2.238138,4.303953,-5.621008,0.882665,-4.087305,5.725522,-0.873127,-0.095563,0.438483,-0.035692,15.180358,188.495731,1637.606039,-30.456228,0
0.101042,-163.272843,152.294768,31.219318,3.448308,5.422290,-4.378842,-1.363620,-5.259869,4.592414,1.190424,-0.186888,0.443840,-0.035692,9.491428,188.721844,1637.208460,-29.609551,0
0.102083,-199.149172,77.429406,83.588637,4.488828,6.075541,-2.553293,-3.576322,-5.903125,2.758460,3.449657,-0.212459,0.444558,-0.046895,2.388748,188.571042,1636.405119,-28.846963,0
0.103125,-176.498198,14.367087,145.966478,5.642448,5.454243,-0.557095,-4.807674,-5.344411,0.773424,4.573937,-0.234377,0.446322,-0.031958,-1.581062,188.495765,1634.940634,-28.707633,0
0.104167,-129.324739,-45.542116,191.367993,6.490698,4.378508,1.772463,-5.796487,-4.256389,-1.580921,5.637733,-0.263601,0.449327,-0.069301,-7.337851,188.495568,1634.112332,-28.602019,0
0.105208,-58.547536,-102.914329,196.673864,6.581178,2.344199,3.796441,-5.602456,-2.208996,-3.649890,5.484745,-0.234377,0.409936,-0.061832,-12.619621,188.721884,1633.222708,-28.766981,0
0.106250,5.492222,-164.031622,170.439963,6.117468,0.139476,5.340220,-4.844988,0.000130,-5.240437,4.723366,-0.230724,0.420192,-0.024490,-16.951351,188.571105,1632.926575,-28.646690,0
0.107292,60.820939,-187.335686,109.871781,5.009088,-2.178855,5.828356,-2.949452,2.227634,-5.769220,2.969348,-0.186888,0.441488,-0.035692,-15.673321,188.495584,1631.981643,-28.346791,0
0.108333,122.115812,-196.009775,33.533712,3.595338,-4.159911,5.717236,-0.964363,4.304433,-5.748237,1.069458,-0.175929,0.444036,-0.065566,-10.583821,188.571085,1631.671679,-27.908400,0
0.109375,163.084924,-151.527887,-31.490909,2.328618,-5.274698,4.530629,1.274459,5.476997,-4.568966,-1.040345,-0.091910,0.441684,-0.050629,-6.625321,188.647291,1631.201151,-27.533153,0
0.110417,198.995280,-76.879981,-83.515531,1.333338,-5.942150,2.665395,3.487161,6.079820,-2.768585,-3.278231,-0.088257,0.445473,-0.035692,2.909008,188.576699,1630.170332,-27.005153,0
0.111459,175.765839,-13.914309,-146.188826,0.123168,-5.342153,0.696977,4.699856,5.554188,-0.796139,-4.416742,-0.015197,0.454880,-0.061832,6.596068,188.495365,1629.501862,-27.879467,0
