1-Time,2-VGERA,3-VGERB,4-VGERC,5-VN,6-IGERAN,7-IGERBN,8-IGERCN,9-IGERAT,10-IGERBT,11-IGERCT,12-IN,13-IFD,14-IFAULT,15-VFAULT,16-Speed (rad/s),17-FAULT 
0.000000,-126.988184,-79.598184,170.513826,6.207948,4.804542,-2.045314,-2.915870,-4.730561,2.191906,2.674047,-0.197847,0.513868,-0.050629,-83.499390,188.570553,0
0.001042,-46.615225,-129.238619,187.293182,6.502008,4.648330,-0.124520,-4.356178,-4.609261,0.227854,4.225268,-0.252642,0.552345,-0.058098,-40.611871,188.721411,0
0.002083,22.426575,-168.622366,152.392614,5.846028,3.615199,1.578003,-4.956929,-3.624160,-1.383676,4.783850,-0.267254,0.545812,-0.087972,2.501848,188.646007,0
0.003125,93.827616,-179.821364,102.497728,4.929918,1.967870,3.526577,-5.046482,-1.925964,-3.398089,4.876354,-0.245336,0.556395,-0.050629,53.295057,188.570738,0
0.004167,140.127703,-175.375591,20.164394,3.335208,0.157228,4.582221,-4.218118,-0.198361,-4.447262,4.157669,-0.201500,0.559465,-0.043161,81.095037,188.570673,0
0.005208,169.187189,-150.319796,-57.663258,1.830978,-1.667615,5.070356,-2.848705,1.657893,-5.055782,2.795013,-0.179582,0.551561,-0.031958,101.328626,188.721485,0
0.006250,172.147582,-79.718993,-121.887690,0.654738,-3.417903,4.804461,-0.871079,3.378144,-4.837554,1.001859,-0.150358,0.551038,-0.054364,108.001526,188.721440,0
0.007292,171.228839,4.170804,-157.132955,-0.057792,-4.451034,3.931373,0.864008,4.513951,-3.968839,-0.737929,-0.143052,0.551561,-0.054364,111.326666,188.570604,0
0.008333,127.435445,79.205299,-170.416099,-0.329232,-4.692452,2.169322,2.755813,4.778605,-2.298555,-2.531083,-0.084604,0.544375,-0.058098,89.283476,188.646150,0
0.009375,47.289336,129.630992,-187.146213,-0.657222,-4.514939,0.216778,4.162539,4.572763,-0.242176,-4.075189,-0.022503,0.539214,-0.065566,45.253647,188.721563,0
0.010417,-22.637179,168.652312,-152.541099,-0.046482,-3.535062,-1.497650,4.778215,3.661177,1.339978,-4.605308,-0.048074,0.539867,-0.028224,0.726178,188.721395,0
0.011458,-94.378495,180.467436,-101.538258,0.948798,-1.820277,-3.418444,4.837917,1.896817,3.354390,-4.690696,-0.004238,0.553912,-0.031958,-47.375251,188.570705,0
0.012500,-140.213539,175.695479,-18.675568,2.543508,-0.109043,-4.497899,4.099106,0.202296,4.416153,-4.004032,-0.051727,0.552541,-0.058098,-76.464570,188.645011,0
0.013542,-169.352423,150.373904,58.721212,4.002498,1.726451,-4.986035,2.718499,-1.687040,4.986904,-2.705418,-0.077298,0.550450,-0.046895,-95.770739,188.721587,0
0.014583,-172.210733,79.374431,122.268561,5.201358,3.483838,-4.712203,0.740873,-3.363182,4.777069,-0.848222,-0.117481,0.547249,-0.031958,-103.393679,188.721440,0
0.015625,-171.586896,-3.983806,157.427652,5.902578,4.552472,-3.851020,-0.968094,-4.451204,3.962911,0.870218,-0.172276,0.539998,-0.046895,-107.612309,188.570774,0
0.016667,-127.997666,-78.378013,170.378410,6.162708,4.818743,-2.069126,-2.893481,-4.767318,2.259053,2.720299,-0.212459,0.542546,-0.035692,-83.533320,188.646049,0
0.017708,-48.373313,-129.299023,187.108523,6.456768,4.609277,-0.104677,-4.352447,-4.612937,0.236247,4.253730,-0.208806,0.551365,-0.028224,-41.143441,188.723255,0
0.018750,21.031448,-168.489476,152.417235,5.812098,3.650701,1.597846,-4.953198,-3.657242,-1.413053,4.741155,-0.263601,0.560380,-0.043161,1.936348,188.721779,0
0.019792,93.487341,-180.171710,102.165341,4.884678,1.911065,3.550389,-4.971854,-1.933315,-3.427465,4.890585,-0.248989,0.556656,-0.028224,52.639077,188.571138,0
0.020833,139.934880,-175.435996,19.167235,3.278658,0.118175,4.558409,-4.169610,-0.187334,-4.472442,4.111417,-0.234377,0.551691,-0.061832,80.868837,188.722034,0
0.021875,168.948997,-150.162745,-59.029735,1.797048,-1.738621,5.058451,-2.803928,1.709353,-5.080962,2.841265,-0.197847,0.549797,-0.043161,99.847016,188.721922,0
0.022917,171.864019,-78.015586,-122.207766,0.620808,-3.467606,4.832241,-0.852422,3.433280,-4.782997,0.937817,-0.135746,0.526280,-0.043161,108.114626,188.721871,0
0.023958,171.285552,5.910454,-156.775947,-0.046482,-4.472335,3.931373,0.897591,4.524978,-3.964642,-0.798412,-0.106522,0.525692,-0.054364,110.806406,188.571256,0
0.025000,126.630127,79.845587,-170.551516,-0.317922,-4.767008,2.125667,2.841634,4.793308,-2.252391,-2.602240,-0.091910,0.534054,-0.039427,87.496497,188.646562,0
0.026042,47.085171,129.594749,-187.158523,-0.589362,-4.575293,0.157250,4.285674,4.565411,-0.246372,-4.117883,-0.040768,0.543330,-0.046895,45.536397,188.721915,0
0.027083,-21.786492,169.147629,-152.442614,-0.001242,-3.478257,-1.561147,4.886425,3.613392,1.428108,-4.648002,-0.018850,0.556264,-0.058098,2.875078,188.646482,0
0.028125,-93.913452,179.875472,-102.757008,0.937488,-1.791875,-3.477973,4.822992,1.863735,3.446717,-4.754738,-0.029809,0.554892,-0.061832,-46.210321,188.571230,0
0.029167,-140.746637,175.478023,-19.795833,2.509578,0.004566,-4.557428,4.028210,0.088348,4.474907,-3.947106,-0.051727,0.551953,-0.046895,-77.244960,188.646574,0
0.030208,-169.159601,151.026273,58.635038,3.991188,1.861361,-4.982066,2.643872,-1.793637,5.016280,-2.637819,-0.062686,0.549274,-0.084238,-94.911179,188.722030,0
0.031250,-173.197531,78.999923,121.739205,5.201358,3.586796,-4.688391,0.610275,-3.433021,4.735102,-0.730813,-0.121134,0.544114,-0.043161,-103.246649,188.646601,0
0.032292,-171.791061,-4.889874,156.984470,5.879958,4.563123,-3.787523,-1.094961,-4.524719,3.866387,0.998301,-0.161317,0.545877,-0.054364,-106.436069,188.571252,0
0.033333,-126.636566,-79.114948,171.264773,6.185328,4.804542,-1.950068,-3.027811,-4.734237,2.120562,2.759435,-0.197847,0.535817,-0.035692,-83.352360,188.646496,0
0.034375,-46.343005,-129.141972,187.539395,6.490698,4.541821,-0.009431,-4.400955,-4.487961,0.114543,4.250173,-0.201500,0.506094,-0.054364,-40.102921,188.721889,0
0.035417,23.141153,-168.876065,152.564963,5.823408,3.512241,1.716903,-4.990511,-3.528591,-1.522167,4.762503,-0.248989,0.549993,-0.024490,3.474508,188.646600,0
0.036458,94.451453,-179.543503,101.956061,4.873368,1.801006,3.605949,-4.979317,-1.800988,-3.503006,4.865680,-0.248989,0.550515,-0.073035,53.792697,188.571049,0
0.037500,140.320525,-175.846747,19.068750,3.301278,0.057820,4.649687,-4.154684,-0.088088,-4.514409,4.033144,-0.219765,0.553324,-0.058098,81.162897,188.571093,0
0.038542,168.370529,-150.513091,-58.734280,1.830978,-1.802526,5.086231,-2.785272,1.786544,-5.089356,2.752319,-0.194194,0.553324,-0.054364,101.102426,188.721866,0
0.039583,172.975584,-78.680036,-121.432197,0.643428,-3.545713,4.792556,-0.740481,3.477389,-4.782997,0.863103,-0.143052,0.546139,-0.073035,108.567026,188.646607,0
0.040625,171.342264,4.146642,-157.268372,-0.080412,-4.514939,3.923436,0.957292,4.495572,-3.910085,-0.830433,-0.128440,0.547837,-0.054364,111.326666,188.571136,0
0.041667,127.219937,78.432121,-171.450190,-0.351852,-4.777659,2.054233,2.934919,4.815362,-2.185244,-2.655608,-0.088257,0.548817,-0.028224,89.215616,188.571125,0
0.042708,47.618269,129.208160,-187.244698,-0.668532,-4.468785,0.062004,4.244629,4.532329,-0.149848,-4.167693,-0.066339,0.543264,-0.087972,45.434607,188.724547,0
0.043750,-22.149452,169.123467,-152.590341,-0.012552,-3.449855,-1.620676,4.837917,3.525174,1.499452,-4.630213,-0.029809,0.559530,-0.061832,0.590458,188.646456,0
0.044792,-94.219700,180.141252,-101.809091,0.937488,-1.699568,-3.525596,4.852843,1.790220,3.488684,-4.655118,-0.040768,0.549862,-0.035692,-47.646691,188.571094,0
0.045833,-140.281594,176.021664,-18.023106,2.543508,0.079122,-4.533616,3.987165,0.047914,4.487497,-3.883065,-0.069992,0.551299,-0.073035,-76.419330,188.646449,0
0.046875,-168.603818,150.724251,59.804546,4.025118,1.960769,-4.958255,2.595364,-1.812015,5.037264,-2.584451,-0.080951,0.545812,-0.069301,-95.408819,188.721871,0
0.047917,-173.152161,77.707267,121.763826,5.201358,3.629400,-4.680454,0.572961,-3.480806,4.714119,-0.677445,-0.124787,0.523993,-0.076769,-104.083589,188.571265,0
0.048958,-171.859116,-5.216058,157.242993,5.891268,4.598626,-3.771648,-1.136006,-4.550449,3.849600,1.062342,-0.157664,0.554566,-0.039427,-107.646239,188.570997,0
0.050000,-126.999526,-78.643793,171.424811,6.196638,4.832944,-1.922288,-3.076318,-4.767318,2.112169,2.805687,-0.175929,0.536209,-0.031958,-83.363670,188.571288,0
0.051042,-47.488598,-129.009082,187.588637,6.513318,4.584425,0.034224,-4.442000,-4.576179,0.101953,4.289309,-0.238030,0.554043,-0.017021,-41.245231,188.721925,0
0.052083,21.201585,-169.069359,152.614205,5.800788,3.537093,1.780400,-5.039019,-3.605781,-1.593511,4.805197,-0.227071,0.559596,-0.054364,1.970278,188.571018,0
0.053125,93.441971,-179.918011,102.719318,4.873368,1.793906,3.653572,-4.975586,-1.815691,-3.557563,4.869238,-0.252642,0.554500,-0.039427,52.514667,188.571013,0
0.054167,140.309183,-175.822585,19.462689,3.301278,0.001015,4.693341,-4.094982,-0.021925,-4.556376,4.033144,-0.230724,0.555154,-0.061832,80.767047,188.571024,0
0.055208,168.552009,-150.706385,-59.165152,1.774428,-1.859330,5.117979,-2.718107,1.841680,-5.101946,2.709625,-0.183235,0.551038,-0.046895,99.733916,188.722000,0
0.056250,173.066324,-77.508188,-121.567614,0.677358,-3.588316,4.772713,-0.677048,3.598689,-4.803981,0.791946,-0.135746,0.515632,-0.069301,108.962876,188.571156,0
0.057292,171.512402,5.946697,-156.788258,-0.046482,-4.585944,3.855970,1.035651,4.565411,-3.876512,-0.933610,-0.135746,0.545812,-0.069301,110.829026,188.495702,0
0.058333,125.802125,79.893910,-171.536364,-0.340542,-4.795411,1.986767,2.975964,4.804335,-2.097114,-2.726765,-0.066339,0.538888,-0.095440,87.202437,188.571156,0
0.059375,45.746756,129.377293,-187.552463,-0.668532,-4.482986,0.046129,4.345376,4.554384,-0.124668,-4.213945,-0.044421,0.541109,-0.058098,44.880417,188.721974,0
0.060417,-23.022824,169.497975,-152.602652,-0.023862,-3.425003,-1.684173,4.882694,3.488416,1.587582,-4.704928,-0.055380,0.562862,-0.065566,2.026828,188.571134,0
0.061458,-94.299097,179.754663,-102.646212,0.937488,-1.699568,-3.648622,4.905082,1.746111,3.572618,-4.715601,-0.011544,0.553651,-0.054364,-46.628791,188.495779,0
0.062500,-140.485759,176.202877,-19.414205,2.532198,0.199831,-4.632831,3.957314,-0.051331,4.567234,-3.897296,-0.022503,0.552671,-0.076769,-77.233650,188.495712,0
0.063542,-168.535763,151.376619,58.918182,4.013808,2.006923,-5.041595,2.528199,-1.922288,5.070837,-2.527525,-0.048074,0.555676,-0.050629,-94.820699,188.646590,0
0.064583,-174.104931,78.577092,121.135985,5.190048,3.696855,-4.632831,0.468483,-3.591078,4.718315,-0.631193,-0.106522,0.545616,-0.017021,-104.072279,188.571103,0
0.065625,-172.040596,-4.189182,157.021402,5.868648,4.641229,-3.704182,-1.225559,-4.653370,3.811830,1.151288,-0.132093,0.546400,-0.043161,-106.424759,188.495649,0
0.066667,-126.511799,-78.269285,172.495834,6.151398,4.854246,-1.791325,-3.147214,-4.796724,2.007252,2.933769,-0.175929,0.547053,-0.043161,-83.329740,188.495680,0
0.067708,-46.739993,-128.658736,187.760985,6.468078,4.509869,0.101689,-4.479314,-4.495313,0.001233,4.360466,-0.197847,0.538757,-0.050629,-40.114231,188.570998,0
0.068750,23.118468,-169.347220,152.761932,5.846028,3.412833,1.879615,-5.042750,-3.429345,-1.719411,4.837217,-0.238030,0.552932,-0.035692,4.232278,188.495606,0
0.069792,94.564878,-179.471018,101.992993,4.873368,1.701599,3.693258,-4.971854,-1.716446,-3.624710,4.776734,-0.245336,0.546988,-0.065566,54.075447,188.495689,0
0.070833,140.150388,-176.595763,17.997727,3.301278,-0.116144,4.709215,-4.117371,0.047914,-4.627720,3.972661,-0.205153,0.548294,-0.054364,80.981937,188.495721,0
0.071875,167.689979,-150.803033,-59.780682,1.819668,-1.916135,5.098136,-2.673330,1.922547,-5.106143,2.659815,-0.208806,0.550385,-0.050629,100.819676,188.570633,0
0.072917,173.962382,-77.121599,-120.927462,0.643428,-3.645120,4.772713,-0.602420,3.598689,-4.795587,0.724347,-0.154011,0.542219,-0.061832,109.290866,188.495752,0
0.073958,171.512402,4.847335,-157.083713,-0.035172,-4.582394,3.816284,1.058039,4.605844,-3.880708,-0.983420,-0.110175,0.548294,-0.046895,111.439766,188.495812,0
0.075000,126.391935,78.262988,-172.398107,-0.363162,-4.827363,1.935175,3.061785,4.855795,-2.076130,-2.819269,-0.091910,0.546073,-0.024490,89.023346,188.495600,0
0.076042,47.561556,128.966542,-187.330872,-0.668532,-4.461684,-0.009431,4.401347,4.528654,-0.091095,-4.213945,-0.018850,0.555676,-0.065566,45.592947,188.571033,0
0.077083,-21.695752,169.594623,-152.787311,0.010068,-3.375299,-1.783388,4.912545,3.492092,1.625353,-4.687138,-0.062686,0.558028,-0.043161,0.567838,188.495627,0
0.078125,-94.094932,179.802986,-102.461553,0.926178,-1.610811,-3.656559,4.819260,1.716705,3.601995,-4.708485,-0.044421,0.555611,-0.031958,-47.556211,188.495676,0
0.079167,-140.406362,176.516981,-18.146212,2.532198,0.217582,-4.601082,3.931194,-0.073385,4.579824,-3.815466,-0.073645,0.550581,-0.050629,-76.294920,188.495680,0
0.080208,-168.195488,151.098759,60.210796,4.047738,2.035325,-5.045564,2.479691,-1.940667,5.054051,-2.467042,-0.080951,0.543787,-0.050629,-95.216549,188.495747,0
0.081250,-174.229698,76.777037,121.111364,5.167428,3.725257,-4.660611,0.453558,-3.638863,4.709922,-0.560036,-0.121134,0.540847,-0.050629,-104.796119,188.495669,0
0.082292,-171.825088,-5.989236,156.922917,5.891268,4.655430,-3.700214,-1.247947,-4.616613,3.790846,1.154846,-0.164970,0.535883,-0.050629,-107.623619,188.495712,0
0.083333,-125.967359,-78.909573,172.274243,6.219258,4.847145,-1.838948,-3.177065,-4.770994,1.956891,2.955116,-0.219765,0.526411,-0.073035,-83.080920,188.495745,0
0.084375,-46.263608,-128.743302,187.945645,6.490698,4.548922,0.125501,-4.531553,-4.524719,-0.057521,4.388929,-0.241683,0.555349,-0.058098,-40.939861,188.495812,0
0.085417,22.369863,-169.371382,152.786553,5.789478,3.458986,1.899458,-5.076333,-3.480806,-1.715215,4.840775,-0.227071,0.552345,-0.028224,2.479228,188.495696,0
0.086458,93.941041,-179.712636,102.928599,4.918608,1.676747,3.744849,-4.964392,-1.679688,-3.666677,4.837217,-0.223418,0.561294,-0.031958,52.571217,188.495752,0
0.087500,140.479320,-176.185012,19.376515,3.323898,-0.194250,4.772713,-4.102445,0.077320,-4.682277,4.011797,-0.212459,0.559661,-0.028224,80.812287,188.495665,0
0.088542,168.166364,-151.274188,-59.103599,1.785738,-2.015543,5.129885,-2.624823,1.992386,-5.131323,2.620679,-0.183235,0.553390,-0.046895,99.869636,188.495803,0
0.089583,174.098492,-77.471945,-120.976705,0.632118,-3.659321,4.752870,-0.546450,3.613392,-4.757817,0.699442,-0.175929,0.546269,-0.054364,109.867676,188.420253,0
0.090625,171.671197,5.584270,-156.972917,-0.057792,-4.617897,3.784535,1.158786,4.627899,-3.868118,-1.043903,-0.095563,0.547053,-0.069301,110.817716,188.495711,0
0.091667,125.563932,79.193218,-172.619697,-0.408402,-4.823813,1.883584,3.121487,4.866823,-2.038360,-2.854847,-0.077298,0.512366,-0.065566,87.145887,188.420399,0
0.092708,45.712729,129.099432,-187.909470,-0.645912,-4.447483,-0.049117,4.416272,4.554384,0.013823,-4.292217,-0.037115,0.542938,-0.046895,44.394087,188.420573,0
0.093750,-23.816799,169.896645,-152.861175,0.021378,-3.368199,-1.854822,4.975978,3.447983,1.759647,-4.733390,-0.026156,0.535164,-0.046895,1.054168,188.419155,0
0.094792,-94.979647,179.694258,-102.166099,0.971418,-1.568208,-3.751805,4.860305,1.595405,3.643962,-4.680023,-0.059033,0.552736,-0.035692,-47.182981,188.495924,0
0.095833,-140.678582,176.855246,-18.109280,2.554818,0.281487,-4.747920,3.949851,-0.187334,4.646971,-3.843929,-0.077298,0.554435,-0.043161,-77.278890,188.420555,0
0.096875,-167.798501,151.509509,59.853788,4.025118,2.141833,-5.073344,2.453572,-2.047263,5.137985,-2.427906,-0.088257,0.551299,-0.039427,-94.594499,188.420611,0
0.097917,-175.182468,77.260273,120.668182,5.144808,3.874369,-4.676485,0.378930,-3.730757,4.730905,-0.446185,-0.121134,0.546531,-0.069301,-104.875289,188.420598,0
0.098958,-171.995226,-4.177101,157.255304,5.857338,4.726436,-3.648622,-1.359888,-4.671749,3.769863,1.254466,-0.154011,0.547641,-0.046895,-106.311659,188.495955,0
0.100000,-126.398374,-77.351136,173.505304,6.253188,4.939452,-1.755608,-3.300201,-4.855536,1.919121,3.051178,-0.179582,0.539280,-0.054364,-83.442840,188.420732,0
0.101042,-47.318460,-128.441279,187.847160,6.502008,4.499218,0.212810,-4.587523,-4.510016,-0.095291,4.449412,-0.208806,0.543526,-0.031958,-40.408291,188.420647,0
0.102083,22.483288,-169.854618,153.069697,5.846028,3.398632,1.986767,-5.106184,-3.421994,-1.803345,4.904816,-0.263601,0.555545,-0.061832,4.322758,188.420538,0
0.103125,94.394741,-179.277723,102.460796,4.873368,1.619942,3.863907,-4.979317,-1.584119,-3.696054,4.815870,-0.216112,0.557505,-0.050629,54.086757,188.495978,0
0.104167,140.116360,-177.211889,17.480682,3.278658,-0.251054,4.836210,-4.027818,0.220675,-4.732637,3.894388,-0.212459,0.545747,-0.046895,80.868837,188.420721,0
0.105208,167.202252,-150.984246,-60.605493,1.797048,-2.001342,5.145759,-2.565121,2.029144,-5.152306,2.549522,-0.175929,0.549666,0.012853,100.514306,188.345258,0
0.106250,175.130659,-75.490677,-120.447349,0.666048,-3.772930,4.740964,-0.483016,3.742043,-4.745227,0.585590,-0.168623,0.514521,-0.061832,109.980776,188.420716,0
0.107292,171.478374,6.031263,-156.997538,-0.023862,-4.639198,3.772629,1.207294,4.723468,-3.813561,-1.100829,-0.139399,0.544506,-0.054364,111.428456,188.496018,0
0.108333,125.495877,78.516687,-173.333713,-0.397092,-4.841564,1.835961,3.177458,4.881526,-2.013180,-2.954467,-0.040768,0.541893,-0.073035,88.842387,188.420623,0
0.109375,46.608786,128.881976,-187.687879,-0.657222,-4.451034,-0.084834,4.420004,4.565411,0.068380,-4.302891,-0.066339,0.550058,-0.028224,45.683427,188.345164,0
0.110417,-22.036027,170.065778,-153.045834,-0.023862,-3.325595,-1.926257,4.942396,3.429604,1.776434,-4.751180,-0.037115,0.556721,-0.031958,0.647008,188.420585,0
0.111458,-94.026877,179.645935,-102.929356,0.914868,-1.532705,-3.735931,4.830454,1.602757,3.690126,-4.680023,-0.055380,0.554696,-0.046895,-47.397871,188.494460,0
0.112500,-140.576499,177.000217,-18.614015,2.498268,0.327641,-4.728077,3.886418,-0.183658,4.630185,-3.819024,-0.066339,0.554696,-0.061832,-76.215750,188.344898,0
0.113542,-168.093406,151.533671,59.964584,4.013808,2.138283,-5.057470,2.453572,-2.065642,5.100214,-2.403001,-0.048074,0.547510,-0.028224,-95.216549,188.420253,0
0.114583,-175.148441,76.511257,120.618940,5.133498,3.842416,-4.652674,0.337885,-3.719730,4.655365,-0.428396,-0.124787,0.544244,-0.028224,-105.452099,188.420517,0
0.115625,-171.836431,-5.892589,156.824432,5.868648,4.719335,-3.632748,-1.330037,-4.653370,3.732092,1.261581,-0.172276,0.529873,-0.028224,-107.680169,188.495758,0
0.116667,-125.377549,-78.909573,173.172917,6.230568,4.900399,-1.747671,-3.285275,-4.822455,1.893941,3.019158,-0.175929,0.521576,-0.031958,-82.832100,188.345910,0
0.117708,-45.299495,-128.622493,188.241099,6.524628,4.524070,0.200904,-4.583792,-4.502664,-0.124668,4.442296,-0.230724,0.531898,-0.020755,-40.453531,188.420300,0
0.118750,23.628880,-169.576757,153.020455,5.879958,3.391531,2.034390,-5.083795,-3.433021,-1.794952,4.911932,-0.263601,0.561229,-0.058098,3.406648,188.420381,0
0.119792,94.326686,-179.724717,102.620834,4.884678,1.598641,3.832158,-4.971854,-1.613525,-3.746414,4.844333,-0.238030,0.553259,-0.058098,52.808727,188.495727,0
0.120833,140.286498,-176.837381,18.797917,3.335208,-0.265255,4.844147,-4.046475,0.205972,-4.711653,3.961987,-0.223418,0.558289,-0.061832,80.653947,188.344959,0
0.121875,167.803404,-151.443320,-59.337500,1.785738,-2.036844,5.177508,-2.565121,2.076928,-5.198470,2.574427,-0.172276,0.550515,-0.013287,99.892256,188.420282,0
0.122917,174.937837,-77.085356,-120.373485,0.677358,-3.783581,4.736995,-0.479285,3.749395,-4.766210,0.599822,-0.139399,0.545812,-0.065566,110.467106,188.420350,0
0.123958,171.773279,4.533231,-157.108334,-0.057792,-4.685352,3.721038,1.233414,4.730820,-3.834545,-1.189775,-0.102869,0.551691,-0.046895,110.806406,188.495712,0
0.125000,125.552590,78.262988,-173.567614,-0.385782,-4.834464,1.784369,3.222234,4.863147,-1.874689,-2.968698,-0.066339,0.548752,-0.065566,87.168507,188.269351,0
0.126042,46.166429,128.833652,-187.946402,-0.634602,-4.408430,-0.195954,4.453586,4.480869,0.122937,-4.381164,-0.015197,0.546139,-0.046895,44.439327,188.420249,0
0.127083,-23.555922,170.174506,-152.935038,0.010068,-3.236838,-1.981817,4.998366,3.403874,1.847777,-4.783200,-0.044421,0.538104,-0.084238,0.579148,188.420332,0
