1-Time,2-VGERA,3-VGERB,4-VGERC,5-VN,6-IGERAN,7-IGERBN,8-IGERCN,9-IGERAT,10-IGERBT,11-IGERCT,12-IN,13-IFD,14-IFAULT,15-VFAULT,16-Speed (rad/s),17-Active Power,18-Reactive Power,19-FAULT 
0.000000,-146.122233,169.443852,-6.435371,0.111601,4.086176,-5.216763,0.644357,-3.947768,5.141675,-0.875542,0.015390,0.470125,-0.014723,-149.785541,188.495636,1521.386941,93.239181,0
0.001042,-188.270954,121.947031,57.445967,1.361384,5.253069,-4.068181,-1.435620,-5.066759,3.990826,1.176885,0.084667,0.463993,-0.037023,-179.710167,188.495674,1521.677983,93.519943,0
0.002083,-189.886844,46.168226,113.647448,2.464795,5.414525,-2.266239,-3.244967,-5.185327,2.116838,2.939915,0.081021,0.447870,-0.003573,-174.306172,188.571078,1521.025952,93.713746,0
0.003125,-164.394212,-19.004835,167.442899,3.478132,5.010883,-0.210444,-4.706363,-4.829622,0.057656,4.325970,0.088314,0.472192,-0.011006,-152.577605,188.495682,1521.340722,92.904819,0
0.004167,-106.425595,-76.120819,185.135733,3.872208,3.572450,2.057590,-5.297880,-3.336399,-2.235224,4.859068,0.139360,0.466198,-0.029590,-100.035004,188.495645,1522.012657,92.351216,0
0.005208,-29.879901,-131.181426,191.175114,3.996060,1.785417,4.001024,-5.282415,-1.580103,-4.100393,4.756256,0.128422,0.458825,-0.014723,-34.759238,188.495506,1521.898775,91.987621,0
0.006250,37.264255,-166.745317,147.903011,3.151613,-0.225454,5.107991,-4.246293,0.420741,-5.224786,3.693868,0.088314,0.485145,-0.025873,34.456942,188.571154,1522.231666,92.189117,0
0.007292,89.447310,-197.211873,71.250266,1.654126,-2.493189,5.794643,-2.591591,2.621670,-5.855328,2.022225,0.062790,0.473019,-0.040740,101.860531,188.495665,1522.349917,91.955623,0
0.008333,145.935637,-169.587609,7.721326,0.483158,-3.828877,5.249483,-0.712654,3.996324,-5.163054,0.133536,0.029975,0.477635,-0.037023,149.798478,188.495761,1522.211321,91.232591,0
0.009375,188.344257,-122.924684,-56.439500,-0.766624,-4.918710,4.109224,1.394385,5.130135,-4.034252,-1.911275,0.040913,0.470056,0.000144,180.308537,188.495693,1522.362726,91.161697,0
0.010417,189.948846,-48.108970,-113.212110,-1.870035,-5.142548,2.240697,3.196000,5.274641,-2.155855,-3.712384,-0.013779,0.474328,-0.007290,175.321100,188.571089,1522.670852,90.442095,0
0.011458,164.761313,17.040601,-167.445021,-2.917150,-4.764592,0.209871,4.657396,4.904114,-0.109901,-5.121286,-0.061180,0.477084,-0.029590,153.513725,188.495707,1522.265650,89.370736,0
0.012500,107.933988,75.554242,-184.809760,-3.277448,-3.300473,-2.041516,5.241181,3.436828,2.227073,-5.604882,-0.057533,0.478186,-0.033307,100.768474,188.495635,1521.675744,88.676612,0
0.013542,30.721598,131.213844,-191.031416,-3.345004,-1.539126,-4.064020,5.217984,1.706469,4.118698,-5.543956,-0.050241,0.475224,-0.055607,34.896017,188.495407,1520.856310,88.990724,0
0.014583,-37.123153,166.202230,-148.014498,-2.545593,0.479084,-5.141856,4.189595,-0.361070,5.150494,-4.481568,-0.046595,0.470401,-0.044457,-34.297647,188.570834,1520.687194,89.305246,0
0.015625,-89.125410,197.044626,-70.037221,-1.115662,2.779844,-5.811862,2.554223,-2.550883,5.741351,-2.889890,-0.010133,0.463993,-0.007290,-101.644944,188.495454,1519.965045,90.522293,0
0.016667,-145.342538,169.690498,-6.240944,0.111601,4.064159,-5.204279,0.640490,-3.925537,5.150494,-0.894581,0.033621,0.466336,-0.011006,-149.256399,188.570763,1519.734742,90.803206,0
0.017708,-188.248355,121.735621,57.032810,1.395162,5.205365,-4.093150,-1.462682,-5.040822,4.008464,1.180692,0.084667,0.468334,-0.044457,-179.721426,188.495436,1519.485088,90.900391,0
0.018750,-190.067643,46.966887,112.894045,2.453536,5.374161,-2.282885,-3.241101,-5.170506,2.138885,2.898029,0.106545,0.472881,0.003860,-174.542596,188.495399,1519.081739,91.021658,0
0.019792,-164.292513,-17.395768,167.807449,3.511910,4.974189,-0.227090,-4.687032,-4.825917,0.110569,4.287891,0.128422,0.486248,-0.007290,-153.354429,188.495434,1518.679795,91.305139,0
0.020833,-108.075384,-75.345648,184.795486,3.838430,3.568781,1.986844,-5.236022,-3.373452,-2.177902,4.851452,0.135714,0.471572,-0.025873,-101.217128,188.570788,1518.687309,91.573245,0
0.021875,-31.665289,-131.134446,191.296631,3.973542,1.770739,3.996863,-5.259219,-1.606040,-4.113621,4.801950,0.128422,0.475086,-0.014723,-35.592354,188.495436,1519.586900,91.350178,0
0.022917,36.009964,-166.252026,148.887296,3.185390,-0.210776,5.095506,-4.230829,0.376278,-5.198329,3.682445,0.081021,0.478049,-0.033307,33.657601,188.570731,1519.166351,91.184830,0
0.023958,89.108313,-197.188383,71.882153,1.710422,-2.460163,5.790482,-2.572261,2.647606,-5.793596,2.014610,0.055498,0.473846,-0.040740,101.770465,188.495455,1518.619579,90.515318,0
0.025000,145.562740,-170.080899,7.648416,0.460640,-3.828877,5.216191,-0.728118,3.970387,-5.202739,0.103073,0.044560,0.471434,-0.044457,149.595828,188.570756,1518.819324,90.412697,0
0.026042,188.468556,-122.595824,-56.305832,-0.766624,-4.970083,4.142516,1.351858,5.089377,-4.016615,-1.968393,-0.006487,0.467920,-0.040740,180.207212,188.495414,1518.374239,89.783156,0
0.027083,190.197445,-47.603934,-112.458707,-1.847517,-5.149887,2.236536,3.207598,5.296872,-2.142627,-3.750463,-0.046595,0.481907,-0.051890,174.746925,188.570662,1518.730517,89.311029,0
0.028125,164.298016,17.639597,-167.214139,-2.939669,-4.727897,0.247325,4.699923,4.907819,-0.092263,-5.132709,-0.072118,0.446492,-0.025873,153.232267,188.495454,1518.695875,89.318887,0
0.029167,107.741889,75.460282,-184.919125,-3.266189,-3.315150,-2.016547,5.210252,3.466470,2.156523,-5.642960,-0.083057,0.463924,-0.070474,100.847282,188.646239,1518.966404,90.318524,0
0.030208,30.484300,130.485654,-191.250146,-3.378782,-1.491422,-4.068181,5.275976,1.717585,4.127517,-5.616305,-0.068472,0.461857,-0.025873,35.548999,188.495691,1519.740588,90.517474,0
0.031250,-36.784155,166.155249,-148.257532,-2.545593,0.471746,-5.187633,4.197327,-0.361070,5.185769,-4.523455,-0.072118,0.485145,-0.037023,-33.408239,188.495821,1520.534594,90.538703,0
0.032292,-88.876811,197.056371,-71.228085,-1.093144,2.717463,-5.832670,2.542625,-2.558293,5.807492,-2.851812,-0.028364,0.469643,-0.029590,-100.946928,188.495712,1521.290539,89.691362,0
0.033333,-145.432937,170.042848,-7.553325,0.089083,4.064159,-5.270863,0.706215,-3.947768,5.203407,-0.917428,-0.024718,0.471503,-0.059323,-149.110041,188.571156,1522.248971,89.613720,0
0.034375,-188.157955,123.039317,56.097131,1.338865,5.249399,-4.159735,-1.462682,-5.055643,4.056967,1.161653,0.044560,0.471916,-0.029590,-179.856526,188.495653,1522.925487,89.570965,0
0.035417,-190.011143,48.564208,112.808983,2.431017,5.385170,-2.270401,-3.244967,-5.222380,2.103610,2.951339,0.102898,0.474604,-0.011006,-174.947896,188.571189,1523.985346,88.267755,0
0.036458,-164.880109,-16.315227,167.637326,3.500651,5.040239,-0.222928,-4.737292,-4.870380,0.075293,4.303123,0.135714,0.478531,0.000144,-153.725954,188.495687,1524.737778,87.559002,0
0.037500,-108.775980,-74.911083,185.208643,3.860949,3.550433,2.045105,-5.294014,-3.343810,-2.244042,4.836221,0.139360,0.477980,-0.018440,-101.273420,188.571161,1524.921493,86.297658,0
0.038542,-32.038187,-130.711626,191.636877,3.984801,1.756061,4.038478,-5.286282,-1.613450,-4.131259,4.782911,0.124775,0.474121,-0.033307,-35.468512,188.495642,1524.920224,85.920462,0
0.039583,36.122963,-166.275516,148.887296,3.162872,-0.254810,5.095506,-4.242427,0.439267,-5.215967,3.648174,0.110191,0.474672,-0.044457,33.826476,188.571002,1524.940566,84.902969,0
0.040625,88.645016,-197.153148,71.323176,1.687904,-2.485850,5.807128,-2.564528,2.669838,-5.850918,2.018418,0.106545,0.464475,-0.055607,101.466490,188.495725,1525.586711,84.789400,0
0.041667,144.997743,-170.339290,7.210956,0.471899,-3.828877,5.228675,-0.685591,4.040787,-5.163054,0.118305,0.040913,0.464820,-0.033307,149.370661,188.571073,1525.791522,84.274951,0
0.042708,187.948759,-122.513609,-56.269377,-0.732846,-4.992100,4.130032,1.405983,5.144956,-4.065118,-1.941738,0.059144,0.466749,-0.040740,179.970788,188.495673,1526.508498,84.800527,0
0.043750,190.265244,-47.310309,-111.984792,-1.802480,-5.102184,2.265666,3.207598,5.311693,-2.142627,-3.712384,-0.021072,0.453934,-0.003573,174.949575,188.571060,1526.270614,85.142029,0
0.044792,164.343215,17.216777,-167.116926,-2.917150,-4.731567,0.222355,4.657396,4.937461,-0.127538,-5.079400,-0.032010,0.460755,-0.037023,153.795183,188.495667,1525.965786,85.840415,0
0.045833,108.453785,74.884776,-184.724698,-3.243670,-3.355515,-2.033193,5.206386,3.462765,2.152113,-5.661999,-0.064826,0.487350,-0.025873,102.051923,188.646446,1526.152420,85.455564,0
0.046875,31.896791,130.297734,-191.359511,-3.378782,-1.539126,-4.039051,5.275976,1.706469,4.109879,-5.589650,-0.050241,0.467507,-0.037023,36.663574,188.495774,1525.805296,84.855701,0
0.047917,-35.778462,165.708939,-149.314727,-2.579371,0.398356,-5.162663,4.177996,-0.305491,5.198997,-4.492992,-0.057533,0.475430,-0.037023,-32.383731,188.571082,1525.666240,84.597161,0
0.048958,-88.289215,196.786236,-72.637679,-1.126922,2.717463,-5.782731,2.561955,-2.536062,5.767808,-2.817541,-0.002841,0.471227,-0.007290,-100.451562,188.495723,1524.924523,83.843079,0
0.050000,-144.935741,170.583118,-8.622672,0.066564,4.049482,-5.258379,0.686884,-3.899600,5.154903,-0.898389,-0.006487,0.474397,-0.033307,-148.569641,188.646511,1524.031865,83.169494,0
0.051042,-187.988456,123.297708,55.501699,1.305087,5.212704,-4.163896,-1.454950,-5.033411,4.026101,1.154038,0.051852,0.470056,-0.055607,-179.698909,188.495629,1523.468230,82.776505,0
0.052083,-190.440540,48.622933,111.934063,2.431017,5.414525,-2.295370,-3.252699,-5.181622,2.143294,2.955147,0.113837,0.470056,-0.014723,-174.508821,188.571071,1523.139865,82.840894,0
0.053125,-164.428112,-16.385697,167.552264,3.489392,5.010883,-0.256220,-4.679300,-4.859264,0.145844,4.325970,0.110191,0.474810,-0.029590,-153.343171,188.495631,1523.059103,83.540086,0
0.054167,-108.877679,-74.605712,184.844093,3.804652,3.579789,1.991005,-5.243754,-3.351220,-2.138217,4.828605,0.132068,0.469643,0.003860,-101.419778,188.646449,1522.347035,84.572396,0
0.055208,-31.088993,-130.359275,191.685484,3.951023,1.840459,3.996863,-5.274683,-1.587513,-4.095983,4.779103,0.164883,0.435055,-0.037023,-35.367187,188.495727,1521.761510,84.738497,0
0.056250,36.608860,-165.664776,149.446273,3.129094,-0.174082,5.120476,-4.234695,0.398510,-5.163054,3.663405,0.113837,0.466473,-0.066757,33.342368,188.571136,1521.199818,85.484499,0
0.057292,88.520716,-197.200128,71.712029,1.699163,-2.507866,5.782159,-2.587725,2.592027,-5.820052,2.033649,0.095606,0.466680,-0.025873,101.128740,188.495749,1520.502066,86.246538,0
0.058333,144.568346,-170.867815,8.037270,0.483158,-3.788512,5.245321,-0.770646,3.962976,-5.215967,0.167807,0.048206,0.471641,-0.018440,148.909070,188.646502,1520.442144,87.186826,0
0.059375,187.993959,-122.983409,-55.430912,-0.744105,-4.929719,4.105062,1.336393,5.111609,-4.056299,-1.896044,0.022683,0.472950,-0.055607,180.173437,188.495682,1519.879929,87.331058,0
0.060417,190.525142,-48.778435,-111.814668,-1.824998,-5.135209,2.323928,3.176669,5.315399,-2.182311,-3.666690,-0.050241,0.472537,-0.029590,175.411166,188.571060,1519.975695,87.645886,0
0.061458,164.591814,15.443280,-167.396415,-2.883372,-4.764592,0.276455,4.622601,4.941167,-0.158404,-5.098439,-0.050241,0.478324,-0.044457,154.594524,188.495687,1520.349821,87.296322,0
0.062500,110.001875,74.062625,-184.724698,-3.243670,-3.348176,-1.987417,5.194787,3.418302,2.134476,-5.608690,-0.072118,0.478117,-0.003573,102.704906,188.646458,1519.557870,86.440964,0
0.063542,33.026783,130.168539,-191.371663,-3.378782,-1.564812,-4.030727,5.229583,1.699058,4.105470,-5.623921,-0.050241,0.478255,-0.048173,36.764898,188.495631,1519.971624,86.122510,0
0.064583,-34.976167,165.661959,-149.436244,-2.601890,0.435051,-5.150179,4.201193,-0.298081,5.141675,-4.496800,-0.050241,0.472881,-0.033307,-32.394990,188.571187,1519.364549,86.155388,0
0.065625,-88.006717,196.704021,-72.346039,-1.104403,2.783513,-5.828508,2.554223,-2.580525,5.820720,-2.832773,-0.017425,0.468058,0.000144,-100.474079,188.495436,1520.210624,85.907526,0
0.066667,-144.709742,170.818018,-7.990785,0.077824,4.097185,-5.258379,0.655955,-3.936653,5.159313,-0.928852,0.000805,0.467300,-0.003573,-148.535867,188.646485,1520.637249,86.160800,0
0.067708,-187.513859,122.957102,55.829795,1.305087,5.249399,-4.113958,-1.443352,-5.055643,4.012873,1.127383,0.055498,0.462339,-0.033307,-179.496259,188.495645,1520.488162,86.426219,0
0.068750,-190.508340,47.906488,111.654574,2.431017,5.421864,-2.291208,-3.244967,-5.189033,2.116838,2.936108,0.095606,0.472743,-0.051890,-174.418755,188.571078,1520.193955,86.484709,0
0.069792,-164.507211,-16.773283,167.066197,3.511910,4.996206,-0.206282,-4.702496,-4.888906,0.114978,4.306931,0.095606,0.474397,-0.022156,-153.478271,188.495689,1520.192164,86.465377,0
0.070833,-108.674280,-74.546987,184.989913,3.827171,3.609145,1.999329,-5.201227,-3.406799,-2.142627,4.817181,0.146652,0.459032,-0.037023,-101.948919,188.646458,1520.457296,86.997598,0
0.071875,-31.574890,-129.924710,191.685484,3.951023,1.778078,4.034316,-5.239888,-1.606040,-4.109212,4.771487,0.135714,0.479771,-0.029590,-36.346662,188.495740,1520.476906,86.816639,0
0.072917,35.772665,-165.629541,149.883733,3.174131,-0.203437,5.095506,-4.223097,0.368867,-5.127779,3.693868,0.135714,0.476877,-0.007290,32.509252,188.571152,1520.389670,87.150479,0
0.073958,88.023520,-196.836032,73.328202,1.732941,-2.478511,5.765513,-2.576127,2.662428,-5.806824,2.060304,0.088314,0.474397,-0.025873,100.363174,188.495595,1520.865061,86.097540,0
0.075000,144.545746,-171.102715,9.361802,0.494418,-3.806860,5.253644,-0.770646,3.962976,-5.176282,0.152575,0.051852,0.470607,-0.025873,148.650129,188.646471,1520.556898,85.246981,0
0.076042,187.734061,-124.005225,-54.750418,-0.699068,-4.955405,4.113385,1.359590,5.104198,-4.056299,-1.896044,0.011744,0.471365,-0.033307,180.072113,188.495734,1520.582732,84.768576,0
0.077083,190.581642,-49.882466,-111.352905,-1.791220,-5.120531,2.278151,3.203732,5.307988,-2.186720,-3.750463,-0.013779,0.473157,-0.037023,175.354875,188.571082,1521.225038,83.569965,0
0.078125,164.772613,14.961735,-167.153381,-2.917150,-4.764592,0.239002,4.603270,4.937461,-0.167223,-5.090823,-0.075764,0.478875,-0.055607,154.335582,188.495683,1521.086226,83.452507,0
0.079167,110.058374,74.050880,-184.615333,-3.277448,-3.289464,-1.983255,5.148394,3.444239,2.108019,-5.612497,-0.083057,0.472261,-0.044457,102.536031,188.646525,1521.151234,83.947847,0
0.080208,32.235788,129.804443,-191.444573,-3.367522,-1.520778,-3.976628,5.217984,1.702763,4.083423,-5.566803,-0.075764,0.456896,-0.014723,36.359599,188.495557,1520.183356,84.105718,0
0.081250,-35.710663,165.109944,-149.934462,-2.590631,0.446059,-5.108564,4.162532,-0.290670,5.088763,-4.470145,-0.072118,0.472674,-0.051890,-32.259890,188.570930,1519.322963,84.253295,0
0.082292,-87.893718,196.610061,-72.078702,-1.093144,2.735810,-5.778570,2.534892,-2.521241,5.728123,-2.828965,-0.061180,0.465440,-0.033307,-100.305204,188.495671,1517.782024,84.788838,0
0.083333,-144.076946,171.158624,-7.662690,0.100342,4.034804,-5.204279,0.690750,-3.873663,5.137266,-0.966930,0.022683,0.466611,-0.063040,-148.175600,188.646498,1516.930606,85.481767,0
0.084375,-187.491260,123.015827,55.404486,1.271309,5.201696,-4.088989,-1.439486,-5.007475,4.004054,1.157845,0.051852,0.466198,-0.022156,-179.541293,188.495618,1516.389525,85.042716,0
0.085417,-190.836037,48.752129,111.192811,2.374721,5.363153,-2.262078,-3.233368,-5.218675,2.138885,2.867566,0.099252,0.469160,-0.033307,-174.722730,188.495718,1516.423506,85.549948,0
0.086458,-164.394212,-15.187706,167.406444,3.455614,4.948502,-0.306159,-4.632906,-4.818506,0.176709,4.280276,0.099252,0.471985,0.007577,-154.232579,188.495591,1515.472475,85.475566,0
0.087500,-110.267570,-73.760072,184.661818,3.849689,3.601806,1.961875,-5.216691,-3.373452,-2.076486,4.756256,0.175822,0.476050,-0.022156,-103.007202,188.721900,1514.334623,85.229593,0
0.088542,-33.258579,-129.748535,191.612574,3.973542,1.792756,3.996863,-5.263085,-1.609745,-4.060708,4.767679,0.146652,0.472399,-0.007290,-37.044678,188.503501,1513.995063,85.059785,0
0.089583,34.631373,-165.371150,150.916626,3.174131,-0.177751,5.083022,-4.215364,0.346636,-5.088095,3.697676,0.081021,0.473777,-0.011006,31.845011,188.495606,1513.709529,84.867480,0
0.090625,87.831421,-196.554152,73.814269,1.732941,-2.401452,5.769674,-2.591591,2.606849,-5.798006,2.060304,0.081021,0.467507,-0.040740,100.329399,188.495645,1513.214054,85.218408,0
0.091667,144.105049,-171.689966,9.240285,0.516936,-3.806860,5.207868,-0.751315,3.959271,-5.136598,0.171614,0.008098,0.470332,-0.018440,148.413704,188.721849,1512.863373,85.137039,0
0.092708,187.553262,-123.629384,-54.811176,-0.732846,-4.911371,4.134193,1.382787,5.104198,-4.043071,-1.922699,-0.013779,0.467093,-0.040740,179.903238,188.495667,1512.711698,84.818615,0
0.093750,190.999739,-48.919375,-110.927596,-1.802480,-5.105853,2.257343,3.126410,5.285756,-2.155855,-3.678114,-0.035656,0.468678,-0.048173,174.927058,188.495622,1511.703472,85.285310,0
0.094792,164.354515,15.619455,-166.898196,-2.872113,-4.676525,0.239002,4.587806,4.907819,-0.092263,-5.064168,-0.039302,0.454002,0.018727,153.986574,188.495721,1510.975768,84.641555,0
0.095833,109.753276,73.945175,-184.761153,-3.254929,-3.300473,-1.995740,5.187055,3.447944,2.077154,-5.604882,-0.061180,0.467300,-0.022156,102.783714,188.646581,1510.726211,85.050784,0
0.096875,32.009790,129.264173,-191.529635,-3.401300,-1.506100,-3.997435,5.245047,1.728700,4.056967,-5.620113,-0.072118,0.437949,-0.033307,37.046357,188.495702,1511.037323,85.668431,0
0.097917,-35.507264,165.168669,-150.371922,-2.568112,0.442390,-5.129371,4.193461,-0.261028,5.124038,-4.508223,-0.042949,0.464131,-0.029590,-31.505582,188.495707,1511.832155,86.016945,0
0.098958,-87.712919,196.339925,-73.172352,-1.149440,2.684438,-5.836831,2.554223,-2.524946,5.772217,-2.859428,-0.006487,0.469849,-0.018440,-99.663479,188.495363,1512.574351,85.954129,0
0.100000,-143.963947,171.593189,-9.303166,0.055305,4.075168,-5.241733,0.710081,-3.873663,5.181360,-0.959315,0.029975,0.472812,-0.037023,-147.860367,188.646355,1513.193193,85.462563,0
0.101042,-187.253961,124.108113,54.505262,1.282569,5.212704,-4.134766,-1.381494,-5.014885,4.012873,1.100728,0.048206,0.470263,-0.048173,-179.518776,188.495662,1513.257583,85.578139,0
0.102083,-190.734338,50.149785,111.168507,2.431017,5.425534,-2.266239,-3.237234,-5.196443,2.182979,2.913260,0.095606,0.471572,-0.003573,-175.026704,188.495687,1513.668995,85.145283,0
0.103125,-164.993108,-14.248106,167.187714,3.455614,5.010883,-0.256220,-4.687032,-4.844443,0.132615,4.314546,0.143006,0.477084,-0.037023,-154.356420,188.495685,1514.430552,84.157666,0
0.104167,-111.058565,-73.337251,184.880548,3.827171,3.605475,1.966036,-5.243754,-3.380863,-2.138217,4.782911,0.113837,0.478600,-0.029590,-103.086010,188.646453,1515.287392,83.231576,0
0.105208,-33.473277,-129.266989,191.819152,3.928504,1.785417,4.001024,-5.274683,-1.613450,-4.122440,4.779103,0.150299,0.470952,-0.022156,-37.010903,188.495680,1515.920962,82.631882,0
0.106250,34.947771,-165.253700,150.649289,3.185390,-0.196099,5.116314,-4.207632,0.391099,-5.176282,3.663405,0.113837,0.476257,-0.022156,32.081435,188.495613,1516.550111,81.663116,0
0.107292,87.582823,-196.695092,73.291747,1.721681,-2.452824,5.798805,-2.591591,2.647606,-5.784777,2.026033,0.073729,0.468265,-0.033307,100.138008,188.495680,1516.394073,80.967855,0
0.108333,143.686952,-171.748691,8.863583,0.528196,-3.832546,5.261968,-0.774512,3.966681,-5.145417,0.125920,0.033621,0.464889,-0.007290,148.188537,188.646484,1516.411494,80.450242,0
0.109375,187.214264,-123.594149,-54.786873,-0.732846,-4.944396,4.096739,1.398251,5.119019,-4.078346,-1.915083,0.011744,0.466956,-0.014723,179.711846,188.495772,1516.706158,80.762061,0
0.110417,190.954540,-48.919375,-110.441529,-1.791220,-5.153556,2.253182,3.153473,5.300577,-2.160264,-3.689537,0.000805,0.463717,-0.022156,175.140966,188.495615,1516.864937,80.610890,0
0.111458,164.467515,14.985225,-166.752376,-2.905891,-4.713220,0.230679,4.661262,4.863356,-0.145176,-5.071784,-0.042949,0.472261,-0.033307,154.650816,188.495636,1516.460673,80.638565,0
