1-Time,2-VGERA,3-VGERB,4-VGERC,5-VN,6-IGERAN,7-IGERBN,8-IGERCN,9-IGERAT,10-IGERBT,11-IGERCT,12-IN,13-IFD,14-IFAULT,15-VFAULT,16-Speed (rad/s),17-Active Power,18-Reactive Power,19-FAULT 
0.000000,169.663574,-135.931440,8.457008,3.109008,-5.768187,0.625543,5.177472,6.304041,-0.666042,-4.946861,-0.015197,0.183716,-0.054364,155.944615,188.722061,987.233110,-1286.613541,0
0.001042,195.104803,-80.745870,-47.888637,2.045868,-4.156360,-1.969911,5.934940,4.782280,1.864564,-5.697567,0.035945,0.188615,-0.020755,169.199935,188.571227,986.393454,-1285.719401,0
0.002083,170.945277,-34.065257,-134.875379,0.405918,-2.537434,-3.918486,6.035687,3.051002,3.912550,-5.811418,0.032292,0.183781,-0.039427,168.589195,188.495783,985.903389,-1285.534982,0
0.003125,122.705622,9.619292,-188.783523,-0.634602,-0.169398,-4.942381,4.640155,0.823498,4.991100,-4.576845,0.024986,0.198544,-0.050629,138.911755,188.722012,985.694415,-1286.020828,0
0.004167,68.601895,75.146115,-198.164205,-0.860802,2.358400,-6.053584,3.188652,-1.782609,6.111617,-3.135917,-0.018850,0.190117,-0.020755,83.515377,188.722319,984.882522,-1286.087703,0
0.005208,24.887898,149.528241,-164.002273,-0.204822,4.311053,-5.648789,0.938636,-3.767514,5.847226,-1.011883,-0.077298,0.186786,-0.039427,20.880598,188.571165,983.888696,-1285.635324,0
0.006250,-20.731639,202.164740,-97.623485,1.050588,5.738265,-4.355030,-1.650935,-5.112839,4.537857,1.503515,-0.154011,0.180645,-0.035692,-46.787131,188.495825,982.461907,-1285.629381,0
0.007292,-95.263210,184.442054,-51.458712,1.876218,6.352463,-2.553293,-3.897220,-5.836962,2.880164,3.698706,-0.175929,0.173525,-0.024490,-102.511499,188.722215,981.581524,-1285.404296,0
0.008333,-170.600098,135.925143,-7.669886,2.747088,5.912229,-0.449944,-5.326334,-5.406899,0.685293,5.139634,-0.205153,0.180711,-0.005818,-151.585588,188.721860,981.350227,-1285.649496,0
0.009375,-195.145269,80.920787,48.294129,3.821538,4.332355,2.197102,-6.035295,-3.914544,-1.870492,5.858319,-0.201500,0.188288,-0.039427,-164.230168,188.571127,980.267712,-1285.668723,0
0.010417,-171.246621,33.926071,135.527084,5.438868,2.692126,4.109959,-6.169624,-2.179590,-3.859725,6.032654,-0.248989,0.196715,-0.024490,-163.834318,188.571152,980.236991,-1285.769302,0
0.011458,-122.451184,-9.420213,188.721213,6.468078,0.316990,5.121948,-4.721853,0.022184,-4.963455,4.734040,-0.208806,0.195670,-0.005818,-133.851509,188.721882,979.429328,-1285.913890,0
0.012500,-68.596991,-75.236978,198.335796,6.694278,-2.253411,6.264900,-3.307663,2.676076,-6.092365,3.289554,-0.172276,0.182278,-0.024490,-78.500370,188.646482,979.177676,-1286.675032,0
0.013542,-25.314009,-149.353324,163.804546,6.015678,-4.092455,5.820419,-0.997945,4.561735,-5.844761,1.172635,-0.128440,0.196585,-0.035692,-15.978691,188.571120,978.791215,-1286.481662,0
0.014583,20.838625,-202.316007,97.844318,4.771578,-5.562271,4.554441,1.580431,6.006305,-4.543786,-1.310742,-0.069992,0.176269,-0.024490,51.824757,188.495682,979.685014,-1287.268378,0
0.015625,95.143346,-183.844305,51.765720,3.900708,-6.197770,2.760641,3.808059,6.785564,-2.768585,-3.484586,0.010374,0.175877,-0.013287,107.311616,188.721994,979.245441,-1287.424457,0
0.016667,170.434864,-135.593174,7.964583,3.097698,-5.722033,0.593794,5.199860,6.300365,-0.590501,-4.971766,0.014027,0.180841,-0.009553,156.397015,188.646616,978.933749,-1288.016685,0
0.017708,194.560363,-80.431767,-48.516477,2.011938,-4.124408,-1.958006,5.908820,4.760226,1.952695,-5.694009,0.039598,0.187308,-0.028224,168.849325,188.571065,978.222440,-1288.457229,0
0.018750,170.979304,-33.267917,-135.577084,0.394608,-2.516132,-3.902612,6.039418,3.036299,3.937730,-5.804302,0.039598,0.190967,-0.002084,168.566575,188.571143,978.396115,-1288.559027,0
0.019792,121.934332,10.114609,-188.795834,-0.611982,-0.144546,-4.906663,4.572990,0.812470,4.957527,-4.527035,-0.000585,0.196127,-0.035692,138.629005,188.665869,977.861443,-1287.685251,0
0.020833,68.023427,75.834727,-198.188826,-0.860802,2.386802,-6.093270,3.166263,-1.812015,6.090634,-3.114570,-0.037115,0.188942,-0.035692,83.096907,188.587676,977.672429,-1287.551230,0
0.021875,24.853870,149.697374,-163.522160,-0.170892,4.286201,-5.652757,0.893859,-3.738108,5.847226,-0.983420,-0.073645,0.188158,-0.039427,20.620468,188.576216,977.459462,-1287.197311,0
0.022917,-21.208024,202.503005,-97.328031,1.061898,5.716963,-4.335187,-1.703174,-5.131218,4.542054,1.542651,-0.143052,0.179469,-0.061832,-47.262151,188.495707,977.545266,-1287.624517,0
0.023958,-95.750937,184.188355,-51.335606,1.932768,6.359564,-2.497733,-3.893488,-5.851665,2.783640,3.680917,-0.175929,0.174766,-0.013287,-102.771629,188.722023,976.828667,-1287.619474,0
0.025000,-170.792921,135.586878,-7.522159,2.747088,5.894477,-0.414226,-5.262901,-5.373817,0.655917,5.136076,-0.248989,0.183128,-0.061832,-151.676068,188.646489,976.340255,-1287.445040,0
0.026042,-194.918419,80.799978,48.811174,3.855468,4.314603,2.157416,-6.061414,-3.896166,-1.883082,5.858319,-0.190541,0.189464,-0.046895,-164.150998,188.571277,976.198040,-1287.401055,0
0.027083,-170.940373,33.394511,135.797917,5.506728,2.674375,4.125833,-6.169624,-2.161212,-3.905888,6.007749,-0.227071,0.196977,-0.024490,-163.562878,188.571232,975.859945,-1287.525269,0
0.028125,-121.895401,-10.012177,188.881251,6.502008,0.348943,5.090199,-4.684539,0.029536,-4.913095,4.684230,-0.197847,0.201353,-0.039427,-133.512209,188.721889,975.404406,-1286.542823,0
0.029171,-67.610194,-76.698767,198.126516,6.660348,-2.221459,6.256963,-3.251693,2.665048,-6.054595,3.278880,-0.143052,0.182540,0.020321,-77.346750,188.646522,975.753005,-1285.613627,0
0.030223,-24.077677,-150.899680,161.884091,5.936508,-4.174112,5.788670,-0.886004,4.605844,-5.744040,1.076573,-0.102869,0.201615,-0.031958,-13.829791,188.571096,974.545724,-1285.023176,0
0.031255,21.927505,-203.089185,96.859470,4.782888,-5.572921,4.483006,1.602819,6.021008,-4.510212,-1.371225,-0.102869,0.183258,-0.039427,53.091477,188.571201,974.446009,-1285.254815,0
0.032292,95.801211,-183.868467,51.310227,3.945948,-6.151617,2.724923,3.748357,6.756158,-2.735011,-3.488144,-0.029809,0.175681,-0.013287,107.831876,188.723817,974.222634,-1284.964980,0
0.033333,171.001989,-135.085776,7.718371,3.086388,-5.750435,0.601731,5.181203,6.267283,-0.582108,-4.936188,-0.000585,0.183324,-0.031958,156.634525,188.571187,974.078404,-1284.272884,0
0.034375,194.526335,-80.081421,-49.045833,1.989318,-4.163461,-1.961974,5.934940,4.734496,1.935908,-5.697567,0.010374,0.191424,-0.054364,168.860635,188.571118,974.144549,-1283.957743,0
0.035417,170.684399,-32.881329,-136.438826,0.315438,-2.516132,-3.886737,6.061807,3.047326,3.946124,-5.822092,0.032292,0.194625,-0.028224,168.430855,188.646152,974.745155,-1284.014683,0
0.036458,121.491975,10.887787,-188.943561,-0.668532,-0.190700,-4.938412,4.625229,0.768361,4.940740,-4.559056,0.024986,0.214288,-0.039427,138.131365,188.721732,974.964300,-1283.983357,0
0.037500,67.547042,76.813280,-198.127273,-0.826872,2.411654,-6.097238,3.199846,-1.812015,6.132601,-3.128802,-0.033462,0.198348,-0.013287,82.520097,188.570948,975.793368,-1284.145747,0
0.038542,24.377485,150.216853,-163.029735,-0.182202,4.296852,-5.644820,0.882665,-3.752811,5.876602,-0.969189,-0.091910,0.190248,-0.035692,19.896628,188.571002,976.177318,-1284.302778,0
0.039583,-22.013342,203.046646,-96.983334,1.061898,5.766667,-4.358999,-1.650935,-5.145921,4.546251,1.528420,-0.121134,0.182148,-0.028224,-47.985991,188.646364,976.844714,-1284.225881,0
0.040625,-96.590282,183.548067,-50.793940,1.932768,6.359564,-2.529482,-3.908414,-5.899449,2.800427,3.702264,-0.190541,0.176138,-0.039427,-103.337129,188.721851,977.600364,-1284.447543,0
0.041667,-172.233418,135.103642,-6.968182,2.758398,5.944181,-0.434069,-5.277827,-5.436305,0.655917,5.132519,-0.190541,0.185153,-0.024490,-152.332048,188.570942,978.879212,-1284.651743,0
0.042708,-194.442034,80.208014,49.475947,3.855468,4.353657,2.185196,-6.065146,-3.940275,-1.937640,5.929476,-0.208806,0.191293,-0.028224,-163.947418,188.571017,979.527602,-1285.567173,0
0.043750,-170.997086,32.911275,137.053599,5.506728,2.699227,4.094085,-6.214401,-2.179590,-3.897495,6.043327,-0.238030,0.175550,-0.054364,-163.687288,188.646449,980.618092,-1285.686208,0
0.044792,-121.158139,-10.664546,188.918182,6.502008,0.359593,5.110042,-4.710658,0.044239,-4.967652,4.719808,-0.216112,0.184957,-0.039427,-132.901469,188.721739,981.194607,-1286.133027,0
0.045833,-67.462741,-77.000790,198.225001,6.660348,-2.200157,6.300617,-3.344977,2.665048,-6.151119,3.310901,-0.135746,0.183716,-0.054364,-77.493780,188.571065,982.291522,-1286.989718,0
0.046875,-24.780912,-150.078178,162.671970,6.049608,-4.124408,5.844230,-1.009139,4.613196,-5.790203,1.140615,-0.084604,0.191293,-0.017021,-15.039961,188.495598,982.932127,-1287.455356,0
0.047917,22.199725,-203.354965,97.007197,4.794198,-5.619075,4.617938,1.569237,6.050414,-4.535392,-1.356994,-0.044421,0.185218,-0.031958,53.091477,188.646388,983.562604,-1287.780812,0
0.048958,96.266254,-182.853671,50.940909,3.912018,-6.229723,2.732861,3.834179,6.818646,-2.755995,-3.548627,-0.037115,0.174962,-0.061832,108.205106,188.721853,984.063993,-1288.469811,0
0.050000,172.272349,-134.687107,7.422917,3.097698,-5.793039,0.629511,5.278219,6.326095,-0.607288,-4.964650,0.003068,0.184565,-0.031958,157.041685,188.570993,985.419680,-1288.923636,0
0.051042,193.766388,-79.574023,-49.784470,1.955388,-4.145710,-1.977848,5.983448,4.789632,1.952695,-5.708240,0.017680,0.191751,-0.046895,168.611815,188.495582,986.079223,-1288.833423,0
0.052083,170.763797,-32.265202,-137.423675,0.349368,-2.523232,-3.894674,6.080463,3.080408,3.933534,-5.857670,-0.004238,0.186198,-0.043161,168.408235,188.646301,987.275279,-1288.808346,0
0.053125,120.732027,11.153567,-188.980493,-0.645912,-0.158747,-4.906663,4.610304,0.783064,4.936543,-4.523477,0.006721,0.196323,-0.031958,137.656345,188.721869,987.102053,-1288.189571,0
0.054167,66.900520,77.513972,-198.311932,-0.838182,2.372601,-6.121050,3.196114,-1.789961,6.161978,-3.146591,-0.026156,0.192273,-0.024490,82.124247,188.570988,987.984882,-1288.043109,0
0.055208,24.309430,150.555118,-162.426516,-0.170892,4.325254,-5.692443,0.878934,-3.749136,5.838832,-0.990536,-0.062686,0.193841,-0.028224,19.591258,188.495617,987.967847,-1287.457871,0
0.056250,-22.410329,203.626529,-96.626326,1.073208,5.752466,-4.410590,-1.677055,-5.134893,4.550448,1.539093,-0.154011,0.185283,0.001650,-48.449700,188.646389,988.236592,-1287.385087,0
0.057292,-97.009955,183.173559,-50.769318,1.921458,6.359564,-2.525513,-3.893488,-5.884746,2.783640,3.645339,-0.179582,0.178424,-0.017021,-103.574639,188.721666,988.278372,-1286.545806,0
0.058333,-173.118133,134.608325,-6.869697,2.769708,5.912229,-0.457881,-5.296484,-5.421602,0.685293,5.153866,-0.201500,0.186851,-0.050629,-152.637418,188.570975,988.758824,-1286.446645,0
0.059375,-194.147129,79.869749,50.214583,3.855468,4.335905,2.177259,-6.050220,-3.921896,-1.929246,5.886782,-0.205153,0.191947,-0.013287,-163.913488,188.495584,988.632190,-1285.663422,0
0.060417,-170.804263,32.669657,137.792235,5.495418,2.727629,4.121865,-6.206938,-2.183266,-3.905888,6.043327,-0.234377,0.178947,-0.031958,-163.630738,188.721831,988.946142,-1285.669909,0
0.061458,-120.636383,-11.075297,189.115152,6.468078,0.341842,5.133854,-4.736778,0.029536,-4.883718,4.737598,-0.172276,0.203836,-0.024490,-132.573479,188.721791,989.282210,-1284.489926,0
0.062500,-66.623396,-77.810211,198.274243,6.660348,-2.178855,6.304586,-3.333783,2.654021,-6.113349,3.314459,-0.146705,0.186916,-0.028224,-76.803870,188.570948,989.577302,-1283.711621,0
0.063542,-24.440637,-150.658062,162.388826,5.981748,-4.142159,5.848199,-0.994214,4.620547,-5.823777,1.186867,-0.124787,0.190379,-0.046895,-14.417911,188.495539,990.632802,-1283.644662,0
0.064583,22.744165,-203.838201,96.650190,4.771578,-5.622625,4.610001,1.572968,6.076144,-4.560573,-1.328531,-0.051727,0.186329,-0.028224,53.645667,188.721762,991.564995,-1283.634126,0
0.065625,97.116941,-182.672457,50.867046,3.900708,-6.208421,2.713018,3.774477,6.770861,-2.764388,-3.509491,-0.007891,0.180776,-0.058098,108.612266,188.646437,991.797796,-1282.691487,0
0.066667,173.463312,-134.058900,7.385985,3.120318,-5.789488,0.657291,5.225980,6.315068,-0.657648,-4.957535,-0.007891,0.188811,-0.031958,157.528015,188.570970,992.582093,-1282.165098,0
0.067708,193.607593,-79.272000,-50.363068,1.978008,-4.209615,-1.993723,6.005836,4.804335,1.919121,-5.733145,0.035945,0.193318,-0.028224,168.623125,188.495758,993.275152,-1281.948080,0
0.068750,170.559632,-32.373931,-138.457766,0.315438,-2.558735,-3.910549,6.117777,3.065705,3.950320,-5.889691,0.028639,0.192338,-0.024490,168.510025,188.721887,993.665740,-1282.469119,0
0.069792,120.221615,11.818016,-189.251326,-0.623292,-0.151647,-4.934443,4.640155,0.801443,4.974314,-4.576845,-0.004238,0.201484,-0.013287,137.192635,188.646417,994.765965,-1282.708955,0
0.070833,66.163257,78.794548,-198.385796,-0.804252,2.401003,-6.164704,3.270742,-1.786285,6.229125,-3.175054,-0.062686,0.187700,-0.050629,81.524817,188.570970,996.108288,-1282.995867,0
0.071875,24.014525,151.243729,-161.749432,-0.159582,4.350106,-5.728160,0.908785,-3.789569,5.897586,-1.015441,-0.051727,0.190575,-0.039427,18.822178,188.495636,997.137720,-1283.430132,0
0.072917,-23.306387,204.472192,-96.318561,1.027968,5.780868,-4.422496,-1.673323,-5.230463,4.663758,1.524862,-0.124787,0.187374,-0.054364,-49.173540,188.721880,999.359212,-1284.527263,0
0.073958,-97.826615,182.195005,-50.387690,1.944078,6.416368,-2.565199,-3.949459,-5.895774,2.808820,3.741401,-0.164970,0.180188,-0.050629,-104.196689,188.570946,999.565460,-1285.144594,0
0.075000,-174.910248,134.016360,-6.586553,2.781018,6.000986,-0.469787,-5.341260,-5.506144,0.710474,5.114729,-0.208806,0.189268,-0.024490,-153.327328,188.570899,1001.318497,-1284.962087,0
0.076042,-193.670744,79.314027,50.903977,3.878088,4.403360,2.193133,-6.158430,-3.973356,-1.933443,5.993518,-0.227071,0.193318,-0.054364,-163.823008,188.495631,1002.549485,-1285.796405,0
0.077083,-170.849633,32.428038,139.121781,5.518038,2.738280,4.157582,-6.281565,-2.256781,-3.922675,6.182083,-0.256295,0.174505,-0.061832,-163.845628,188.721779,1005.006733,-1286.880103,0
0.078125,-119.751668,-11.679342,189.496781,6.502008,0.338292,5.177508,-4.781554,0.055266,-4.984438,4.769618,-0.175929,0.191620,-0.035692,-131.804399,188.570942,1005.638587,-1287.914245,0
0.079167,-65.954189,-78.982058,198.458902,6.649038,-2.185956,6.376020,-3.371097,2.668724,-6.193086,3.424752,-0.164970,0.175093,-0.054364,-76.215750,188.570997,1007.868227,-1288.513250,0
0.080208,-24.372582,-151.201702,161.231629,5.947818,-4.152810,5.911696,-1.027796,4.635250,-5.895121,1.193982,-0.128440,0.192273,-0.039427,-13.829791,188.495600,1008.722892,-1288.698418,0
0.081250,23.583510,-204.792593,96.096212,4.760268,-5.690081,4.645718,1.558043,6.065117,-4.589949,-1.342762,-0.073645,0.187766,-0.039427,54.256407,188.721909,1009.523763,-1288.657664,0
0.082292,97.854204,-181.416043,50.608523,3.878088,-6.222622,2.744766,3.822985,6.840701,-2.776978,-3.502375,-0.015197,0.182213,-0.039427,109.053356,188.646333,1010.290421,-1288.645374,0
0.083333,174.824412,-133.684392,7.028977,3.075078,-5.800139,0.641417,5.237174,6.370204,-0.687025,-4.982440,0.028639,0.191163,-0.024490,157.969105,188.570915,1011.709578,-1289.013744,0
0.084375,192.790933,-78.752521,-51.077083,1.944078,-4.216715,-1.997691,6.046881,4.826389,1.986268,-5.786513,0.035945,0.194690,-0.028224,168.464785,188.495602,1011.876841,-1289.758944,0
0.085417,170.457549,-32.096070,-139.319508,0.270198,-2.540984,-3.962140,6.177479,3.117166,3.988091,-5.950174,0.046904,0.162877,-0.009553,168.453475,188.721809,1013.212066,-1290.431909,0
0.086458,119.189447,12.180443,-189.497538,-0.691152,-0.169398,-5.001909,4.628960,0.801443,4.982707,-4.548382,0.003068,0.181364,-0.050629,136.468795,188.646404,1013.104669,-1289.999939,0
0.087500,65.573447,79.555645,-198.471970,-0.838182,2.351300,-6.168673,3.270742,-1.797312,6.233321,-3.196401,-0.000585,0.191881,-0.035692,81.027177,188.570971,1013.698579,-1289.917237,0
0.088542,23.946470,151.533671,-160.912311,-0.148272,4.346556,-5.728160,0.905053,-3.804272,5.872406,-0.990536,-0.059033,0.192861,-0.046895,18.482878,188.495604,1013.263858,-1289.742395,0
0.089583,-23.658004,205.076238,-95.826137,1.073208,5.841223,-4.426465,-1.703174,-5.230463,4.609201,1.553325,-0.157664,0.184891,-0.043161,-49.524150,188.721893,1012.794351,-1289.765954,0
0.090625,-98.359713,181.627203,-50.203030,1.944078,6.380865,-2.537419,-3.983041,-5.917828,2.796230,3.755632,-0.194194,0.179731,-0.024490,-104.445509,188.646409,1012.902752,-1289.878797,0
0.091667,-175.704223,133.436477,-6.635795,2.758398,5.947731,-0.453912,-5.326334,-5.462035,0.651720,5.182328,-0.205153,0.189791,-0.054364,-153.542218,188.571075,1012.223071,-1290.671439,0
0.092708,-193.273757,78.987843,51.408712,3.844158,4.357207,2.244725,-6.143505,-3.874111,-1.946033,5.929476,-0.234377,0.191816,-0.009553,-163.653358,188.495647,1010.856963,-1289.755665,0
0.093750,-170.736208,32.126016,139.983523,5.585898,2.670825,4.149645,-6.229326,-2.216348,-3.964642,6.096695,-0.216112,0.175550,-0.031958,-163.721218,188.721838,1009.986067,-1289.630902,0
0.094792,-119.252598,-12.041769,189.644508,6.524628,0.295688,5.173540,-4.680807,0.092023,-5.009619,4.698461,-0.190541,0.180711,-0.035692,-131.318069,188.646418,1009.119684,-1289.660346,0
0.095833,-65.182899,-79.634427,198.409660,6.660348,-2.232110,6.340303,-3.330052,2.749591,-6.163709,3.367827,-0.157664,0.156540,-0.058098,-75.785970,188.570991,1008.206156,-1289.878840,0
0.096875,-23.873512,-151.709100,160.677652,5.936508,-4.195413,5.887885,-0.968094,4.697738,-5.823777,1.137057,-0.099216,0.179404,-0.039427,-13.343461,188.571009,1007.171637,-1290.102566,0
0.097917,23.935128,-205.191262,95.542235,4.771578,-5.661678,4.602064,1.625208,6.105550,-4.556376,-1.389014,-0.073645,0.185218,-0.050629,54.754047,188.721867,1006.866370,-1290.681169,0
0.098958,98.364616,-181.198587,50.337690,3.866778,-6.243924,2.677300,3.860298,6.811295,-2.747601,-3.541512,-0.007891,0.181299,-0.020755,109.403966,188.570917,1006.413512,-1290.748065,0
0.100000,175.765839,-132.911214,6.992045,3.063768,-5.810790,0.601731,5.225980,6.362853,-0.619878,-5.018018,0.024986,0.190117,-0.017021,158.285785,188.570986,1006.069408,-1291.356133,0
0.101042,192.518713,-78.160557,-51.680303,1.898838,-4.156360,-2.057220,6.050612,4.785956,2.007252,-5.736703,0.046904,0.192926,-0.039427,168.351685,188.570904,1005.466308,-1290.668320,0
0.102083,170.060562,-31.709481,-140.304356,0.236268,-2.512582,-3.974046,6.155091,3.102463,4.004877,-5.935943,0.050557,0.169083,-0.043161,168.396925,188.721757,1005.543103,-1290.621409,0
0.103125,118.905884,12.615356,-189.854546,-0.634602,-0.094842,-4.997941,4.617766,0.761010,5.012084,-4.502130,0.021333,0.170389,-0.054364,135.891985,188.571042,1005.013209,-1290.937277,0
0.104167,64.938267,80.497956,-198.262690,-0.849492,2.408104,-6.168673,3.207309,-1.885530,6.266895,-3.153706,-0.011544,0.192077,-0.039427,80.348577,188.570915,1004.670606,-1291.795486,0
0.105208,23.628880,152.282687,-159.989016,-0.159582,4.389159,-5.688474,0.867740,-3.837354,5.889193,-0.937168,-0.073645,0.177052,-0.028224,17.781658,188.570950,1004.539928,-1292.174714,0
0.106250,-24.520034,205.559474,-95.333712,1.095828,5.876726,-4.398685,-1.736757,-5.259869,4.634381,1.613808,-0.135746,0.183781,-0.024490,-50.134890,188.721809,1004.936809,-1292.850775,0
0.107291,-99.142345,180.962753,-49.956818,1.921458,6.455421,-2.477890,-3.979310,-5.925180,2.750066,3.794768,-0.194194,0.180123,-0.024490,-105.022319,188.570928,1004.578683,-1293.124349,0
0.108333,-176.804446,132.977403,-6.204924,2.747088,5.990335,-0.402321,-5.348723,-5.491441,0.622343,5.225023,-0.201500,0.188223,-0.009553,-153.791038,188.495531,1005.142388,-1293.840104,0
0.109375,-192.581864,78.323393,52.233523,3.878088,4.307503,2.312191,-6.206938,-3.929247,-2.042557,5.986402,-0.245336,0.191293,-0.028224,-163.551568,188.646420,1005.609833,-1294.907228,0
