1-Time,2-VGERA,3-VGERB,4-VGERC,5-VN,6-IGERAN,7-IGERBN,8-IGERCN,9-IGERAT,10-IGERBT,11-IGERCT,12-IN,13-IFD,14-IFAULT,15-VFAULT,16-Speed (rad/s),17-Active Power,18-Reactive Power,19-FAULT 
0.000000,-141.846859,179.247265,-20.509849,2.453028,0.483853,-4.696328,3.733432,-0.356418,4.613398,-3.623342,-0.095563,0.559334,-0.031958,13.483858,188.495227,1008.783244,1002.840190,0
0.001042,-168.773956,152.173959,57.884091,3.945948,2.312247,-4.993972,2.158794,-2.260457,5.033067,-2.250013,-0.080951,0.555937,-0.058098,8.541388,188.344531,1008.058141,1003.258164,0
0.002083,-176.951898,76.040102,120.914394,5.144808,4.048333,-4.597114,0.132660,-3.921896,4.693135,-0.314545,-0.135746,0.544179,-0.039427,1.619668,188.495195,1007.850688,1003.610635,0
0.003125,-173.152161,-6.291259,158.289394,5.868648,4.889749,-3.676402,-1.464367,-4.822455,3.795043,1.382548,-0.132093,0.522883,-0.031958,-2.666821,188.495229,1007.511384,1003.635636,0
0.004167,-126.353004,-78.510903,174.514773,6.241878,5.031760,-1.751639,-3.441993,-4.976836,1.893941,3.150798,-0.201500,0.535883,-0.031958,-8.672431,188.495247,1007.902607,1003.009242,0
0.005208,-47.193693,-129.975554,190.838637,6.581178,4.612827,0.181061,-4.598717,-4.638667,-0.028144,4.428065,-0.248989,0.569329,-0.043161,-9.215311,188.419873,1007.296629,1003.263500,0
0.006250,21.621258,-171.509702,155.876516,5.823408,3.441235,1.947081,-5.065139,-3.425670,-1.744592,4.826544,-0.230724,0.567239,-0.061832,-11.420761,188.495314,1007.804967,1002.140199,0
0.007292,93.555396,-181.174425,105.255303,4.895988,1.477931,3.812315,-4.781554,-1.547361,-3.687660,4.698461,-0.205153,0.564691,-0.061832,-11.318971,188.495363,1007.164188,1001.987518,0
0.008333,141.125843,-179.326047,20.878409,3.312588,-0.396616,4.756838,-3.818861,0.323596,-4.661293,3.752074,-0.197847,0.559988,-0.073035,-7.812871,188.495305,1007.548240,1001.481698,0
0.009375,168.234419,-151.539968,-57.749432,1.797048,-2.221459,5.110042,-2.337507,2.231310,-5.101946,2.325378,-0.201500,0.554566,-0.046895,-4.951441,188.495244,1006.910092,1000.963225,0
0.010417,176.366992,-75.635648,-120.656629,0.632118,-3.982397,4.725090,-0.270328,3.885397,-4.741030,0.411256,-0.146705,0.553063,-0.054364,3.338788,188.495215,1006.054198,1000.573204,0
0.011458,172.760077,6.381609,-158.203978,-0.080412,-4.827363,3.824221,1.319235,4.826389,-3.889102,-1.204006,-0.124787,0.537646,-0.061832,7.376458,188.495222,1005.189272,1000.498769,0
0.012500,126.981745,78.577092,-174.343182,-0.385782,-4.955173,1.883584,3.255816,4.980771,-2.008983,-2.986488,-0.080951,0.544767,-0.046895,13.891018,188.495327,1004.915565,1000.009052,0
0.013542,47.890489,130.210876,-190.703978,-0.702462,-4.529140,-0.041180,4.446123,4.561735,-0.036538,-4.313565,-0.080951,0.564103,-0.020755,14.637478,188.495242,1004.816810,1000.314105,0
0.014583,-21.230709,171.491325,-155.938826,-0.091722,-3.300743,-1.823074,4.878962,3.400198,1.696696,-4.669349,-0.044421,0.567435,-0.069301,15.745858,188.495238,1003.820246,1000.013465,0
0.015625,-93.595862,181.856740,-104.775947,0.869628,-1.429747,-3.700214,4.655080,1.507187,3.643962,-4.530593,-0.037115,0.559988,-0.020755,16.707208,188.495206,1003.172498,999.981570,0
0.016667,-141.302419,179.283508,-20.066667,2.475648,0.451901,-4.624894,3.725969,-0.327012,4.537857,-3.641131,-0.059033,0.553847,-0.035692,13.845778,188.495255,1001.996135,999.989101,0
0.017708,-168.910066,151.823613,57.847159,3.957258,2.273193,-5.001909,2.203570,-2.197969,5.020477,-2.246456,-0.062686,0.549470,-0.069301,9.106888,188.570703,1001.121652,1000.079400,0
0.018750,-176.169266,76.293801,120.951326,5.156118,3.991528,-4.652674,0.196093,-3.874111,4.714119,-0.357239,-0.157664,0.558746,-0.046895,1.868488,188.495240,1000.249877,1000.477493,0
0.019792,-173.288271,-5.530162,158.400190,5.868648,4.829394,-3.751805,-1.412127,-4.826130,3.790846,1.332738,-0.179582,0.544244,-0.043161,-2.745991,188.495282,999.999537,1000.622645,0
0.020833,-127.566651,-78.015586,173.702273,6.185328,5.003357,-1.834979,-3.352440,-4.969485,1.977875,3.125893,-0.212459,0.554631,-0.069301,-8.050381,188.495227,999.573039,1001.167356,0
0.021875,-48.316600,-129.878907,190.850948,6.513318,4.595075,0.121532,-4.561404,-4.627640,-0.007161,4.424507,-0.248989,0.569721,-0.076769,-9.362341,188.570631,999.643563,1001.026580,0
0.022917,20.974735,-171.062709,155.925758,5.868648,3.430584,1.851835,-5.020362,-3.502860,-1.669051,4.855007,-0.241683,0.571746,-0.058098,-11.341591,188.495237,999.096620,1002.189676,0
0.023958,93.305861,-181.802632,104.996781,4.884678,1.516984,3.768661,-4.774092,-1.554713,-3.645693,4.712693,-0.219765,0.563058,-0.054364,-11.624341,188.495345,998.729893,1002.510151,0
0.025000,140.672143,-179.108591,20.693750,3.357828,-0.354012,4.740964,-3.871100,0.275811,-4.589949,3.759190,-0.245336,0.554762,-0.046895,-8.864701,188.495229,997.408278,1002.493088,0
0.026042,168.517982,-151.527887,-57.429356,1.819668,-2.185956,5.066388,-2.348701,2.205580,-5.064176,2.332493,-0.172276,0.550515,-0.050629,-5.200261,188.646013,996.860729,1002.342803,0
0.027083,175.709127,-76.408826,-120.828978,0.632118,-3.922042,4.705247,-0.326299,3.896425,-4.778801,0.457508,-0.146705,0.544702,-0.024490,3.485818,188.495211,996.899057,1003.031918,0
0.028125,173.157064,5.270166,-158.228599,-0.046482,-4.845114,3.867876,1.293116,4.811686,-3.884905,-1.200449,-0.095563,0.558420,-0.024490,7.444318,188.495322,997.089472,1002.727507,0
0.029167,127.684980,78.093856,-174.023107,-0.351852,-4.980025,1.895489,3.203577,4.951365,-2.021573,-3.000719,-0.077298,0.559988,-0.058098,13.563028,188.495300,997.209695,1002.353080,0
0.030208,48.775204,130.174633,-190.827084,-0.668532,-4.522039,-0.053085,4.461049,4.587466,-0.053324,-4.299333,-0.044421,0.566651,-0.046895,14.309488,188.645978,997.278675,1002.619685,0
0.031250,-21.400847,171.563810,-155.963447,-0.091722,-3.282992,-1.838948,4.849111,3.396523,1.705090,-4.662233,-0.033462,0.567827,-0.035692,15.972058,188.495287,997.287428,1002.549182,0
0.032292,-93.936137,181.820497,-104.628220,0.903558,-1.365842,-3.688308,4.666274,1.441024,3.622978,-4.527035,-0.055380,0.553912,-0.050629,16.447078,188.495269,997.288952,1001.947936,0
0.033333,-141.268392,179.392236,-19.857386,2.486958,0.498054,-4.636800,3.673730,-0.327012,4.596611,-3.598437,-0.073645,0.551430,-0.050629,13.506478,188.495148,997.855545,1001.746725,0
0.034375,-168.626503,151.980665,57.982576,3.979878,2.290945,-4.997941,2.199839,-2.223699,5.024674,-2.264245,-0.077298,0.551038,-0.058098,8.541388,188.646210,998.112333,1001.855562,0
0.035417,-176.588938,76.656228,121.000569,5.167428,4.012830,-4.664580,0.214750,-3.903517,4.709922,-0.307429,-0.124787,0.564560,-0.046895,1.766698,188.495387,998.996828,1001.432256,0
0.036459,-173.594518,-4.491204,158.498675,5.891268,4.879098,-3.716088,-1.408396,-4.829806,3.841206,1.336296,-0.135746,0.560771,-0.035692,-2.587651,188.570631,999.420985,1001.863818,0
0.037500,-127.657391,-77.363217,174.231629,6.185328,5.010458,-1.755608,-3.341246,-4.995215,1.919121,3.125893,-0.216112,0.561033,-0.054364,-8.717671,188.495313,1000.082777,1001.372197,0
0.038542,-48.645533,-129.890988,190.826326,6.535938,4.570223,0.101689,-4.561404,-4.609261,0.009626,4.406718,-0.227071,0.566912,-0.039427,-9.226621,188.646092,999.763614,1001.212684,0
0.039583,21.734683,-171.292246,156.011932,5.823408,3.370229,1.927238,-4.994243,-3.455076,-1.727805,4.815870,-0.256295,0.556003,-0.061832,-11.409451,188.495199,999.983209,1000.353799,0
0.040625,93.861643,-181.452286,104.762879,4.873368,1.488582,3.736912,-4.785286,-1.517955,-3.654087,4.666441,-0.234377,0.563123,-0.020755,-11.398141,188.570633,999.806192,999.607902,0
0.041667,140.751540,-179.458937,20.176705,3.312588,-0.336261,4.717152,-3.848712,0.334623,-4.623523,3.744958,-0.212459,0.553063,-0.061832,-7.858111,188.495240,1000.665197,999.323865,0
0.042708,168.279789,-151.479563,-57.269318,1.876218,-2.214358,5.098136,-2.363627,2.201904,-5.080962,2.357398,-0.183235,0.556917,-0.013287,-4.985371,188.646938,1000.665813,999.651564,0
0.043750,175.947319,-76.940385,-120.595076,0.654738,-3.936243,4.804461,-0.333762,3.874370,-4.741030,0.457508,-0.135746,0.556329,-0.061832,3.157828,188.495237,1000.454544,999.131770,0
0.044792,173.054982,4.412422,-158.376326,-0.103032,-4.798961,3.832158,1.308041,4.837417,-3.872315,-1.221796,-0.117481,0.559204,-0.020755,7.365148,188.570617,1001.114243,998.837096,0
0.045833,128.002570,77.767671,-173.998485,-0.374472,-4.955173,1.891521,3.248354,4.977095,-2.034163,-2.979372,-0.084604,0.562013,-0.046895,13.868398,188.495351,1001.134586,999.132243,0
0.046875,48.502984,130.029662,-190.839395,-0.759012,-4.475885,-0.064991,4.420004,4.602169,-0.049128,-4.274428,-0.022503,0.566455,-0.043161,14.614858,188.721541,1000.859733,999.176814,0
0.047917,-22.047369,171.104736,-156.061932,-0.080412,-3.261690,-1.795294,4.830454,3.436956,1.692500,-4.619539,-0.040768,0.538757,-0.076769,15.757168,188.495318,1000.115156,999.415293,0
0.048958,-94.151645,182.122520,-104.234281,0.892248,-1.433297,-3.664497,4.651349,1.499836,3.614585,-4.544825,-0.033462,0.557113,-0.046895,16.741138,188.570694,999.733079,1000.369444,0
0.050000,-141.007514,179.223103,-20.066667,2.532198,0.398647,-4.624894,3.737163,-0.290255,4.542054,-3.644689,-0.077298,0.554500,-0.050629,13.924948,188.495273,998.865440,1000.801855,0
0.051042,-169.238998,151.992745,57.108523,3.979878,2.262543,-5.009847,2.240884,-2.183266,5.083428,-2.299823,-0.110175,0.557767,-0.065566,9.174748,188.721494,999.028231,1001.777853,0
0.052083,-176.010471,78.081775,121.049811,5.167428,3.956025,-4.664580,0.255795,-3.848381,4.701529,-0.353681,-0.146705,0.556133,-0.061832,2.015518,188.495168,998.303630,1001.791452,0
0.053125,-173.651231,-3.693864,158.621781,5.857338,4.840045,-3.747837,-1.348694,-4.866564,3.816026,1.279371,-0.154011,0.560641,-0.013287,-2.723371,188.570683,998.299128,1001.896360,0
0.054167,-128.371969,-77.713563,173.529925,6.207948,4.992707,-1.823074,-3.315126,-4.995215,2.024038,3.072525,-0.227071,0.560314,-0.058098,-8.084311,188.495264,997.260949,1003.070840,0
0.055208,-47.999010,-129.999716,191.072538,6.502008,4.619927,0.081847,-4.524090,-4.609261,-0.011358,4.406718,-0.212459,0.548686,-0.039427,-9.396271,188.721391,997.314566,1003.051096,0
0.056250,22.369863,-170.772767,155.962690,5.891268,3.444785,1.875646,-4.942003,-3.506536,-1.673248,4.790965,-0.259948,0.570701,-0.061832,-11.341591,188.495235,996.217119,1003.720082,0
0.057292,93.782246,-182.080493,104.504356,4.929918,1.577339,3.717069,-4.807674,-1.543686,-3.624710,4.698461,-0.256295,0.558812,-0.054364,-11.624341,188.570671,995.988986,1004.462015,0
0.058333,140.762883,-178.903215,20.742992,3.346518,-0.297208,4.717152,-3.893488,0.250081,-4.589949,3.776979,-0.219765,0.559726,-0.054364,-8.943871,188.495296,994.881934,1005.138401,0
0.059375,168.994367,-151.745343,-56.469129,1.842288,-2.161104,5.141791,-2.352433,2.161471,-5.135519,2.389419,-0.201500,0.556656,-0.039427,-5.245501,188.721469,995.105160,1006.090066,0
0.060417,175.380194,-78.075990,-120.841288,0.620808,-3.858137,4.776681,-0.382269,3.852316,-4.803981,0.517991,-0.121134,0.558289,-0.050629,3.372718,188.570691,994.911557,1007.150917,0
0.061458,173.270489,4.303694,-158.388637,-0.103032,-4.795411,3.855970,1.296847,4.804335,-3.901692,-1.182659,-0.128440,0.560380,-0.028224,7.387768,188.570712,994.269440,1007.557671,0
0.062500,128.013912,78.323393,-173.641478,-0.397092,-4.916120,1.891521,3.184920,4.962392,-2.046754,-2.958025,-0.069992,0.558354,-0.058098,13.585648,188.495307,993.718790,1007.678451,0
0.063542,47.482159,130.247118,-191.048675,-0.725082,-4.479436,-0.013399,4.449855,4.580114,-0.023948,-4.288660,-0.029809,0.567696,-0.043161,14.264248,188.721277,993.778477,1007.502425,0
0.064583,-22.648522,171.273868,-155.988069,-0.069102,-3.314944,-1.783388,4.897619,3.403874,1.658926,-4.662233,-0.022503,0.563646,-0.028224,15.949438,188.495240,993.722546,1007.780898,0
0.065625,-94.106275,182.037954,-104.652841,0.914868,-1.429747,-3.688308,4.658811,1.496160,3.656552,-4.527035,-0.026156,0.557244,-0.031958,16.447078,188.570571,994.244571,1007.482373,0
0.066667,-141.234364,179.162699,-20.719129,2.464338,0.427049,-4.640768,3.744626,-0.315985,4.525267,-3.658921,-0.051727,0.556917,-0.039427,13.585648,188.502365,994.450152,1007.328915,0
0.067708,-169.250341,152.306849,56.850000,3.934638,2.276744,-4.993972,2.259541,-2.234727,5.087624,-2.274918,-0.066339,0.556068,-0.028224,8.654488,188.722007,995.270609,1006.842436,0
0.068750,-176.509541,78.009289,120.975947,5.133498,3.991528,-4.640768,0.181168,-3.859408,4.688938,-0.286082,-0.150358,0.552736,-0.046895,1.823248,188.571053,995.923798,1006.168455,0
0.069792,-173.685258,-4.237505,158.547917,5.891268,4.836494,-3.704182,-1.404665,-4.815103,3.765666,1.314949,-0.146705,0.559857,-0.046895,-2.644201,188.571098,995.630641,1005.174540,0
0.070833,-127.543966,-78.027667,174.108523,6.185328,4.982056,-1.767514,-3.356171,-4.962133,1.965285,3.104546,-0.212459,0.569198,-0.050629,-8.706361,188.495653,995.828617,1004.416968,0
0.071875,-46.978185,-130.072201,191.097160,6.547248,4.548922,0.093752,-4.576329,-4.568828,-0.028144,4.385371,-0.238030,0.564691,-0.035692,-9.204001,188.721971,995.302467,1003.929082,0
0.072917,22.959673,-171.195599,156.011932,5.891268,3.363129,1.903427,-5.005437,-3.414642,-1.669051,4.783850,-0.252642,0.547119,-0.073035,-11.364211,188.571080,995.234554,1003.107818,0
0.073958,93.793588,-181.561014,105.046023,4.918608,1.541836,3.752787,-4.785286,-1.517955,-3.670874,4.687788,-0.219765,0.568480,-0.043161,-11.398141,188.571248,995.903733,1002.562685,0
0.075000,141.001075,-179.217319,21.260038,3.335208,-0.286557,4.756838,-3.833787,0.283162,-4.598343,3.766305,-0.230724,0.562209,-0.065566,-7.880731,188.495731,996.493370,1002.249119,0
0.076042,168.756174,-151.938638,-56.333712,1.853598,-2.182406,5.086231,-2.330044,2.154119,-5.055782,2.357398,-0.197847,0.560510,-0.017021,-5.041921,188.721920,995.870140,1001.142120,0
0.077083,175.958662,-77.628997,-120.508902,0.620808,-3.904291,4.740964,-0.318836,3.881722,-4.753620,0.443277,-0.154011,0.556525,-0.043161,3.157828,188.571645,996.520834,999.988849,0
0.078125,173.179749,5.125195,-158.240910,-0.103032,-4.770559,3.800410,1.263265,4.859471,-3.838741,-1.200449,-0.124787,0.547706,-0.039427,7.365148,188.570917,997.023147,999.560005,0
0.079167,127.287992,78.758305,-173.764584,-0.397092,-4.933871,1.875646,3.218503,4.955041,-2.021573,-2.972256,-0.073645,0.530657,-0.050629,13.823158,188.495685,996.985550,999.361702,0
0.080208,46.971746,130.283361,-191.048675,-0.725082,-4.468785,-0.005462,4.412541,4.554384,-0.036538,-4.267312,-0.044421,0.578213,-0.039427,14.626168,188.722001,996.404603,999.203734,0
0.081255,-22.784632,171.515486,-155.729546,-0.057792,-3.300743,-1.834979,4.886425,3.385495,1.726073,-4.665791,-0.066339,0.567500,-0.043161,15.813718,188.571205,997.118037,998.794024,0
0.082292,-93.595862,182.001711,-104.923675,0.903558,-1.404895,-3.648622,4.681200,1.496160,3.639765,-4.509246,-0.055380,0.561686,-0.061832,16.707208,188.571109,996.932119,998.430017,0
0.083334,-141.086912,179.066051,-21.445455,2.453028,0.427049,-4.644737,3.711043,-0.315985,4.571431,-3.637574,-0.080951,0.558681,-0.035692,13.913638,188.495756,997.548616,998.183915,0
0.084375,-169.601958,152.186040,56.492993,3.945948,2.273193,-5.029689,2.188645,-2.201645,5.062444,-2.267803,-0.084604,0.556003,-0.039427,9.197368,188.721980,997.048905,998.007684,0
0.085417,-176.033156,77.900561,120.902084,5.167428,3.977327,-4.648705,0.218481,-3.899841,4.714119,-0.318103,-0.128440,0.553782,-0.043161,1.947658,188.571207,997.260392,998.525331,0
0.086459,-173.594518,-5.071088,158.314016,5.857338,4.843595,-3.680371,-1.408396,-4.789373,3.790846,1.329180,-0.179582,0.525953,-0.046895,-2.791231,188.571203,996.910554,998.707119,0
0.087500,-127.532624,-78.667955,173.431440,6.185328,4.960754,-1.775451,-3.348708,-4.936403,1.977875,3.061852,-0.230724,0.522360,-0.065566,-8.016451,188.571129,995.950008,998.715359,0
0.088542,-46.932815,-130.132606,191.146402,6.558558,4.609277,0.081847,-4.583792,-4.576179,-0.028144,4.392487,-0.223418,0.539084,-0.061832,-9.351031,188.722011,996.056060,998.850749,0
0.089583,22.006903,-170.881495,156.024243,5.857338,3.423484,1.883584,-5.016631,-3.499185,-1.681641,4.794523,-0.252642,0.558681,-0.035692,-11.318971,188.571141,996.363609,999.520271,0
0.090625,93.203778,-182.020089,105.353788,4.907298,1.563138,3.780567,-4.863645,-1.591470,-3.683464,4.748271,-0.248989,0.568676,-0.035692,-11.579101,188.571040,996.725379,1000.789450,0
0.091667,140.910335,-178.891134,21.789394,3.289968,-0.322060,4.725090,-3.859906,0.242729,-4.610933,3.812557,-0.216112,0.563776,-0.046895,-8.966491,188.571020,996.605370,1001.514582,0
0.092709,169.175847,-151.986961,-56.259849,1.853598,-2.189506,5.078294,-2.359895,2.172498,-5.080962,2.389419,-0.179582,0.559596,-0.046895,-5.245501,188.722056,997.013317,1002.130992,0
0.093750,175.550332,-77.326974,-120.644319,0.654738,-3.914942,4.729058,-0.344956,3.892749,-4.745227,0.450392,-0.139399,0.559988,-0.035692,3.497128,188.571098,996.858172,1002.108970,0
0.094792,173.225119,5.825888,-158.043940,-0.057792,-4.774109,3.808347,1.308041,4.855795,-3.859725,-1.196891,-0.110175,0.560967,-0.054364,7.466938,188.571027,996.623626,1002.463378,0
0.095834,127.140540,79.108652,-173.592235,-0.419712,-4.983575,1.915332,3.229697,4.966068,-2.013180,-3.029182,-0.026156,0.556656,-0.043161,13.574338,188.571207,997.287344,1002.441067,0
0.096875,47.538871,130.186714,-191.048675,-0.747702,-4.500737,-0.041180,4.490900,4.627899,-0.019751,-4.324238,-0.040768,0.553455,-0.061832,14.286868,188.721940,998.489662,1003.171242,0
0.097917,-21.468902,171.406758,-156.049622,-0.057792,-3.311394,-1.842917,4.912545,3.418577,1.692500,-4.687138,-0.040768,0.566063,-0.043161,15.983368,188.571151,998.645749,1003.528371,0
0.098959,-93.312300,181.892983,-105.489962,0.903558,-1.415546,-3.708151,4.696125,1.518214,3.656552,-4.576845,-0.055380,0.561359,-0.061832,16.447078,188.495665,999.301796,1004.284153,0
0.100000,-141.302419,179.247265,-21.359280,2.441718,0.462552,-4.652674,3.681193,-0.349067,4.588218,-3.658921,-0.051727,0.560902,-0.061832,13.563028,188.571203,999.855630,1004.474968,0
0.101042,-169.046176,152.331011,56.923864,3.945948,2.344199,-5.009847,2.166256,-2.245754,5.028871,-2.217993,-0.066339,0.554304,-0.043161,8.552698,188.721965,1000.111335,1003.431522,0
0.102083,-176.520883,76.789118,120.717425,5.156118,4.048333,-4.616957,0.181168,-3.903517,4.697332,-0.261177,-0.102869,0.531571,-0.028224,1.676218,188.571172,1000.274646,1002.887072,0
0.103125,-173.605861,-5.747618,158.178599,5.891268,4.857796,-3.712120,-1.449441,-4.833482,3.778256,1.375432,-0.172276,0.539933,-0.065566,-2.655511,188.571246,1001.032542,1002.809740,0
0.104167,-127.305774,-78.124314,174.194697,6.196638,5.017559,-1.743702,-3.348708,-4.940079,1.923318,3.140124,-0.197847,0.543787,-0.031958,-8.728981,188.571250,1002.366230,1002.133496,0
0.105208,-47.885585,-129.794341,191.047917,6.558558,4.563123,0.133438,-4.568866,-4.557801,-0.044931,4.420949,-0.223418,0.551299,-0.061832,-9.204001,188.721949,1003.019670,1001.616491,0
0.106250,21.212928,-171.425136,156.085796,5.879958,3.391531,1.970892,-5.009168,-3.462427,-1.723608,4.855007,-0.256295,0.568610,-0.065566,-11.386831,188.571230,1004.343311,1001.402328,0
0.107292,93.158408,-181.669742,105.526137,4.918608,1.495683,3.784535,-4.774092,-1.528983,-3.687660,4.666441,-0.252642,0.564952,-0.058098,-11.409451,188.495788,1004.217975,999.815204,0
0.108334,140.853623,-179.410613,21.235417,3.301278,-0.375314,4.693341,-3.830055,0.294190,-4.602539,3.748516,-0.223418,0.558877,-0.061832,-7.858111,188.495711,1004.500824,998.800442,0
0.109375,168.449927,-151.902395,-56.949243,1.842288,-2.217909,5.098136,-2.330044,2.205580,-5.072569,2.357398,-0.197847,0.551626,-0.058098,-5.007991,188.721893,1004.663835,998.227496,0
0.110417,176.128799,-76.263855,-120.361175,0.654738,-3.957545,4.697310,-0.337493,3.848640,-4.728440,0.404140,-0.135746,0.577299,-0.035692,3.282238,188.571075,1004.241156,997.714843,0
