1-Time,2-VGERA,3-VGERB,4-VGERC,5-VN,6-IGERAN,7-IGERBN,8-IGERCN,9-IGERAT,10-IGERBT,11-IGERCT,12-IN,13-IFD,14-IFAULT,15-VFAULT,16-Speed (rad/s),17-Active Power,18-Reactive Power,19-FAULT 
0.000000,177.338130,-127.939803,-2.376713,0.257972,-5.091175,0.438755,5.129063,5.589588,-0.277457,-5.391643,-0.090349,0.197488,-0.025873,152.477959,188.495718,959.154716,-1242.509336,0
0.001042,191.655135,-71.951340,-61.433837,-0.901736,-3.553666,-2.091455,5.840431,4.040787,2.279985,-6.050399,-0.126811,0.206307,-0.040740,153.885250,188.495761,959.455611,-1242.654334,0
0.002083,168.524188,-24.771635,-143.348256,-2.455519,-1.902403,-3.997435,5.913887,2.403059,4.162792,-6.046591,-0.104934,0.213886,-0.025873,126.640104,188.495669,959.925366,-1243.031256,0
0.003125,117.053028,21.362765,-187.799071,-3.299967,0.343314,-5.071110,4.537546,0.083562,5.124038,-4.599611,-0.046595,0.217813,-0.011006,78.949841,188.344834,959.929460,-1243.558552,0
0.004167,60.022305,87.299252,-194.081486,-3.435078,2.754158,-6.119815,3.165071,-2.250756,6.195518,-3.278290,-0.050241,0.210579,-0.011006,39.399346,188.495763,960.567596,-1243.928401,0
0.005208,14.800004,151.192107,-155.597141,-2.737001,4.607241,-5.678693,0.884056,-4.081158,5.622298,-0.966930,-0.010133,0.200933,-0.029590,5.264106,188.420273,961.318803,-1244.451884,0
0.006250,-34.241672,199.605038,-90.549243,-1.487219,5.990633,-4.430234,-1.586398,-5.474338,4.378852,1.527206,0.051852,0.194594,-0.003573,-40.782442,188.495718,961.859580,-1245.146627,0
0.007292,-107.408689,176.032803,-42.586595,-0.530179,6.434639,-2.515931,-3.701170,-5.881918,2.412267,3.602480,0.099252,0.188875,-0.029590,-100.991962,188.344919,963.028683,-1245.332178,0
0.008333,-177.332627,127.725576,2.872809,0.291750,6.012649,-0.393551,-5.239888,-5.507686,0.295763,4.984726,0.099252,0.194456,-0.014723,-151.800781,188.495613,963.999687,-1245.277218,0
0.009375,-191.468833,71.161608,61.528929,1.462718,4.493488,2.165790,-5.928059,-3.966295,-2.221995,5.685369,0.146652,0.200450,0.000144,-152.937871,188.420325,965.186559,-1245.467209,0
0.010417,-168.631684,24.252038,143.552713,3.039020,2.805530,4.100901,-6.055641,-2.321156,-4.162124,5.670138,0.110191,0.205067,-0.018440,-126.537100,188.495928,966.257507,-1246.494230,0
0.011458,-116.075731,-21.518267,188.052134,3.905986,0.508440,5.116314,-4.636772,0.050214,-5.079276,4.234582,0.110191,0.213473,-0.025873,-80.197836,188.344834,967.643018,-1246.436628,0
0.012500,-59.225807,-87.619184,194.528975,4.007319,-1.869378,6.185827,-3.256565,2.351185,-6.212488,2.856143,0.070083,0.203551,-0.029590,-37.708919,188.495877,968.988268,-1246.442527,0
0.013542,-14.500703,-151.230158,155.595019,3.264206,-3.707784,5.732220,-0.944621,4.181587,-5.621630,0.567630,0.026329,0.185499,-0.003573,-4.969711,188.420244,970.432307,-1246.512078,0
0.014583,34.348874,-200.101145,90.705092,2.036942,-5.036133,4.446308,1.576093,5.582178,-4.364956,-1.896044,0.000805,0.178471,-0.025873,40.986770,188.496161,972.403956,-1246.716779,0
0.015625,107.278593,-175.976894,42.633079,1.124939,-5.494817,2.548650,3.698596,5.993462,-2.380733,-4.005588,-0.075764,0.191493,0.000144,101.308874,188.344827,973.558543,-1246.196249,0
0.016667,177.518928,-127.716648,-2.862780,0.280491,-5.153556,0.447078,5.175457,5.630346,-0.312732,-5.403066,-0.053887,0.196730,-0.014723,151.802459,188.495875,974.505086,-1246.148206,0
0.017708,191.395237,-71.058719,-61.360927,-0.890476,-3.601369,-2.045678,5.882958,4.088955,2.253529,-6.103709,-0.108580,0.201897,-0.014723,153.930283,188.420441,975.491300,-1246.084874,0
0.018750,168.704987,-24.125659,-143.323953,-2.444260,-1.902403,-3.997435,5.933218,2.425290,4.114289,-6.107517,-0.104934,0.209476,-0.011006,126.741429,188.495734,976.516810,-1245.800178,0
0.019792,116.250733,21.609410,-187.871981,-3.322485,0.284602,-5.017010,4.576207,0.120615,5.132856,-4.641498,-0.112226,0.206445,-0.022156,78.296858,188.420361,977.400898,-1245.440126,0
0.020833,59.389509,87.416702,-194.409581,-3.446337,2.702785,-6.148946,3.203732,-2.209998,6.186699,-3.327792,-0.032010,0.222912,-0.029590,38.994047,188.495769,978.287618,-1244.792060,0
0.021875,14.698304,150.980696,-155.584990,-2.737001,4.574216,-5.720308,0.922718,-4.095979,5.688439,-0.997393,-0.006487,0.198246,-0.018440,5.444239,188.420263,979.148819,-1245.110732,0
0.022917,-34.128673,199.734233,-90.682911,-1.475960,5.972285,-4.401104,-1.551603,-5.470633,4.409718,1.511975,0.073729,0.179436,-0.014723,-40.793700,188.495723,979.559944,-1245.088956,0
0.023958,-107.408689,175.985823,-42.914690,-0.563957,6.408953,-2.503446,-3.701170,-5.885623,2.403448,3.572017,0.095606,0.194043,-0.003573,-100.496595,188.420314,979.510121,-1244.894301,0
0.025000,-177.705524,127.890007,2.556866,0.314269,6.053014,-0.406035,-5.216691,-5.544738,0.348675,4.999958,0.084667,0.199072,-0.007290,-151.902106,188.495807,980.388177,-1245.074600,0
0.026042,-191.502733,71.819328,61.638294,1.451458,4.504496,2.132497,-5.912594,-3.966295,-2.221995,5.647291,0.135714,0.202655,-0.022156,-152.116014,188.420249,980.150126,-1244.930974,0
0.027083,-168.710784,25.074188,144.002324,3.027760,2.809200,4.038478,-5.951255,-2.287809,-4.069527,5.673946,0.124775,0.210579,-0.018440,-126.593392,188.495709,979.956347,-1244.379278,0
0.028125,-116.968426,-21.259877,187.967073,3.849689,0.581830,5.066376,-4.598111,-0.012775,-5.105732,4.204119,0.077375,0.218296,-0.033307,-79.229620,188.344909,980.103145,-1244.449344,0
0.029167,-60.367100,-87.713144,194.456065,4.007319,-1.814336,6.198312,-3.217904,2.332659,-6.137528,2.882798,0.044560,0.210303,-0.025873,-38.451968,188.495758,979.870943,-1243.941458,0
0.030208,-15.325597,-151.300628,155.971721,3.286724,-3.605039,5.723897,-0.991015,4.155650,-5.656905,0.560014,0.029975,0.201208,0.003860,-5.521369,188.420220,979.966020,-1244.263067,0
0.031250,34.371474,-200.030675,91.276221,2.070720,-5.028794,4.458792,1.537432,5.548830,-4.356137,-1.899852,-0.013779,0.181365,-0.040740,41.482136,188.495685,979.653303,-1244.117440,0
0.032292,107.628890,-176.070855,43.277118,1.158716,-5.472800,2.573620,3.671534,5.978641,-2.402780,-4.017012,-0.064826,0.194181,-0.011006,101.410198,188.344840,979.736025,-1244.282084,0
0.033333,177.914426,-127.787118,-2.218741,0.224195,-5.127870,0.480370,5.159992,5.619230,-0.325960,-5.422105,-0.079410,0.199830,-0.007290,152.714384,188.495665,979.689083,-1244.556309,0
0.034375,191.383937,-71.692950,-61.591809,-0.901736,-3.597700,-2.054001,5.852029,4.063018,2.213844,-6.103709,-0.097641,0.203964,-0.029590,153.727633,188.420253,979.629682,-1244.379279,0
0.035417,168.648487,-24.736400,-143.870778,-2.466778,-1.975793,-3.993274,6.010540,2.428996,4.145155,-6.111325,-0.108580,0.214299,-0.044457,126.617587,188.495725,979.682490,-1244.930020,0
0.036458,116.691430,21.550685,-188.090711,-3.277448,0.310289,-5.033656,4.607136,0.142846,5.124038,-4.675768,-0.075764,0.220431,-0.033307,78.634608,188.344804,980.258198,-1245.009286,0
0.037500,59.965805,87.686837,-194.373126,-3.446337,2.728471,-6.144784,3.230795,-2.235935,6.204337,-3.301137,-0.061180,0.211268,-0.051890,39.433121,188.495691,979.960400,-1245.633698,0
0.038542,14.935603,151.462242,-155.171833,-2.680705,4.596233,-5.757762,0.938182,-4.099684,5.679620,-0.989777,-0.010133,0.208650,-0.037023,5.421723,188.420289,979.889044,-1245.635895,0
0.039583,-34.490271,200.074839,-90.318361,-1.487219,6.012649,-4.476011,-1.613461,-5.511391,4.400899,1.481512,0.044560,0.192665,-0.011006,-40.928800,188.495662,980.413822,-1245.685182,0
0.040625,-107.600787,175.680453,-42.562291,-0.608994,6.456656,-2.570031,-3.728233,-5.948612,2.443132,3.667213,0.102898,0.191493,-0.025873,-101.363486,188.344867,981.090197,-1246.923427,0
0.041667,-178.078422,127.549401,2.763444,0.303010,6.078700,-0.455974,-5.247620,-5.555854,0.317810,4.996150,0.091960,0.197694,-0.018440,-152.082239,188.495747,981.114840,-1247.020273,0
0.042708,-191.163735,70.938453,61.784114,1.485236,4.530182,2.153305,-5.982184,-4.014463,-2.244042,5.712024,0.124775,0.202517,-0.044457,-152.768997,188.420218,981.943319,-1247.497085,0
0.043750,-168.755983,24.146332,144.050931,3.050279,2.842225,4.088416,-6.036310,-2.321156,-4.095983,5.761526,0.135714,0.202655,-0.033307,-126.525842,188.495747,983.269193,-1248.054808,0
0.044792,-115.702834,-21.553502,188.234409,3.872208,0.552474,5.128799,-4.690898,0.002046,-5.193920,4.299315,0.117483,0.226839,-0.037023,-79.848828,188.344932,984.575889,-1248.958054,0
0.045833,-59.169308,-87.971534,194.626189,4.018579,-1.843692,6.260735,-3.318423,2.336364,-6.230125,2.909453,0.066437,0.194249,-0.037023,-37.787727,188.495604,985.749349,-1249.422631,0
0.046875,-14.579802,-151.723449,155.084649,3.264206,-3.682098,5.773836,-0.994881,4.177882,-5.696590,0.594285,0.037267,0.199486,-0.037023,-5.082294,188.420256,986.750823,-1249.238411,0
0.047917,34.721772,-200.547456,90.401301,2.048201,-5.061820,4.500408,1.502637,5.637757,-4.444325,-1.873197,-0.032010,0.189702,-0.022156,41.234453,188.495769,988.568560,-1249.847352,0
0.048958,107.538491,-175.612799,42.681686,1.102420,-5.527843,2.598589,3.648337,6.074978,-2.389552,-4.039859,-0.068472,0.192320,-0.037023,101.725432,188.344822,989.094844,-1250.589282,0
0.050000,178.219524,-127.434768,-2.571140,0.280491,-5.208598,0.459563,5.214118,5.674809,-0.352417,-5.410682,-0.083057,0.202380,-0.018440,151.960076,188.495546,990.084656,-1250.403757,0
0.051042,191.101439,-70.847309,-61.652567,-0.901736,-3.678428,-2.070647,5.940950,4.107482,2.257938,-6.157019,-0.115872,0.203069,-0.033307,153.795183,188.420307,990.666049,-1250.996863,0
0.052083,168.659787,-24.102169,-143.846475,-2.500556,-1.983132,-3.989112,6.014406,2.525333,4.131926,-6.157019,-0.079410,0.183639,-0.048173,126.583812,188.495671,992.245994,-1250.656436,0
0.053125,115.810036,21.750350,-188.127166,-3.311226,0.251577,-5.050302,4.665128,0.168783,5.181360,-4.721462,-0.075764,0.247027,-0.025873,77.947850,188.420256,993.177209,-1250.870133,0
0.054167,59.276510,87.933482,-194.482491,-3.435078,2.721132,-6.148946,3.284921,-2.202588,6.244021,-3.369679,-0.057533,0.194594,-0.040740,38.982788,188.495705,994.571155,-1250.605643,0
0.055208,14.732204,151.391772,-154.953103,-2.703224,4.588894,-5.774408,1.003906,-4.070042,5.754580,-1.081166,-0.021072,0.203964,-0.025873,5.534306,188.420307,996.214717,-1250.072947,0
0.056250,-34.512870,200.286249,-90.500636,-1.475960,6.005311,-4.480173,-1.543871,-5.478043,4.533180,1.435818,0.037267,0.197694,-0.003573,-41.030125,188.495609,997.894496,-1249.665651,0
0.057292,-107.838086,175.527768,-42.926841,-0.575216,6.471334,-2.570031,-3.716634,-5.904149,2.460770,3.583441,0.088314,0.194663,-0.022156,-100.946928,188.420332,998.008017,-1248.406525,0
0.058333,-178.451319,127.502421,2.435349,0.314269,6.126403,-0.493428,-5.193494,-5.581791,0.392769,4.965687,0.113837,0.204516,-0.029590,-152.172305,188.495674,998.913476,-1247.801526,0
0.059375,-191.141135,71.701878,62.136512,1.451458,4.548530,2.078398,-5.947389,-4.018168,-2.182311,5.757718,0.128422,0.207823,0.003860,-152.070980,188.495716,999.573792,-1247.930686,0
0.060417,-168.654284,24.886268,144.464088,3.016501,2.871581,4.030155,-6.051775,-2.398967,-4.051890,5.738679,0.110191,0.223256,-0.040740,-126.537100,188.495651,1000.206046,-1247.220112,0
0.061458,-116.380829,-21.330347,188.210106,3.894726,0.614855,5.095506,-4.683166,-0.042417,-5.110142,4.318354,0.084667,0.223050,0.015011,-78.689221,188.420312,1000.480661,-1246.349535,0
0.062500,-60.039402,-88.335629,194.419610,4.018579,-1.829014,6.239927,-3.326155,2.269669,-6.186031,2.977994,0.073729,0.222843,-0.022156,-38.361902,188.495680,1001.262619,-1245.449190,0
0.063542,-15.314297,-151.782174,155.181862,3.264206,-3.608708,5.777997,-1.037408,4.170471,-5.639268,0.620940,0.015390,0.212232,-0.022156,-5.498852,188.495698,1000.831224,-1245.140681,0
0.064583,34.642673,-200.547456,90.899519,2.059460,-5.087506,4.529538,1.510369,5.578472,-4.426687,-1.850350,-0.032010,0.185224,-0.003573,41.752336,188.495660,1000.511870,-1244.486779,0
0.065625,107.956588,-175.589309,43.289269,1.136198,-5.553529,2.594427,3.694730,6.052747,-2.442465,-4.013204,-0.079410,0.195627,-0.048173,101.838015,188.420254,1001.008991,-1244.051020,0
0.066667,178.908819,-127.364298,-2.145831,0.269232,-5.226946,0.492855,5.167725,5.678515,-0.330370,-5.433529,-0.079410,0.202517,-0.022156,153.085908,188.495600,1000.974782,-1244.615676,0
0.067708,191.146638,-71.481540,-61.846994,-0.890476,-3.630725,-2.074809,5.944816,4.100071,2.279985,-6.176058,-0.126811,0.206031,-0.044457,153.570016,188.495649,1000.871979,-1245.232927,0
0.068750,168.569388,-24.795125,-144.332542,-2.433000,-2.012488,-4.043212,6.045335,2.484575,4.153973,-6.179866,-0.086703,0.210372,-0.037023,126.505004,188.495732,1000.595909,-1245.992615,0
0.069792,116.036035,21.644645,-188.455262,-3.322485,0.258916,-5.058625,4.622601,0.128025,5.251910,-4.744309,-0.057533,0.223050,-0.011006,78.173016,188.420410,1000.750454,-1247.293556,0
0.070833,59.931905,88.285833,-194.494642,-3.423819,2.739480,-6.244661,3.304252,-2.224819,6.296934,-3.369679,-0.035656,0.213404,-0.029590,39.354313,188.495586,1001.028422,-1248.207076,0
0.071875,15.127701,151.943787,-154.527794,-2.703224,4.599902,-5.778570,1.015505,-4.136737,5.789855,-1.012624,-0.021072,0.205205,-0.014723,5.568081,188.495700,1000.705944,-1249.525595,0
0.072917,-34.546770,200.579874,-90.099631,-1.487219,6.056683,-4.505142,-1.601863,-5.548444,4.524361,1.504359,0.026329,0.190115,-0.055607,-40.985091,188.495727,1000.510088,-1250.766949,0
0.073958,-108.052784,175.175417,-42.307106,-0.563957,6.544723,-2.590838,-3.689571,-5.981960,2.482817,3.632943,0.084667,0.193423,-0.037023,-101.960178,188.420300,1001.323119,-1251.579957,0
0.075000,-178.925916,127.067856,2.714838,0.325528,6.144751,-0.476781,-5.282415,-5.607728,0.357494,5.030421,0.113837,0.199004,-0.014723,-152.386214,188.495687,1001.591901,-1252.508150,0
0.076042,-190.949037,70.727042,62.136512,1.451458,4.588894,2.128336,-6.044042,-4.044105,-2.283727,5.784373,0.121129,0.203206,-0.014723,-152.645155,188.495700,1001.519404,-1253.339146,0
0.077083,-168.631684,24.111097,144.488391,3.050279,2.878920,4.071770,-6.129097,-2.398967,-4.140077,5.826259,0.161237,0.219398,-0.033307,-126.435775,188.495720,1002.339881,-1254.695748,0
0.078125,-114.945739,-21.576992,188.744780,3.849689,0.578160,5.157929,-4.717961,0.009457,-5.207148,4.356433,0.088314,0.211957,-0.051890,-79.252137,188.495644,1002.813978,-1255.779161,0
0.079167,-59.033708,-88.476569,194.565430,3.973542,-1.836353,6.285704,-3.322289,2.325248,-6.305085,2.939915,0.102898,0.205756,-0.029590,-37.742694,188.495718,1003.110719,-1257.120600,0
0.080208,-14.884900,-152.228484,154.270487,3.252946,-3.689437,5.832097,-1.010346,4.255692,-5.745093,0.643787,0.037267,0.182536,-0.025873,-5.307461,188.495671,1004.503041,-1258.139970,0
0.081250,34.800871,-200.970276,90.048902,2.059460,-5.135209,4.575315,1.533566,5.637757,-4.461962,-1.896044,-0.032010,0.182054,-0.037023,41.369553,188.495664,1005.033669,-1258.990082,0
0.082292,107.854889,-175.084274,42.681686,1.124939,-5.604902,2.627719,3.717927,6.115736,-2.468921,-4.085553,-0.061180,0.193078,-0.014723,102.265831,188.420401,1005.566535,-1259.863692,0
0.083333,179.010519,-127.000202,-2.255196,0.280491,-5.259971,0.517824,5.229583,5.737799,-0.396511,-5.486839,-0.104934,0.201553,-0.025873,152.140209,188.495640,1006.865640,-1260.173094,0
0.084375,190.739841,-70.530194,-61.846994,-0.901736,-3.682098,-2.099778,5.975745,4.181587,2.332898,-6.244599,-0.145042,0.204584,-0.033307,153.671341,188.495714,1007.846484,-1260.948978,0
0.085417,168.365989,-24.137404,-144.405452,-2.466778,-2.008818,-4.043212,6.068532,2.514217,4.171611,-6.195097,-0.126811,0.205480,-0.025873,126.336129,188.495582,1008.426287,-1260.891938,0
0.086458,115.052941,21.726860,-188.710447,-3.345004,0.255247,-5.150179,4.653530,0.098383,5.256319,-4.793811,-0.079410,0.233316,-0.055607,77.283609,188.495537,1008.829991,-1260.993820,0
0.087500,59.265210,88.391538,-194.494642,-3.446337,2.743149,-6.277953,3.261724,-2.213703,6.318981,-3.377294,-0.035656,0.201415,-0.029590,39.117888,188.495698,1009.245789,-1260.833866,0
0.088542,15.082502,152.014257,-154.017424,-2.669446,4.607241,-5.840993,1.007772,-4.114505,5.763398,-1.035471,-0.002841,0.217469,-0.014723,5.905831,188.495604,1009.252239,-1260.121263,0
0.089583,-34.546770,200.873499,-90.099631,-1.475960,6.071361,-4.559242,-1.555469,-5.600317,4.493496,1.542437,0.040913,0.209339,-0.003573,-41.018866,188.495700,1008.919935,-1261.018702,0
0.090625,-107.962385,174.952262,-42.926841,-0.552697,6.519037,-2.599161,-3.755295,-5.989370,2.451951,3.651982,0.084667,0.194663,-0.007290,-101.453553,188.571046,1008.369801,-1261.474783,0
0.091667,-179.276214,126.973896,2.010041,0.269232,6.119064,-0.472620,-5.286282,-5.604023,0.361903,5.018997,0.113837,0.201553,-0.048173,-152.217339,188.495845,1008.245716,-1261.446737,0
0.092708,-190.858637,71.384763,62.318787,1.473977,4.588894,2.136659,-5.997649,-4.029284,-2.257270,5.765334,0.139360,0.207134,-0.037023,-151.913364,188.495685,1008.088502,-1261.204620,0
0.093750,-168.518685,25.168148,145.023065,3.084057,2.919284,4.080093,-6.113633,-2.398967,-4.135668,5.780565,0.117483,0.186050,-0.022156,-126.435775,188.495705,1007.603755,-1261.142481,0
0.094792,-115.623734,-21.118936,188.513898,3.872208,0.563482,5.162091,-4.698630,-0.027596,-5.211558,4.348817,0.051852,0.226288,-0.011006,-78.081271,188.571056,1007.611802,-1261.166202,0
0.095833,-59.960302,-88.758450,194.395307,3.962282,-1.836353,6.294027,-3.353218,2.351185,-6.256581,2.966570,0.077375,0.214093,-0.033307,-38.339385,188.495647,1007.417481,-1261.230733,0
0.096875,-15.461196,-152.416404,154.246184,3.241687,-3.707784,5.861228,-1.010346,4.214934,-5.727455,0.628555,0.037267,0.211406,0.003860,-5.633952,188.495660,1007.040130,-1260.932957,0
0.097917,34.733072,-201.052491,90.486362,2.048201,-5.146217,4.550346,1.525833,5.685925,-4.453144,-1.884620,-0.024718,0.193285,-0.025873,41.763595,188.495758,1007.156953,-1261.512883,0
0.098958,108.103487,-174.978569,43.301421,1.102420,-5.604902,2.598589,3.725659,6.126852,-2.446874,-4.058898,-0.101287,0.194870,-0.003573,102.310864,188.571116,1007.023174,-1261.523068,0
0.100000,179.620714,-127.035437,-1.720523,0.246713,-5.285657,0.509501,5.233449,5.782262,-0.387692,-5.494454,-0.079410,0.203275,-0.022156,153.243525,188.495635,1007.433494,-1262.078637,0
0.101042,190.773741,-71.305365,-62.077876,-0.890476,-3.704115,-2.099778,6.026005,4.174176,2.324079,-6.271254,-0.108580,0.206445,-0.037023,153.277300,188.495680,1007.537673,-1262.531574,0
0.102083,168.591987,-24.912575,-144.684940,-2.489297,-1.997810,-4.088989,6.114926,2.529038,4.184839,-6.275062,-0.086703,0.194870,-0.014723,126.426196,188.495615,1008.302829,-1263.515119,0
0.103125,115.335439,21.433235,-188.880570,-3.345004,0.269925,-5.175148,4.715388,0.135436,5.287185,-4.793811,-0.050241,0.225530,-0.033307,77.610100,188.646538,1008.638543,-1263.763321,0
0.104167,59.626807,88.767378,-194.336671,-3.423819,2.691777,-6.248823,3.327448,-2.232230,6.318981,-3.392526,-0.042949,0.214782,-0.029590,39.388088,188.495586,1008.782700,-1263.999670,0
0.105208,15.534499,152.613253,-153.519205,-2.680705,4.654945,-5.816024,0.988442,-4.166379,5.816311,-1.058319,0.015390,0.207547,-0.003573,5.860797,188.495638,1009.542656,-1264.763366,0
0.106250,-34.603270,201.014439,-89.698626,-1.475960,6.100717,-4.542596,-1.582532,-5.596612,4.515543,1.542437,0.037267,0.205273,-0.011006,-41.086416,188.495673,1009.867351,-1264.641985,0
0.107292,-108.346583,174.658637,-42.416471,-0.597734,6.548393,-2.615808,-3.824886,-6.070886,2.460770,3.655790,0.088314,0.191907,-0.018440,-102.421769,188.571156,1010.767804,-1265.075637,0
0.108333,-179.603912,126.551075,2.532562,0.336788,6.210801,-0.464297,-5.352006,-5.659602,0.366313,5.110385,0.091960,0.199761,-0.022156,-152.498797,188.495506,1011.746038,-1266.124897,0
0.109375,-190.711738,70.315967,62.476759,1.462718,4.607241,2.153305,-6.082704,-4.103390,-2.301364,5.898608,0.150299,0.203964,-0.014723,-152.543830,188.571067,1013.186282,-1267.476104,0
0.110417,-168.631684,24.252038,144.792183,3.050279,2.900937,4.179970,-6.206420,-2.428609,-4.175352,5.841491,0.124775,0.211406,-0.055607,-126.345709,188.495703,1014.130363,-1267.989823,0
