1-Time,2-VGERA,3-VGERB,4-VGERC,5-VN,6-IGERAN,7-IGERBN,8-IGERCN,9-IGERAT,10-IGERBT,11-IGERCT,12-IN,13-IFD,14-IFAULT,15-VFAULT,16-Speed (rad/s),17-Active Power,18-Reactive Power,19-FAULT 
0.000000,61.581695,87.945227,-199.087974,-3.525153,0.471690,-6.081099,5.117208,-0.037613,6.018619,-5.075442,0.003945,0.331223,-0.056273,34.006609,188.495687,1494.460949,-897.892397,0
0.001042,10.799830,152.190432,-164.200525,-2.950928,2.864186,-6.382803,3.149040,-2.293607,6.547055,-3.201869,-0.021578,0.323781,-0.104590,144.608390,188.646511,1494.968351,-898.278666,0
0.002083,-37.654250,200.720814,-95.665096,-1.588553,5.036514,-5.867895,0.526078,-4.317473,5.934070,-0.522093,-0.101794,0.327226,-0.082290,242.814756,188.495716,1494.274685,-898.197509,0
0.003125,-109.386176,183.314709,-42.635201,-0.575216,6.313490,-4.455919,-1.915207,-5.670344,4.661596,1.960864,-0.130964,0.320957,-0.041406,292.182509,188.495629,1494.110673,-898.207830,0
0.004167,-176.790230,134.643387,6.396794,0.438121,6.720802,-2.557194,-4.034772,-6.025790,2.678905,4.148591,-0.160133,0.322472,-0.071140,312.560077,188.495649,1494.426973,-898.715367,0
0.005208,-197.525593,75.072696,62.865612,1.519014,5.770408,0.214461,-5.590381,-5.267747,0.066319,5.723149,-0.203887,0.327020,-0.074856,267.346645,188.567885,1494.466397,-897.732993,0
0.006250,-173.377653,23.559082,145.302553,3.061538,4.574160,2.531549,-6.389003,-3.951146,-2.288391,6.620193,-0.225764,0.327433,-0.074856,194.471510,188.495247,1495.009434,-897.413854,0
0.007292,-123.895280,-25.041770,188.854145,3.917245,2.332112,4.337752,-5.775843,-2.028836,-4.076618,6.078938,-0.222118,0.352513,-0.093440,93.439305,188.495383,1495.072236,-897.012228,0
0.008333,-62.321987,-88.206434,199.085852,4.164950,-0.397976,6.208318,-4.886383,0.742192,-5.957849,5.144045,-0.192949,0.315513,-0.067423,-32.169823,188.495470,1495.650864,-897.167346,0
0.009375,-11.562722,-152.439894,164.380678,3.444354,-2.750108,6.538181,-2.850086,2.947408,-6.405963,3.228837,-0.152841,0.327226,-0.071140,-143.345779,188.646150,1495.522451,-896.678775,0
0.010417,37.806652,-201.040746,97.072568,2.239609,-4.962800,6.023272,-0.276328,4.993036,-5.885982,0.628546,-0.065333,0.327709,-0.112023,-242.666719,188.495434,1496.113814,-896.931335,0
0.011458,110.058374,-183.106116,44.249251,1.147457,-6.144370,4.514752,2.138462,6.280621,-4.516277,-1.899831,-0.032517,0.322541,-0.071140,-292.619905,188.495454,1495.243692,-897.621521,0
0.012500,177.236430,-135.644530,-5.560451,0.156639,-6.628740,2.575799,4.212608,6.694099,-2.656183,-4.079988,0.007591,0.328467,-0.093440,-321.283600,188.495363,1496.574129,-897.588740,0
0.013542,197.384197,-76.402699,-62.843431,-0.924254,-5.722381,-0.135515,5.787142,5.867143,0.036726,-5.665901,0.047699,0.330258,-0.052556,-267.040992,188.646230,1496.845364,-897.473434,0
0.014583,173.631754,-23.902504,-145.462647,-2.500556,-4.438065,-2.416399,6.581979,4.615828,2.344934,-6.540235,0.062284,0.340180,-0.089723,-193.062540,188.495405,1497.845066,-897.554127,0
0.015625,124.420579,25.062443,-188.686143,-3.367522,-2.236381,-4.230647,5.987744,2.595589,4.171208,-6.010335,0.054991,0.344383,-0.093440,-91.805169,188.495421,1497.441542,-897.952592,0
0.016667,61.886793,88.391538,-199.245946,-3.513893,0.486367,-6.085122,5.094498,-0.059375,6.052439,-5.128431,0.014883,0.328398,-0.074856,34.456942,188.495493,1498.372606,-898.514743,0
0.017708,10.754630,152.343118,-163.884581,-2.928410,2.809144,-6.382803,3.073342,-2.300861,6.466733,-3.145094,-0.025225,0.334737,-0.074856,144.968656,188.721514,1497.029646,-898.298064,0
0.018750,-37.914148,201.084909,-95.519276,-1.599812,5.062200,-5.847781,0.533648,-4.342862,5.950980,-0.544803,-0.068979,0.324195,-0.056273,243.355155,188.495434,1497.684126,-898.322641,0
0.019792,-109.849473,183.032829,-42.428623,-0.552697,6.302482,-4.367419,-1.953056,-5.630447,4.610866,1.987359,-0.127317,0.315927,-0.089723,292.283834,188.570836,1496.854030,-898.186579,0
0.020833,-177.061428,134.431977,6.603372,0.393084,6.676768,-2.476740,-4.019632,-5.989520,2.691588,4.144806,-0.174718,0.318683,-0.041406,312.289877,188.495336,1496.720772,-897.743210,0
0.021875,-197.412594,74.685111,63.242314,1.451458,5.785086,0.266757,-5.548747,-5.231477,0.053636,5.700439,-0.225764,0.319923,-0.071140,266.119488,188.721617,1496.203617,-897.362003,0
0.022917,-173.129054,22.713441,145.460525,3.095316,4.508110,2.539595,-6.362509,-3.903995,-2.296846,6.597483,-0.247641,0.309726,-0.082290,192.613886,188.495410,1495.600296,-897.070342,0
0.023958,-123.194684,-25.511570,188.866296,3.928504,2.262392,4.261320,-5.737994,-1.927280,-4.055481,6.071368,-0.229410,0.299735,-0.071140,91.784331,188.495316,1494.641875,-897.186863,0
0.025000,-60.593098,-88.664489,199.134459,4.153690,-0.453018,6.168090,-4.912877,0.716803,-5.953622,5.132690,-0.167425,0.314893,-0.056273,-34.027447,188.495477,1494.822562,-896.160425,0
0.026042,-10.263231,-152.663049,163.809549,3.478132,-2.742769,6.501976,-2.838731,2.987305,-6.414418,3.213697,-0.141902,0.322748,-0.041406,-144.313995,188.721545,1494.919585,-896.073834,0
0.027083,38.495947,-201.428331,95.991069,2.217091,-4.984817,5.983045,-0.276328,4.996663,-5.852162,0.590696,-0.061686,0.326124,-0.063706,-243.488576,188.495320,1494.581126,-895.824388,0
0.028125,110.386072,-183.047391,43.629516,1.203754,-6.199412,4.522797,2.153602,6.302383,-4.541642,-1.869551,-0.058040,0.319303,-0.059989,-293.036463,188.495356,1495.302737,-895.307422,0
0.029167,178.083925,-134.787144,-5.815636,0.212935,-6.639749,2.591890,4.265597,6.665083,-2.618135,-4.045923,-0.006994,0.330603,-0.078573,-321.947841,188.495450,1494.884254,-894.645787,0
0.030208,197.237298,-76.097329,-63.475318,-0.912995,-5.700364,-0.183788,5.790927,5.856262,0.066319,-5.669686,0.044053,0.331016,-0.056273,-266.939667,188.721614,1494.778685,-894.692113,0
0.031250,173.417055,-24.184384,-146.276809,-2.534334,-4.416048,-2.476740,6.669033,4.583185,2.408346,-6.540235,0.018530,0.327226,-0.071140,-193.434065,188.570750,1494.548190,-895.525157,0
0.032292,124.284980,25.250363,-188.795508,-3.423819,-2.181339,-4.250760,6.025593,2.548438,4.188118,-6.036830,0.054991,0.348172,-0.078573,-91.568744,188.495417,1494.562696,-896.064770,0
0.033333,62.248390,89.354628,-198.869244,-3.570190,0.512054,-6.125349,5.151273,-0.055748,6.060894,-5.117077,0.014883,0.335770,-0.048839,34.929792,188.495414,1494.731278,-896.007275,0
0.034375,11.184028,152.906878,-163.204088,-2.883372,2.878864,-6.423031,3.107406,-2.351639,6.534373,-3.160234,-0.028871,0.337906,-0.067423,145.621639,188.721563,1495.521335,-896.801723,0
0.035417,-38.490444,201.801355,-95.458518,-1.644849,5.106234,-5.888008,0.507154,-4.379132,6.010164,-0.506953,-0.120025,0.315031,-0.048839,244.345888,188.570774,1496.466582,-897.559064,0
0.036458,-110.663067,182.234168,-42.525836,-0.597734,6.309821,-4.387533,-2.002260,-5.648582,4.598184,2.055489,-0.138256,0.320543,-0.074856,292.632842,188.495347,1496.294325,-898.207403,0
0.037500,-178.779017,134.009157,6.846406,0.381825,6.783183,-2.456626,-4.083976,-6.043925,2.678905,4.220506,-0.171072,0.323988,-0.078573,312.773985,188.570729,1497.489789,-899.231372,0
0.038542,-196.711999,74.297526,63.983566,1.496495,5.785086,0.319052,-5.673650,-5.267747,-0.052051,5.802634,-0.203887,0.325366,-0.093440,265.128755,188.721556,1497.848764,-900.890287,0
0.039583,-173.321153,22.654716,146.529872,3.106575,4.537465,2.624072,-6.441992,-3.962027,-2.372941,6.665613,-0.240349,0.321232,-0.052556,192.253620,188.570808,1499.437499,-902.006676,0
0.040625,-122.595788,-25.828685,189.036420,3.872208,2.211020,4.398093,-5.821262,-1.876502,-4.131575,6.147068,-0.218472,0.301182,-0.067423,89.971741,188.495428,1500.118589,-903.183369,0
0.041667,-60.367100,-89.615835,199.304582,4.187468,-0.493382,6.252568,-4.901523,0.800224,-6.080447,5.170540,-0.211179,0.295257,-0.086006,-35.704937,188.570877,1501.387662,-904.949444,0
0.042708,-10.003332,-152.944930,162.557927,3.478132,-2.849183,6.550249,-2.865226,2.998186,-6.418645,3.164492,-0.174718,0.326331,-0.033973,-145.755060,188.721628,1500.835824,-904.818412,0
0.043750,39.038343,-202.614577,94.727296,2.172053,-5.039859,6.027295,-0.287683,5.058322,-5.966304,0.613406,-0.127317,0.335977,-0.056273,-244.580634,188.570893,1503.052190,-904.993737,0
0.044792,110.657270,-181.872890,42.353591,1.192494,-6.261793,4.498661,2.199021,6.342280,-4.486684,-1.956606,-0.058040,0.318958,-0.067423,-292.608647,188.570839,1502.378008,-905.573531,0
0.045833,179.134818,-133.777073,-6.629798,0.145379,-6.665435,2.579822,4.254242,6.719488,-2.596998,-4.136763,-0.017932,0.330189,-0.059989,-321.542541,188.571067,1503.313238,-906.416073,0
0.046875,196.593202,-74.429537,-63.949233,-0.935513,-5.718711,-0.175743,5.855271,5.896159,0.070546,-5.707536,0.036760,0.330465,-0.074856,-265.836351,188.721483,1503.878448,-905.995656,0
0.047917,173.383156,-22.974648,-146.908696,-2.511815,-4.419718,-2.464672,6.665248,4.590439,2.450621,-6.608364,0.058637,0.351135,-0.059989,-193.220157,188.570821,1504.919717,-906.448884,0
0.048958,123.188887,25.731909,-188.904873,-3.345004,-2.203356,-4.262829,6.044518,2.548438,4.230393,-6.086035,0.058637,0.354993,-0.071140,-90.972053,188.570754,1505.608285,-906.538664,0
0.050000,61.683394,90.082819,-199.136581,-3.615227,0.556087,-6.177645,5.177767,-0.121034,6.111624,-5.158711,-0.003348,0.341902,-0.059989,35.391383,188.570788,1506.468669,-907.349481,0
0.051042,11.285727,153.130033,-162.803083,-2.917150,2.871525,-6.499462,3.099836,-2.355266,6.521690,-3.164019,-0.039809,0.328536,-0.104590,145.632898,188.721637,1506.379048,-907.185469,0
0.052083,-38.671243,202.294646,-95.409911,-1.611071,5.131920,-5.888008,0.514724,-4.433537,6.005937,-0.529663,-0.112733,0.323575,-0.067423,244.829996,188.570830,1506.940687,-907.562858,0
0.053125,-111.318463,181.799603,-42.732415,-0.563957,6.350185,-4.419715,-2.002260,-5.692106,4.598184,1.987359,-0.116379,0.324746,-0.071140,292.824234,188.570676,1507.594339,-907.049498,0
0.054167,-179.558712,133.915197,6.627676,0.393084,6.720802,-2.456626,-4.065051,-6.040298,2.649313,4.175086,-0.163779,0.328260,-0.063706,313.348159,188.649997,1507.474485,-906.756808,0
0.055208,-196.565100,74.567661,64.506088,1.496495,5.752061,0.286870,-5.620661,-5.253239,-0.009776,5.779924,-0.233057,0.330809,-0.078573,265.106238,188.723089,1507.570504,-906.095142,0
0.056250,-173.264654,22.948341,147.113152,3.129094,4.519118,2.575799,-6.457132,-3.994670,-2.343349,6.654258,-0.225764,0.337286,-0.056273,192.388720,188.570758,1508.048996,-905.630264,0
0.057292,-122.753987,-26.075331,189.121481,3.951023,2.255053,4.390047,-5.794768,-1.967177,-4.114665,6.097863,-0.200241,0.349826,-0.059989,89.679024,188.570788,1508.347713,-904.590031,0
0.058333,-60.536598,-90.250066,199.328886,4.198728,-0.431001,6.264636,-4.935587,0.756700,-6.017034,5.174325,-0.236703,0.335908,-0.086006,-36.515537,188.646190,1508.422224,-903.538258,0
0.059375,-10.138932,-153.273790,162.497169,3.478132,-2.867531,6.562317,-2.838731,3.038083,-6.418645,3.187202,-0.192949,0.308761,-0.056273,-146.149102,188.721677,1508.727387,-903.891380,0
0.060417,39.332142,-202.908203,94.472111,2.138276,-5.069214,5.983045,-0.276328,5.123608,-5.898665,0.552846,-0.112733,0.311448,-0.082290,-245.301167,188.570770,1507.969330,-904.877270,0
0.061458,111.222266,-181.966850,41.818917,1.147457,-6.236107,4.510729,2.206591,6.320518,-4.516277,-1.930111,-0.028871,0.318821,-0.089723,-292.957655,188.570790,1508.517273,-904.063772,0
0.062500,179.767614,-133.319018,-6.970045,0.179157,-6.694791,2.583845,4.265597,6.719488,-2.584315,-4.132978,0.007591,0.326124,-0.082290,-320.844525,188.721538,1508.665084,-903.841326,0
0.063544,196.446303,-73.290271,-64.763395,-0.924254,-5.729720,-0.175743,5.870411,5.863516,0.121276,-5.737816,0.036760,0.331705,-0.059989,-263.989986,188.721503,1508.400621,-903.977898,0
0.064584,173.044158,-21.612227,-147.406915,-2.511815,-4.467421,-2.557194,6.703097,4.597693,2.442166,-6.589440,0.054991,0.311517,-0.074856,-191.351275,188.577011,1508.638427,-903.090885,0
0.065625,122.002395,26.671510,-189.111452,-3.356263,-2.166661,-4.299033,6.044518,2.537557,4.217710,-6.051970,0.025822,0.363606,-0.093440,-89.035621,188.570540,1508.322219,-902.232763,0
0.066667,60.033605,90.634835,-199.148733,-3.558930,0.530401,-6.185690,5.151273,-0.113780,6.162354,-5.120861,0.033114,0.339077,-0.071140,36.607282,188.721424,1508.501101,-901.921569,0
0.067708,10.178334,153.552854,-162.049679,-2.815817,2.897211,-6.479349,3.046847,-2.348012,6.563965,-3.152664,-0.036163,0.323161,-0.078573,146.634888,188.721449,1509.009860,-901.474824,0
0.068750,-39.292739,202.682231,-94.960300,-1.566034,5.135590,-5.916168,0.492014,-4.477061,6.031302,-0.529663,-0.094502,0.332945,-0.097156,245.336620,188.570779,1509.768707,-901.691854,0
0.069792,-111.725260,181.259332,-42.671656,-0.608994,6.331838,-4.435806,-2.013615,-5.702987,4.644686,2.010069,-0.152841,0.327089,-0.067423,293.161983,188.495349,1510.286397,-901.680951,0
0.070833,-180.225408,133.926942,6.858558,0.359306,6.794191,-2.525013,-4.076406,-6.101957,2.725408,4.224291,-0.196595,0.329569,-0.056273,313.843526,188.646105,1511.991021,-901.985255,0
0.071875,-196.192202,74.849541,65.113672,1.541533,5.840128,0.306984,-5.643370,-5.285882,-0.009776,5.783709,-0.214826,0.332463,-0.086006,265.263855,188.721590,1512.470315,-901.974318,0
0.072917,-173.524552,23.007066,147.915163,3.095316,4.548474,2.579822,-6.513906,-4.005551,-2.343349,6.729958,-0.251287,0.340938,-0.071140,192.478786,188.570939,1513.653410,-902.553285,0
0.073960,-122.188991,-26.650836,189.400970,3.917245,2.207350,4.422229,-5.825047,-1.945415,-4.169623,6.116788,-0.240349,0.348517,-0.074856,88.114117,188.495446,1514.023966,-903.035545,0
0.075000,-60.875596,-91.025236,199.316734,4.119912,-0.478704,6.292795,-4.965866,0.756700,-6.071992,5.231100,-0.182010,0.337837,-0.071140,-36.864545,188.721565,1515.318354,-903.472009,0
0.076042,-10.410130,-153.673120,161.755917,3.410576,-2.834505,6.602545,-2.887936,3.019948,-6.456693,3.217482,-0.149195,0.337561,-0.071140,-146.757051,188.721487,1515.973401,-903.145888,0
0.077083,39.648539,-203.342768,94.496414,2.115757,-5.091231,6.035341,-0.227124,5.130862,-5.974759,0.541491,-0.101794,0.331705,-0.067423,-245.650175,188.570794,1517.020140,-903.442997,0
0.078125,111.719463,-181.144699,42.001192,1.136198,-6.291149,4.522797,2.263365,6.385804,-4.558551,-1.998241,-0.101794,0.321232,-0.059989,-293.013946,188.495334,1517.680011,-904.407143,0
0.079167,180.208311,-133.342508,-7.042955,0.122861,-6.716808,2.555686,4.337511,6.806536,-2.630818,-4.151903,0.000299,0.325986,-0.100873,-320.686908,188.740282,1519.215223,-904.731601,0
0.080208,195.971706,-73.337251,-64.812002,-0.969291,-5.766414,-0.171720,5.893120,5.896159,0.095911,-5.718891,0.022176,0.327158,-0.048839,-263.404553,188.520121,1519.475568,-904.240791,0
0.081250,173.202357,-21.706187,-147.577038,-2.511815,-4.489438,-2.512944,6.680387,4.644844,2.459076,-6.634859,0.062284,0.329707,-0.082290,-190.619484,188.591424,1520.456795,-904.654147,0
0.082292,121.572998,26.835940,-189.123604,-3.311226,-2.188678,-4.331215,6.074797,2.537557,4.234620,-6.093605,0.007591,0.340042,-0.097156,-87.425680,188.508489,1520.957572,-904.767739,0
0.083333,59.525108,91.081145,-199.318856,-3.513893,0.508384,-6.209826,5.173982,-0.088391,6.149672,-5.173851,0.007591,0.327295,-0.074856,38.386097,188.729513,1521.835637,-904.099443,0
0.084375,9.432539,153.529364,-161.405640,-2.815817,2.926567,-6.471303,3.130116,-2.340758,6.547055,-3.114814,-0.050748,0.290916,-0.063706,147.726946,188.591508,1521.286734,-903.623901,0
0.085417,-39.631737,203.187266,-93.477796,-1.532256,5.124581,-5.940304,0.484444,-4.466180,6.022847,-0.495598,-0.094502,0.308141,-0.074856,245.955828,188.578195,1521.136478,-903.175172,0
0.086458,-111.747860,181.024432,-41.480792,-0.496401,6.320829,-4.455919,-2.009830,-5.746511,4.610866,2.032779,-0.156487,0.322610,-0.048839,293.218275,188.496340,1521.111974,-903.345666,0
0.087500,-180.519206,132.752441,7.405383,0.483158,6.783183,-2.472717,-4.065051,-6.083822,2.733863,4.167516,-0.171072,0.327778,-0.082290,313.517034,188.721456,1521.005570,-901.947212,0
0.088550,-195.423807,73.158260,66.681237,1.507755,5.807103,0.306984,-5.669865,-5.271374,-0.056278,5.832914,-0.214826,0.334530,-0.067423,263.496298,188.721610,1521.126836,-901.769000,0
0.089596,-172.959556,21.491960,149.604245,3.151613,4.515449,2.688436,-6.479842,-3.983789,-2.440581,6.741313,-0.233057,0.344658,-0.071140,190.823813,188.570716,1521.604821,-902.211450,0
0.090628,-122.188991,-26.733051,189.303756,3.928504,2.236706,4.418206,-5.821262,-1.941788,-4.148485,6.113003,-0.189302,0.348999,-0.059989,88.665775,188.495255,1521.459612,-901.961519,0
0.091670,-60.660898,-92.152757,199.049397,4.198728,-0.467695,6.296818,-4.943157,0.767581,-6.110039,5.208390,-0.203887,0.336804,-0.093440,-37.832761,188.721692,1521.738615,-902.106928,0
0.092712,-10.387530,-154.272116,161.282002,3.444354,-2.852853,6.582431,-2.884151,3.016321,-6.477830,3.206127,-0.160133,0.327295,-0.082290,-147.522617,188.721645,1521.983691,-902.065870,0
0.093754,40.360435,-203.648138,94.107560,2.149535,-5.094901,6.051432,-0.219554,5.141743,-5.924030,0.552846,-0.101794,0.317580,-0.078573,-246.528324,188.570707,1521.856875,-901.693208,0
0.094801,113.403152,-180.169863,41.332850,1.091161,-6.269132,4.454411,2.304999,6.335026,-4.486684,-2.002026,-0.061686,0.324126,-0.067423,-294.241104,188.495436,1521.107737,-900.744866,0
0.095846,182.197097,-131.886127,-8.270274,0.156639,-6.687452,2.535572,4.341296,6.744877,-2.571633,-4.193538,-0.014286,0.329500,-0.071140,-320.844525,188.721612,1520.876594,-900.435474,0
0.096890,195.180712,-71.610735,-66.950696,-1.003069,-5.682016,-0.288379,5.949894,5.852635,0.205826,-5.783236,0.033114,0.325159,-0.078573,-261.130371,188.646076,1520.598942,-900.879872,0
0.097926,172.806860,-20.942761,-148.962329,-2.534334,-4.427057,-2.581331,6.703097,4.583185,2.526716,-6.631074,0.065930,0.343762,-0.063706,-189.369810,188.570718,1520.377194,-901.386017,0
0.098962,121.166201,27.200035,-189.500305,-3.322485,-2.067586,-4.387533,6.002884,2.501287,4.255758,-6.036830,0.033114,0.347276,-0.063706,-86.288590,188.495403,1519.698288,-901.498795,0
0.100003,59.457309,91.868061,-199.075823,-3.581449,0.585443,-6.242008,5.102068,-0.142796,6.187719,-5.147356,0.000299,0.336941,-0.086006,39.320538,188.721610,1519.604620,-902.218582,0
0.101045,9.319540,154.551179,-160.202625,-2.782039,2.992617,-6.515553,3.039277,-2.424179,6.525918,-3.061824,-0.047102,0.327571,-0.048839,149.595828,188.646198,1519.024835,-902.857656,0
0.102083,-40.027234,203.422166,-93.052487,-1.554775,5.161276,-5.892031,0.420100,-4.491569,5.993255,-0.450178,-0.105440,0.318545,-0.045123,246.428678,188.570886,1518.657153,-903.248231,0
0.103125,-112.414556,180.495907,-40.678782,-0.586475,6.372202,-4.323169,-2.066604,-5.713868,4.547454,2.085769,-0.149195,0.317649,-0.078573,293.195758,188.495341,1517.745677,-903.187292,0
0.104167,-181.140702,132.165190,8.183090,0.438121,6.753827,-2.420422,-4.125610,-6.109211,2.623948,4.254571,-0.178364,0.320681,-0.104590,312.695177,188.646174,1517.495866,-904.598175,0
0.105208,-195.514207,72.171679,65.818469,1.586570,5.770408,0.347211,-5.658510,-5.206088,-0.102781,5.802634,-0.207533,0.327158,-0.063706,262.933382,188.570807,1516.035000,-904.489934,0
0.106250,-172.891756,20.799005,148.376926,3.151613,4.497101,2.636140,-6.479842,-3.947519,-2.402533,6.680753,-0.240349,0.328949,-0.059989,191.094012,188.570877,1514.744987,-903.537998,0
0.107292,-120.640901,-27.238087,189.461728,3.996060,2.181664,4.414184,-5.806123,-1.836605,-4.140030,6.094078,-0.203887,0.328398,-0.078573,87.877692,188.495329,1513.634984,-903.487642,0
0.108333,-59.304907,-91.823897,199.122307,4.153690,-0.541085,6.300840,-4.867458,0.843748,-6.067764,5.181895,-0.218472,0.319510,-0.059989,-37.618852,188.646274,1512.616331,-903.460877,0
0.109375,-9.856433,-154.213391,160.880996,3.421836,-2.900556,6.550249,-2.816022,3.038083,-6.380598,3.134212,-0.160133,0.336115,-0.063706,-147.342484,188.573993,1510.934811,-903.219481,0
