1-Time,2-VGERA,3-VGERB,4-VGERC,5-VN,6-IGERAN,7-IGERBN,8-IGERCN,9-IGERAT,10-IGERBT,11-IGERCT,12-IN,13-IFD,14-IFAULT,15-VFAULT,16-Speed (rad/s),17-Active Power,18-Reactive Power,19-FAULT 
0.000000,-124.426376,-72.656041,188.623263,3.984801,6.016319,-0.878728,-5.294014,-6.150463,0.735996,5.373772,0.099252,0.629835,0.000144,0.603160,188.420285,1598.007615,895.320651,0
0.001042,-46.061394,-125.238451,188.939206,4.018579,4.662283,1.680442,-6.206420,-4.806005,-1.740103,6.192458,0.143006,0.630869,0.003860,0.985943,188.495662,1597.594960,896.050079,0
0.002083,27.512420,-170.938285,159.848104,3.500651,2.842225,3.957532,-6.492513,-2.967818,-4.060907,6.504701,0.110191,0.641479,0.003860,1.019718,188.269518,1597.798832,896.314083,0
0.003125,94.837375,-179.676573,103.561561,2.363462,0.453398,5.453789,-5.367470,-0.347264,-5.471507,5.267152,0.113837,0.628388,0.003860,1.064751,188.495537,1598.351778,895.505057,0
0.004167,141.619066,-184.386322,15.692823,0.640789,-2.107894,6.389971,-3.685705,2.185940,-6.381711,3.565047,0.084667,0.618605,-0.040740,0.985943,188.420235,1598.626812,895.570537,0
0.005208,168.671087,-145.698258,-60.145760,-0.777883,-4.129773,6.238710,-1.497478,4.236809,-6.062493,1.272726,0.048206,0.614402,0.003860,0.783293,188.495609,1598.903989,895.593113,0
0.006250,193.903820,-65.961385,-111.304298,-1.791220,-5.795714,5.028623,1.239740,5.987643,-4.910718,-1.453688,-0.035656,0.596625,-0.018440,0.648193,188.269570,1599.655817,894.350013,0
0.007292,169.755880,5.283846,-158.234054,-2.748261,-6.371821,3.409722,3.273323,6.542137,-3.198155,-3.464229,-0.057533,0.596901,-0.029590,0.141568,188.495745,1600.448963,893.057603,0
0.008333,123.889483,73.322690,-188.333745,-3.356263,-6.063586,0.854640,5.326236,6.249699,-0.648722,-5.459538,-0.108580,0.626252,-0.007290,-0.128631,188.420216,1601.634644,892.427897,0
0.009375,44.959504,125.153419,-189.135755,-3.367522,-4.738906,-1.663650,6.238642,4.829282,1.844632,-6.262993,-0.126811,0.597383,-0.022156,-0.432606,188.495633,1602.710197,891.090276,0
0.010417,-28.727309,170.547883,-160.020350,-2.827076,-2.860136,-3.969356,6.513137,2.983500,4.122298,-6.518118,-0.115872,0.608338,-0.003573,-0.545189,188.344903,1603.194635,890.201392,0
0.011458,-94.820572,180.084831,-101.996117,-1.678627,-0.441953,-5.490142,5.345566,0.412318,5.537212,-5.280569,-0.083057,0.623083,-0.014723,-0.477639,188.495694,1603.793153,889.991837,0
0.012500,-141.105066,184.489210,-14.285351,0.032786,2.163372,-6.352738,3.598077,-2.189248,6.425847,-3.551809,-0.057533,0.612266,-0.007290,-0.398831,188.420289,1605.105548,888.793371,0
0.013542,-168.315286,144.861546,60.605402,1.428940,4.166905,-6.099273,1.340259,-4.224925,6.085060,-1.202371,-0.013779,0.609510,-0.018440,-0.263731,188.495781,1605.789713,887.467394,0
0.014583,-194.248615,65.206888,111.192811,2.487314,5.840184,-4.954596,-1.358297,-5.956770,4.911717,1.485965,0.008098,0.608476,-0.014723,-0.117373,188.344838,1606.770994,886.450307,0
0.015625,-169.422679,-5.615523,158.608634,3.410576,6.412622,-3.298903,-3.391880,-6.515062,3.220722,3.526969,0.070083,0.617295,-0.003573,0.344218,188.495750,1608.018190,886.465009,0
0.016667,-123.895280,-73.043626,188.611111,3.984801,6.027327,-0.751996,-5.367470,-6.184644,0.658348,5.499431,0.113837,0.620672,0.003860,0.648193,188.420280,1609.882510,885.957895,0
0.017708,-44.954001,-125.285431,189.157936,3.984801,4.680631,1.745853,-6.256679,-4.749036,-1.860889,6.295270,0.121129,0.625288,0.033594,0.974684,188.495564,1611.641037,884.955888,0
0.018750,28.179115,-170.668150,160.455688,3.444354,2.827547,4.076088,-6.558237,-2.888062,-4.173065,6.516124,0.146652,0.629697,-0.011006,1.019718,188.420198,1613.124867,883.703322,0
0.019792,94.701776,-179.841003,103.160556,2.329684,0.376339,5.511023,-5.386801,-0.328274,-5.566410,5.267152,0.128422,0.628664,0.003860,1.019718,188.495609,1614.275853,883.565388,0
0.020833,141.426967,-184.656457,16.008766,0.685826,-2.203300,6.430852,-3.681839,2.250504,-6.433476,3.561239,0.102898,0.618811,0.000144,0.963426,188.420263,1615.581090,883.105814,0
0.021875,168.625887,-145.592553,-59.380205,-0.777883,-4.214171,6.201917,-1.451084,4.308969,-6.122885,1.272726,0.015390,0.618260,-0.018440,0.794551,188.495740,1616.908361,883.064052,0
0.022917,194.276718,-66.536890,-110.866838,-1.802480,-5.869104,5.012270,1.290000,6.071197,-4.932287,-1.503190,-0.024718,0.613850,-0.011006,0.704485,188.495778,1618.626610,882.684555,0
0.023958,169.744580,4.262030,-158.428481,-2.748261,-6.459889,3.385194,3.339047,6.614298,-3.224037,-3.555617,-0.061180,0.624392,-0.007290,0.152827,188.495807,1620.558793,882.555039,0
0.025000,124.782177,72.242149,-188.576778,-3.333744,-6.125967,0.821935,5.326236,6.264890,-0.648722,-5.505232,-0.075764,0.630180,-0.014723,-0.139890,188.495609,1621.689133,882.124250,0
0.026042,46.733593,124.918519,-188.977783,-3.333744,-4.808626,-1.708619,6.281169,4.878655,1.853260,-6.316302,-0.137749,0.631007,-0.018440,-0.410089,188.495651,1622.993811,882.188297,0
0.027083,-26.896721,170.665333,-160.251232,-2.849594,-2.929856,-4.030678,6.536333,2.998691,4.165436,-6.495271,-0.119518,0.638310,0.007577,-0.522673,188.495582,1623.670433,881.338828,0
0.028125,-94.153876,179.720736,-103.114071,-1.701146,-0.430945,-5.490142,5.353299,0.400924,5.588977,-5.257722,-0.112226,0.627837,-0.022156,-0.466381,188.495678,1624.467237,880.376252,0
0.029167,-141.263265,184.500955,-15.622035,-0.000992,2.145025,-6.352738,3.625140,-2.177854,6.430161,-3.544194,-0.061180,0.612404,-0.018440,-0.466381,188.495787,1624.719293,879.994462,0
0.030208,-168.303986,145.801147,60.009970,1.462718,4.207269,-6.205565,1.367322,-4.243915,6.063491,-1.206179,-0.024718,0.612266,0.018727,-0.274990,188.495649,1625.143839,879.450508,0
0.031250,-194.169515,66.099509,110.937626,2.431017,5.865871,-4.962773,-1.385360,-5.994749,4.868579,1.508812,0.062790,0.593043,-0.007290,-0.094856,188.495693,1625.782478,878.473538,0
0.032292,-169.919876,-5.204448,158.268387,3.388058,6.423630,-3.335696,-3.391880,-6.515062,3.216408,3.546008,0.091960,0.600691,-0.011006,0.332960,188.495801,1626.184454,878.060080,0
0.033333,-124.109978,-72.785236,188.914903,4.007319,6.008980,-0.760173,-5.359738,-6.188442,0.641093,5.480392,0.117483,0.628113,-0.003573,0.603160,188.495562,1626.257956,877.871909,0
0.034375,-45.146100,-124.803885,189.558942,4.041097,4.728334,1.766293,-6.272144,-4.768026,-1.886771,6.276230,0.139360,0.589804,-0.014723,0.985943,188.495705,1626.474406,877.601630,0
0.035417,28.506813,-170.738620,160.382778,3.500651,2.834886,4.055647,-6.554371,-2.846285,-4.190320,6.554203,0.132068,0.599037,-0.033307,1.030976,188.495779,1627.010575,877.460840,0
0.036458,94.396678,-180.216843,102.941826,2.352202,0.343314,5.515111,-5.352006,-0.309284,-5.570724,5.236690,0.124775,0.627975,-0.003573,1.019718,188.495683,1627.051737,876.943911,0
0.037500,140.963670,-185.091022,15.170301,0.640789,-2.151928,6.439029,-3.701170,2.273291,-6.450731,3.546008,0.081021,0.611921,-0.033307,0.985943,188.495696,1627.350764,876.793422,0
0.038542,168.196490,-145.545573,-59.841968,-0.777883,-4.239858,6.181476,-1.439486,4.335554,-6.131513,1.207993,0.040913,0.611232,0.011294,0.783293,188.497435,1627.754269,876.082083,0
0.039583,194.367117,-65.620780,-110.550894,-1.757442,-5.924146,5.024535,1.367322,6.101580,-4.932287,-1.545077,-0.017425,0.613230,-0.018440,0.636935,188.496816,1628.136912,875.844419,0
0.040627,169.563781,5.436531,-158.404177,-2.759520,-6.503922,3.336136,3.373842,6.648479,-3.202469,-3.616543,-0.046595,0.612335,-0.007290,0.130310,188.495617,1628.816828,875.820284,0
0.041668,124.183281,72.805909,-188.795508,-3.254929,-6.125967,0.760613,5.388094,6.314263,-0.631467,-5.577581,-0.123164,0.632453,-0.014723,-0.094856,188.571093,1629.937316,876.325472,0
0.042709,45.581000,124.918519,-189.488154,-3.299967,-4.793948,-1.745412,6.304366,4.897644,1.887770,-6.339150,-0.119518,0.625150,0.000144,-0.421348,188.495541,1630.399023,876.674529,0
0.043750,-27.665116,170.524393,-160.664388,-2.838335,-2.874814,-4.104265,6.590459,2.953116,4.221515,-6.586659,-0.097641,0.630180,0.000144,-0.500156,188.495676,1631.932110,876.757678,0
0.044792,-93.916578,180.319732,-103.053313,-1.701146,-0.397920,-5.567816,5.380362,0.343955,5.679566,-5.276762,-0.090349,0.627355,-0.007290,-0.455123,188.495895,1633.634664,876.388477,0
0.045834,-141.105066,186.615057,-15.889372,-0.012251,2.222084,-6.438588,3.609676,-2.234823,6.499181,-3.521347,-0.064826,0.618742,-0.003573,-0.432606,188.495705,1635.761540,875.931127,0
0.046875,-168.857683,145.366582,59.268718,1.395162,4.254972,-6.209653,1.386653,-4.323671,6.123884,-1.171908,-0.002841,0.620603,0.015011,-0.274990,188.495591,1637.316126,875.693400,0
0.047917,-194.689312,66.698504,110.512317,2.453536,5.942930,-4.995478,-1.404691,-6.108686,4.937599,1.577354,0.048206,0.614057,0.011294,-0.151148,188.495644,1639.812438,875.704397,0
0.048959,-169.648677,-3.959477,158.851667,3.376799,6.463995,-3.282550,-3.503997,-6.594818,3.156016,3.637396,0.048206,0.624117,0.007577,0.332960,188.495631,1641.837836,874.639597,0
0.050001,-125.070472,-71.904360,189.036420,3.996060,6.130073,-0.735644,-5.464123,-6.215028,0.593641,5.590819,0.099252,0.633694,-0.025873,0.648193,188.496764,1644.010506,873.726396,0
0.051042,-46.592491,-124.862611,189.425273,3.996060,4.669622,1.872585,-6.337868,-4.771824,-1.942850,6.360003,0.113837,0.631282,0.000144,0.940909,188.496677,1645.857656,873.165809,0
0.052084,27.116922,-170.691640,160.917451,2.836352,2.757827,4.149674,-6.565969,-2.831094,-4.285223,6.550395,0.128422,0.640377,0.011294,0.974684,188.495861,1647.316681,871.936240,0
0.053125,93.865581,-180.252078,103.452196,2.385980,0.291941,5.580521,-5.371336,-0.237124,-5.644058,5.263345,0.110191,0.625081,0.026161,1.008459,188.571857,1648.945889,871.125635,0
0.054167,141.065369,-185.314177,16.142435,0.674567,-2.284029,6.488086,-3.643178,2.379633,-6.450731,3.488890,0.070083,0.616055,-0.025873,0.940909,188.496574,1650.148016,869.373523,0
0.055209,168.682387,-145.392888,-59.295143,-0.766624,-4.324255,6.206005,-1.366029,4.403916,-6.066806,1.158491,0.015390,0.617295,0.000144,0.760776,188.496567,1650.641818,867.987129,0
0.056250,194.740015,-66.102325,-110.162041,-1.746183,-5.960840,5.020447,1.436912,6.154751,-4.876208,-1.586963,-0.053887,0.614057,-0.029590,0.659451,188.496798,1651.563954,866.833310,0
0.057293,169.721980,5.201631,-158.039627,-2.748261,-6.507592,3.323872,3.447298,6.671266,-3.180900,-3.643197,-0.042949,0.626321,0.003860,0.096535,188.496320,1652.097098,866.343620,0
0.058334,124.217181,72.571009,-188.831963,-3.356263,-6.100280,0.731996,5.426755,6.291476,-0.571074,-5.600428,-0.108580,0.592423,0.000144,-0.128631,188.496483,1652.500093,865.344684,0
0.059376,45.275902,124.660129,-189.548912,-3.378782,-4.764592,-1.769941,6.288901,4.810292,1.939535,-6.400075,-0.101287,0.622325,0.011294,-0.421348,188.496467,1653.248796,864.096771,0
0.060417,-28.162312,170.430433,-160.615782,-2.815817,-2.849127,-4.153322,6.574995,2.930329,4.230142,-6.571428,-0.123164,0.608476,-0.003573,-0.477639,188.496411,1653.094483,863.841042,0
0.061459,-94.063477,180.202282,-102.664459,-1.644849,-0.309852,-5.633226,5.364897,0.328764,5.670939,-5.257722,-0.086703,0.625632,0.003860,-0.477639,188.498217,1652.788579,863.618358,0
0.062501,-140.664369,185.064716,-15.099513,0.010268,2.251440,-6.442677,3.617408,-2.265206,6.520750,-3.517539,-0.046595,0.611370,-0.025873,-0.432606,188.496849,1652.437736,863.488503,0
0.063542,-168.111888,145.859872,59.681874,1.440199,4.243964,-6.254622,1.355724,-4.323671,6.149766,-1.206179,-0.042949,0.615504,-0.018440,-0.252473,188.496360,1652.503113,863.979590,0
0.064584,-194.508513,65.982058,110.390800,2.431017,5.920913,-4.970949,-1.431753,-6.070707,4.916030,1.581161,0.029975,0.615297,0.018727,-0.106115,188.495890,1651.684933,863.765968,0
0.065625,-170.145874,-4.640687,158.086112,3.399317,6.478673,-3.323432,-3.476934,-6.564435,3.212095,3.629780,0.066437,0.618467,-0.022156,0.355477,188.497466,1651.198109,864.296131,0
0.066667,-124.505476,-71.986575,189.218695,4.041097,6.133742,-0.776525,-5.437060,-6.256805,0.585014,5.552741,0.139360,0.619845,0.007577,0.636935,188.496270,1650.928241,864.800443,0
0.067709,-46.061394,-124.486770,189.789823,4.007319,4.691639,1.807175,-6.349466,-4.817398,-1.904026,6.340964,0.117483,0.630593,-0.029590,0.974684,188.496382,1650.476239,865.613133,0
0.068750,27.083022,-170.726875,160.747328,3.511910,2.776174,4.121058,-6.616229,-2.850083,-4.246399,6.599897,0.146652,0.636725,0.011294,1.042234,188.496590,1650.453489,866.390109,0
0.069792,93.594383,-180.393018,104.169145,2.318424,0.354322,5.588697,-5.425462,-0.271305,-5.661313,5.248113,0.106545,0.629284,0.018727,1.019718,188.497846,1650.665828,866.325986,0
0.070834,140.895870,-185.290687,16.956597,0.652048,-2.247334,6.483998,-3.674107,2.360643,-6.515437,3.542200,0.073729,0.620740,-0.037023,0.974684,188.497278,1651.430552,867.035339,0
0.071875,168.625887,-146.332489,-58.408071,-0.721587,-4.283891,6.279591,-1.396958,4.396321,-6.178964,1.177530,0.011744,0.615160,-0.040740,0.783293,188.495620,1652.642829,867.714823,0
0.072917,194.593116,-67.253336,-110.004069,-1.779961,-5.990196,5.012270,1.405983,6.143357,-4.902091,-1.594579,-0.024718,0.617916,0.011294,0.659451,188.495736,1652.976011,867.519435,0
0.073959,170.411275,3.275450,-158.270509,-2.691964,-6.544287,3.360665,3.443432,6.682660,-3.193841,-3.647005,-0.083057,0.621567,0.011294,0.130310,188.420352,1653.840929,867.112272,0
0.075000,125.414973,71.361273,-188.953480,-3.345004,-6.177339,0.760613,5.453818,6.306667,-0.618526,-5.581389,-0.108580,0.633418,-0.011006,-0.139890,188.495655,1654.075585,867.170963,0
0.076042,47.185590,124.178583,-189.670429,-3.356263,-4.779270,-1.818999,6.312098,4.882453,1.926594,-6.384844,-0.104934,0.633211,-0.022156,-0.466381,188.495691,1654.607692,867.336668,0
0.077083,-26.422124,170.359963,-160.834512,-2.860854,-2.896831,-4.128794,6.551798,2.964510,4.243084,-6.617122,-0.101287,0.631833,-0.014723,-0.567706,188.495600,1655.520132,867.312924,0
0.078125,-93.125583,180.554632,-103.442166,-1.633590,-0.335539,-5.571904,5.399692,0.309774,5.675253,-5.261530,-0.145042,0.626735,-0.014723,-0.455123,188.495642,1656.107203,866.649750,0
0.079167,-140.585270,185.287871,-15.937978,-0.034769,2.284465,-6.491734,3.574880,-2.329770,6.486240,-3.517539,-0.050241,0.611508,-0.040740,-0.421348,188.495750,1656.584407,865.710912,0
0.080209,-168.529985,145.895107,59.037836,1.451458,4.295336,-6.205565,1.340259,-4.361650,6.115256,-1.126214,0.008098,0.612266,0.007577,-0.286248,188.495548,1657.140940,864.233504,0
0.081250,-194.791011,66.393134,109.965492,2.419758,5.983294,-4.942332,-1.509076,-6.085899,4.885834,1.638279,0.033621,0.589735,-0.011006,-0.094856,188.495586,1657.789276,863.150645,0
0.082292,-170.055475,-4.746392,158.013202,3.343021,6.500689,-3.249845,-3.469202,-6.583425,3.134447,3.679282,0.091960,0.610268,0.026161,0.332960,188.495617,1658.410037,862.053381,0
0.083334,-124.505476,-72.115770,189.218695,3.962282,6.115395,-0.694762,-5.491186,-6.226421,0.550504,5.583203,0.110191,0.589598,-0.025873,0.659451,188.495624,1658.693693,861.398564,0
0.084375,-45.360799,-124.381065,190.166525,3.984801,4.662283,1.848056,-6.341734,-4.764228,-1.912654,6.360003,0.143006,0.605376,0.007577,0.963426,188.495618,1658.734847,860.964654,0
0.085417,27.772318,-170.515465,161.196940,3.478132,2.845894,4.129234,-6.593032,-2.853881,-4.272281,6.611321,0.121129,0.615573,-0.003573,1.053493,188.495656,1659.123451,861.123853,0
0.086458,93.605683,-180.510468,103.452196,2.374721,0.247908,5.609138,-5.379069,-0.248518,-5.674254,5.282384,0.110191,0.623841,-0.025873,1.008459,188.420052,1659.415087,861.439345,0
0.087500,140.342174,-185.607803,16.118131,0.663307,-2.335401,6.508527,-3.600650,2.387229,-6.489555,3.538392,0.102898,0.615435,-0.011006,0.963426,188.495568,1659.234520,861.172598,0
0.088542,168.128690,-146.085844,-58.772621,-0.766624,-4.324255,6.255063,-1.393092,4.460885,-6.144454,1.177530,0.019036,0.613368,-0.014723,0.783293,188.495635,1659.410868,860.701322,0
0.089583,194.593116,-66.666086,-109.639519,-1.757442,-6.012213,5.008182,1.382787,6.154751,-4.932287,-1.598386,-0.017425,0.613919,0.003860,0.636935,188.495615,1659.497362,861.011311,0
0.090625,170.343476,4.097600,-157.711532,-2.658186,-6.507592,3.303431,3.431834,6.716841,-3.219724,-3.658429,-0.061180,0.609303,-0.037023,0.119052,188.420220,1659.657862,861.545258,0
0.091667,125.064675,71.525703,-189.050693,-3.299967,-6.155322,0.772877,5.469282,6.359838,-0.571074,-5.573773,-0.093995,0.625908,0.007577,-0.106115,188.495743,1660.055341,861.663403,0
0.092709,46.936991,123.978918,-189.901310,-3.333744,-4.786609,-1.778118,6.358492,4.878655,1.926594,-6.396267,-0.115872,0.637276,-0.007290,-0.387573,188.495705,1660.169144,861.664175,0
0.093750,-26.128326,170.547883,-160.858815,-2.793298,-2.889492,-4.112441,6.605924,2.960712,4.264653,-6.613314,-0.097641,0.638792,-0.007290,-0.500156,188.495763,1660.480567,861.436450,0
0.094792,-92.978684,180.143556,-104.377845,-1.723664,-0.419936,-5.604609,5.372629,0.362945,5.662311,-5.288185,-0.086703,0.630869,0.011294,-0.455123,188.344921,1660.360065,861.903964,0
0.095833,-140.427071,185.217401,-17.177449,-0.023510,2.181720,-6.450853,3.613542,-2.303185,6.486240,-3.509923,-0.042949,0.616951,-0.025873,-0.432606,188.495698,1660.324799,861.513337,0
0.096875,-168.349186,146.811218,58.272281,1.417680,4.258641,-6.246446,1.371188,-4.354054,6.158394,-1.179524,-0.013779,0.616400,0.000144,-0.263731,188.495678,1660.799618,862.037776,0
0.097917,-194.248615,68.096160,109.892582,2.397239,5.924582,-4.987301,-1.404691,-6.063112,4.920344,1.588777,0.015390,0.612472,0.003860,-0.106115,188.495747,1660.655240,862.291521,0
0.098959,-170.891669,-2.890681,157.830927,3.354280,6.500689,-3.360225,-3.465336,-6.598616,3.194840,3.637396,0.029975,0.627424,-0.003573,0.321702,188.344840,1661.045380,862.632503,0
0.100000,-125.714568,-70.894289,189.194391,4.007319,6.100717,-0.784701,-5.483454,-6.264401,0.654034,5.575588,0.091960,0.627562,-0.029590,0.603160,188.495725,1661.301180,863.457194,0
0.101042,-47.609484,-123.723345,190.202980,4.041097,4.735673,1.798998,-6.361065,-4.802207,-1.899713,6.360003,0.121129,0.638517,-0.011006,0.963426,188.495642,1661.950884,863.110136,0
0.102083,25.749631,-170.597680,160.808086,3.489392,2.842225,4.121058,-6.612363,-2.891860,-4.229144,6.596089,0.153945,0.631282,-0.011006,1.008459,188.495633,1661.515876,862.943765,0
0.103125,92.905088,-180.404763,104.655211,2.363462,0.339644,5.592785,-5.394533,-0.320678,-5.622489,5.289999,0.102898,0.624048,-0.014723,1.008459,188.269559,1660.928780,863.184812,0
0.104167,140.364774,-185.513843,16.895838,0.708344,-2.251003,6.418588,-3.662508,2.292281,-6.480927,3.561239,0.073729,0.615573,-0.003573,0.952168,188.495620,1660.141765,863.860114,0
0.105208,168.343389,-146.825779,-58.505284,-0.766624,-4.269213,6.271415,-1.435620,4.381129,-6.196219,1.207993,0.026329,0.616331,0.015011,0.783293,188.495700,1659.955833,864.776326,0
0.106250,194.129819,-66.947966,-109.518002,-1.779961,-5.993866,5.008182,1.409850,6.116772,-4.897777,-1.567924,-0.035656,0.626115,0.007577,0.648193,188.495589,1659.030556,864.447133,0
0.107292,170.727673,4.309010,-157.249769,-2.737001,-6.489244,3.336136,3.427968,6.644681,-3.167959,-3.627966,-0.046595,0.611439,0.003860,0.119052,188.269574,1657.966206,863.548422,0
0.108334,124.940376,71.854563,-188.819812,-3.288707,-6.081933,0.768789,5.403558,6.261092,-0.596957,-5.566158,-0.075764,0.578436,-0.014723,-0.117373,188.495752,1656.890533,863.042100,0
0.109375,45.987798,123.767508,-190.387377,-3.333744,-4.771931,-1.749501,6.323696,4.886250,1.883456,-6.358189,-0.101287,0.629629,0.000144,-0.432606,188.493038,1655.998517,863.596857,0
0.110417,-26.693322,170.101573,-160.712995,-2.815817,-2.918847,-4.079736,6.551798,2.915137,4.204260,-6.617122,-0.123164,0.634658,-0.029590,-0.511414,188.489584,1655.165755,863.461581,0
0.111459,-92.876985,180.531142,-103.806717,-1.701146,-0.379572,-5.571904,5.372629,0.400924,5.627801,-5.291993,-0.119518,0.621085,0.015011,-0.455123,188.269355,1654.518109,864.067998,0
