1-Time,2-VGERA,3-VGERB,4-VGERC,5-VN,6-IGERAN,7-IGERBN,8-IGERCN,9-IGERAT,10-IGERBT,11-IGERCT,12-IN,13-IFD,14-IFAULT,15-VFAULT,16-Speed (rad/s),17-FAULT 
0.000000,145.141088,-178.226685,12.039394,3.109008,-0.478272,4.927487,-3.893488,0.444895,-4.845948,3.826789,-0.252642,0.561817,-0.039427,64.424097,188.344941,0
0.001042,165.500877,-146.441826,-66.637690,1.661328,-2.274713,5.034639,-2.292731,2.286446,-5.114536,2.328935,-0.208806,0.556591,-0.035692,74.614407,188.420329,0
0.002083,181.493802,-66.007167,-123.118750,0.586878,-3.936243,4.685404,-0.244209,3.918479,-4.715850,0.325868,-0.121134,0.555480,-0.039427,81.954597,188.269471,0
0.003125,166.680497,11.515994,-160.395266,-0.148272,-4.731506,3.673415,1.401325,4.793308,-3.767398,-1.257374,-0.121134,0.544506,-0.050629,77.656797,188.194134,0
0.004167,117.295249,82.600033,-178.996591,-0.487572,-4.951623,1.649437,3.401340,4.932986,-1.732002,-3.139475,-0.051727,0.536275,-0.076769,55.115967,188.269490,0
0.005208,39.326901,133.110292,-185.127273,-0.623292,-4.380028,-0.219766,4.535676,4.499248,0.190084,-4.342027,-0.033462,0.524712,-0.020755,23.289628,188.420309,0
0.006250,-31.200767,173.907505,-152.060985,-0.046482,-3.180034,-2.088969,5.039411,3.264196,1.952695,-4.779642,-0.026156,0.561033,-0.005818,-10.595131,188.269669,0
0.007292,-102.068710,176.891489,-97.709659,0.994038,-1.394244,-3.835146,4.737170,1.407942,3.744683,-4.598192,-0.037115,0.566389,-0.035692,-40.939861,188.194007,0
0.008333,-145.408405,177.954608,-11.547727,2.656608,0.544208,-4.878883,3.815522,-0.433609,4.785462,-3.690941,-0.099216,0.559922,-0.020755,-59.182890,188.269557,0
0.009375,-165.813563,147.148303,66.267614,4.081668,2.337098,-5.021752,2.196107,-2.245754,5.033067,-2.196646,-0.069992,0.559138,0.020321,-69.147000,188.344784,0
0.010417,-181.250706,67.039828,123.622728,5.190048,4.090936,-4.585208,0.114003,-3.929247,4.676348,-0.182904,-0.146705,0.552410,-0.017021,-77.233650,188.269407,0
0.011458,-167.299431,-10.350443,160.653031,5.902578,4.836494,-3.557345,-1.468098,-4.800400,3.719502,1.375432,-0.135746,0.561294,-0.039427,-71.375070,188.194195,0
0.012500,-118.141033,-82.086851,178.872728,6.230568,4.989156,-1.541304,-3.483038,-4.947430,1.726073,3.300228,-0.186888,0.559269,-0.020755,-49.852140,188.194183,0
0.013542,-40.047917,-132.730000,185.409660,6.388908,4.435313,0.256464,-4.565135,-4.432825,-0.137258,4.442296,-0.205153,0.531702,-0.031958,-16.973971,188.344919,0
0.014583,31.126273,-173.527213,151.986364,5.800788,3.274372,2.220913,-5.128572,-3.308046,-2.008983,4.943953,-0.223418,0.552671,-0.039427,15.270838,188.194161,0
0.015625,102.118984,-176.958190,97.327273,4.726338,1.460180,3.891687,-4.852451,-1.466495,-3.767398,4.758945,-0.223418,0.561882,-0.024490,46.395957,188.194192,0
0.016667,145.118403,-177.743449,10.906818,3.120318,-0.442769,4.919550,-3.934534,0.433868,-4.799784,3.844578,-0.201500,0.559138,-0.035692,64.706847,188.193370,0
0.017708,165.568932,-146.429745,-66.760796,1.650018,-2.171755,5.070356,-2.348701,2.194552,-5.122929,2.382303,-0.168623,0.560641,-0.028224,73.834017,188.344968,0
0.018750,180.903992,-66.623293,-123.808144,0.586878,-3.936243,4.752870,-0.311373,3.878046,-4.741030,0.432603,-0.154011,0.555872,0.012853,82.124247,188.194083,0
0.019792,166.941374,10.537440,-160.813826,-0.182202,-4.724405,3.752787,1.315504,4.782280,-3.800971,-1.189775,-0.080951,0.559596,-0.013287,75.383487,188.194177,0
0.020833,118.055197,82.177201,-178.762690,-0.532812,-4.905469,1.689123,3.356563,4.918283,-1.782362,-3.103897,-0.037115,0.557832,-0.050629,54.030207,188.194025,0
0.021875,40.461151,133.182778,-185.041099,-0.623292,-4.387129,-0.188017,4.479706,4.455139,0.080970,-4.313565,-0.040768,0.553978,-0.028224,23.074738,188.344916,0
0.022917,-31.064657,174.052476,-151.827084,-0.023862,-3.215537,-2.033409,5.017023,3.319332,1.931711,-4.786758,-0.022503,0.557897,-0.050629,-10.889191,188.194033,0
0.023958,-102.556438,176.951893,-96.847917,1.039278,-1.380043,-3.783554,4.763290,1.459402,3.715306,-4.583961,-0.015197,0.561751,-0.028224,-42.364921,188.194043,0
0.025000,-145.453775,177.942527,-9.910417,2.667918,0.572610,-4.787606,3.830447,-0.455664,4.693135,-3.666036,-0.062686,0.558289,-0.024490,-60.415680,188.194226,0
0.026042,-165.235095,146.278478,67.474053,4.172148,2.329998,-4.986035,2.169988,-2.231051,5.003690,-2.150394,-0.084604,0.554566,-0.043161,-69.576780,188.194067,0
0.027083,-181.522926,65.735091,123.856629,5.235288,4.083835,-4.589177,0.158779,-3.958653,4.634381,-0.200694,-0.124787,0.554370,-0.050629,-76.475880,188.193948,0
0.028125,-166.720963,-10.676627,161.059281,5.936508,4.822293,-3.557345,-1.479292,-4.782021,3.732092,1.350528,-0.135746,0.555023,-0.039427,-72.438210,188.194040,0
0.029167,-118.265801,-81.470724,179.303599,6.253188,5.017559,-1.600833,-3.501695,-4.892294,1.717680,3.310901,-0.227071,0.556525,-0.028224,-50.530740,188.194143,0
0.030208,-41.148140,-132.995780,184.621781,6.321048,4.428212,0.288213,-4.550210,-4.451204,-0.124668,4.445854,-0.219765,0.555676,-0.017021,-19.349071,188.269445,0
0.031250,30.128133,-173.986287,151.974053,5.778168,3.260171,2.205039,-5.098721,-3.308046,-2.042557,4.911932,-0.241683,0.565344,-0.035692,15.146428,188.194007,0
0.032292,102.413889,-176.450792,97.228788,4.715028,1.424677,3.875813,-4.811405,-1.470171,-3.767398,4.716251,-0.230724,0.561163,-0.024490,47.176347,188.194047,0
0.033333,145.265856,-178.045471,9.897349,3.086388,-0.464071,4.891770,-3.856175,0.448571,-4.791391,3.809000,-0.234377,0.558354,-0.017021,64.435407,188.193986,0
0.034375,164.967779,-145.680729,-68.016477,1.638708,-2.210808,5.070356,-2.303925,2.234986,-5.089356,2.328935,-0.161317,0.554304,-0.013287,74.489997,188.118465,0
0.035417,181.437090,-64.617863,-123.845076,0.586878,-3.939793,4.717152,-0.274060,3.900100,-4.720047,0.400582,-0.132093,0.557636,-0.028224,81.898047,188.194116,0
0.036458,166.238139,11.757612,-160.838447,-0.193512,-4.727955,3.725006,1.334161,4.782280,-3.771594,-1.168428,-0.095563,0.544048,-0.039427,77.577627,188.194040,0
0.037500,117.329277,82.382577,-179.008902,-0.498882,-4.898369,1.712934,3.423728,4.918283,-1.820132,-3.132359,-0.091910,0.554631,-0.031958,55.364787,188.194125,0
0.038542,40.756056,133.376072,-184.302463,-0.589362,-4.419081,-0.144363,4.483437,4.491896,0.101953,-4.285102,-0.033462,0.565801,-0.009553,23.742028,188.194065,0
0.039583,-30.100545,174.221609,-151.617803,-0.035172,-3.201336,-2.073094,4.990903,3.278899,1.914924,-4.765411,-0.000585,0.565997,-0.005818,-10.696921,188.194013,0
0.040625,-102.556438,176.637790,-97.217235,1.027968,-1.355191,-3.779586,4.703588,1.448375,3.744683,-4.587519,-0.033462,0.560380,-0.039427,-41.437501,188.196466,0
0.041667,-145.816735,177.725071,-10.008902,2.679228,0.533557,-4.791574,3.785671,-0.389500,4.718315,-3.669594,-0.022503,0.557048,-0.043161,-59.284680,188.194029,0
0.042708,-165.280465,146.012698,68.163447,4.149528,2.269643,-4.974129,2.188645,-2.223699,5.041461,-2.185972,-0.091910,0.553978,-0.024490,-68.886870,188.194233,0
0.043750,-181.534269,64.394111,124.078220,5.201358,4.055433,-4.581239,0.173705,-3.863084,4.638578,-0.225599,-0.117481,0.509818,-0.013287,-77.233650,188.194047,0
0.044792,-166.426058,-12.392115,160.813069,5.936508,4.779690,-3.585125,-1.434516,-4.756291,3.669142,1.350528,-0.150358,0.540325,-0.031958,-71.058390,188.194107,0
0.045833,-117.290346,-82.630491,178.983523,6.253188,5.006908,-1.596864,-3.505426,-4.914348,1.705090,3.264649,-0.223418,0.556591,-0.039427,-49.840830,188.194036,0
0.046875,-40.002547,-133.297803,184.560228,6.388908,4.495668,0.260433,-4.557672,-4.458555,-0.137258,4.474317,-0.205153,0.563580,-0.043161,-17.516851,188.194092,0
0.047917,30.196188,-174.022530,151.826326,5.789478,3.285023,2.173290,-5.083795,-3.289667,-1.967016,4.961742,-0.212459,0.569721,0.012853,14.795818,188.194087,0
0.048958,102.175696,-176.511196,97.696591,4.715028,1.467280,3.915499,-4.811405,-1.466495,-3.792578,4.762503,-0.241683,0.563254,0.009119,46.452507,188.194159,0
0.050000,145.889693,-177.670963,10.685227,3.063768,-0.467621,4.915582,-3.848712,0.430192,-4.795587,3.841020,-0.197847,0.561229,-0.035692,64.831257,188.194043,0
0.051042,165.478192,-145.499516,-67.991856,1.604778,-2.235660,5.090199,-2.247954,2.223958,-5.068372,2.339609,-0.161317,0.554696,-0.031958,73.732227,188.193937,0
0.052083,181.505145,-63.953414,-124.300569,0.586878,-3.982397,4.709215,-0.277791,3.936858,-4.711653,0.354330,-0.121134,0.512888,-0.013287,82.418307,188.194027,0
0.053125,166.079344,13.098592,-160.863069,-0.170892,-4.667600,3.677383,1.364012,4.756550,-3.742217,-1.207564,-0.117481,0.533204,-0.013287,75.021567,188.269503,0
0.054167,116.081602,83.735638,-179.107387,-0.532812,-4.884167,1.685154,3.386414,4.914607,-1.761378,-3.150149,-0.080951,0.545159,-0.035692,53.645667,188.194033,0
0.055208,38.782461,133.859309,-184.437879,-0.589362,-4.387129,-0.227703,4.517019,4.440436,0.122937,-4.317122,-0.059033,0.566651,-0.043161,23.097358,188.194099,0
0.056250,-31.835947,174.451146,-151.556250,-0.012552,-3.183584,-2.096906,5.043143,3.256844,1.986268,-4.829452,-0.044421,0.568741,-0.009553,-10.821331,188.193978,0
0.057292,-103.032823,176.541142,-97.180303,1.050588,-1.330339,-3.815303,4.725976,1.441024,3.761469,-4.608866,-0.004238,0.564887,-0.031958,-42.398851,188.269436,0
0.058333,-146.497285,177.773395,-10.464394,2.679228,0.579711,-4.807449,3.722238,-0.485070,4.772872,-3.644689,-0.066339,0.563776,-0.054364,-60.856770,188.194074,0
0.059375,-165.575370,145.626109,67.597159,4.115598,2.333548,-4.934443,2.072972,-2.308242,4.999494,-2.121931,-0.080951,0.554174,-0.024490,-69.542850,188.194096,0
0.060417,-182.543751,64.357868,123.955114,5.167428,4.098036,-4.561397,0.080421,-3.977032,4.617595,-0.136652,-0.102869,0.549928,-0.024490,-76.905660,188.194157,0
0.061458,-165.779535,-12.609572,161.317804,5.879958,4.769039,-3.517659,-1.512874,-4.815103,3.643962,1.435916,-0.164970,0.557179,-0.069301,-72.087600,188.194201,0
0.062500,-116.337576,-83.101647,179.783713,6.275808,5.006908,-1.465901,-3.561397,-4.866564,1.650533,3.364269,-0.230724,0.517592,-0.017021,-49.795590,188.194058,0
0.063542,-38.074322,-133.865605,184.338637,6.377598,4.424662,0.395365,-4.583792,-4.403419,-0.250569,4.452970,-0.238030,0.545224,-0.020755,-18.659161,188.194155,0
0.064583,32.600798,-174.300391,151.998675,5.823408,3.203366,2.248693,-5.124841,-3.212476,-2.092917,4.936837,-0.216112,0.547902,-0.009553,15.644068,188.269427,0
0.065625,103.241891,-175.979637,96.699432,4.715028,1.385624,3.919467,-4.815137,-1.404007,-3.817758,4.719808,-0.241683,0.564495,-0.061832,47.266827,188.193993,0
0.066667,146.116543,-178.190442,10.328220,3.075078,-0.581230,4.959236,-3.852443,0.474301,-4.858538,3.780537,-0.223418,0.561294,-0.002084,64.966977,188.194024,0
0.067708,165.251342,-145.016280,-67.573296,1.650018,-2.296015,5.034639,-2.221835,2.268067,-5.068372,2.254221,-0.168623,0.561229,-0.028224,74.625717,188.194002,0
0.068750,182.650737,-64.315841,-123.992803,0.575568,-3.989497,4.697310,-0.195701,3.969940,-4.690670,0.311636,-0.154011,0.553716,-0.046895,82.384377,188.344762,0
0.069792,165.398794,12.035473,-161.478599,-0.159582,-4.731506,3.605949,1.419982,4.774929,-3.687660,-1.271606,-0.117481,0.557897,-0.028224,77.147847,188.194096,0
0.070833,115.979519,83.252402,-179.870644,-0.532812,-4.912570,1.578003,3.464773,4.925635,-1.681641,-3.221306,-0.044421,0.536013,-0.039427,54.663567,188.194202,0
0.071875,38.340103,134.173412,-184.130114,-0.600672,-4.319673,-0.267389,4.483437,4.447787,0.156510,-4.281544,-0.015197,0.511516,-0.024490,22.497928,188.194110,0
0.072917,-33.435240,174.475308,-151.802463,-0.023862,-3.101928,-2.156435,5.050605,3.179653,2.036629,-4.818779,-0.022503,0.559269,-0.035692,-11.805301,188.420338,0
0.073958,-103.928880,176.456576,-95.998485,1.050588,-1.269984,-3.823240,4.673737,1.371184,3.790846,-4.562614,-0.033462,0.560053,-0.035692,-41.663701,188.269494,0
0.075000,-146.508627,178.232469,-9.159470,2.701848,0.604563,-4.866977,3.778208,-0.510800,4.802249,-3.644689,-0.051727,0.559204,-0.035692,-59.590050,188.269624,0
0.076042,-165.303150,145.203277,67.978788,4.126908,2.390353,-5.009847,2.102823,-2.308242,5.033067,-2.139720,-0.106522,0.558877,-0.013287,-69.124380,188.194201,0
0.077083,-182.804629,64.430353,123.955114,5.167428,4.151291,-4.553459,0.035644,-4.035844,4.659562,-0.129537,-0.172276,0.552932,-0.043161,-77.618190,188.420318,0
0.078125,-165.688795,-11.389400,161.748675,5.947818,4.825844,-3.521628,-1.527800,-4.811427,3.643962,1.453705,-0.157664,0.557571,-0.005818,-70.753020,188.269456,0
0.079167,-116.700536,-82.509682,179.992993,6.287118,5.014008,-1.461933,-3.609904,-4.921700,1.654730,3.406963,-0.186888,0.528305,0.001650,-49.399740,188.269418,0
0.080208,-39.027092,-133.853524,184.252463,6.400218,4.421112,0.395365,-4.613643,-4.432825,-0.284143,4.481433,-0.227071,0.557179,-0.039427,-16.532881,188.269521,0
0.081250,32.952416,-174.264148,151.998675,5.778168,3.174964,2.288379,-5.109915,-3.197773,-2.105507,4.961742,-0.245336,0.527586,-0.054364,16.209568,188.420235,0
0.082292,103.774989,-176.390387,95.739205,4.692408,1.353671,3.955184,-4.796480,-1.370925,-3.817758,4.702019,-0.245336,0.560967,-0.024490,47.085867,188.269463,0
0.083333,146.127886,-178.323332,8.555492,3.075078,-0.531526,4.979079,-3.863637,0.536789,-4.854341,3.752074,-0.238030,0.554762,-0.005818,65.012217,188.269463,0
0.084375,164.967779,-144.448477,-68.410417,1.604778,-2.281814,5.026702,-2.188252,2.286446,-5.089356,2.229316,-0.194194,0.554043,-0.024490,73.743537,188.269518,0
0.085417,182.911615,-63.095669,-124.066667,0.541638,-4.032101,4.709215,-0.169581,4.017724,-4.694867,0.286731,-0.113828,0.554174,-0.028224,82.927257,188.420220,0
0.086458,165.296712,11.999230,-162.020266,-0.170892,-4.745707,3.625792,1.457296,4.793308,-3.725431,-1.278721,-0.088257,0.561098,-0.043161,74.670957,188.344939,0
0.087500,116.240397,82.781246,-180.239963,-0.510192,-4.916120,1.550223,3.517012,4.903580,-1.677445,-3.246210,-0.066339,0.552802,-0.046895,53.645667,188.269480,0
0.088542,39.394956,134.342545,-183.920834,-0.623292,-4.312573,-0.283263,4.494631,4.425733,0.236247,-4.310007,-0.007891,0.566063,-0.046895,22.712818,188.344847,0
0.089583,-32.958855,174.753169,-151.987122,-0.035172,-3.038023,-2.223901,4.998366,3.198032,2.116366,-4.822337,-0.029809,0.558158,-0.017021,-12.020191,188.420321,0
0.090625,-104.121703,176.565304,-95.309091,1.061898,-1.262884,-3.878800,4.699856,1.319724,3.837010,-4.537709,-0.051727,0.559138,-0.054364,-42.919111,188.420448,0
0.091667,-146.735477,178.667382,-7.608333,2.701848,0.647166,-4.906663,3.744626,-0.551233,4.823233,-3.598437,-0.088257,0.552149,-0.028224,-61.116900,188.269483,0
0.092708,-164.940190,144.091834,69.222159,4.172148,2.443607,-4.910632,2.050584,-2.341323,4.995297,-2.068563,-0.091910,0.549928,-0.039427,-69.373200,188.344892,0
0.093750,-183.927536,62.026253,123.905872,5.190048,4.211645,-4.577271,-0.005401,-4.057899,4.634381,-0.079727,-0.117481,0.549274,-0.039427,-77.403300,188.420220,0
0.094792,-164.815423,-12.790785,162.179546,5.936508,4.871997,-3.493847,-1.624816,-4.804076,3.618782,1.528420,-0.154011,0.548556,-0.005818,-71.793540,188.420182,0
0.095833,-115.940588,-82.618410,180.670076,6.309738,5.014008,-1.434152,-3.643487,-4.984188,1.566599,3.478120,-0.197847,0.556395,-0.009553,-49.795590,188.269413,0
0.096875,-39.446765,-134.240113,183.526137,6.354978,4.414011,0.458862,-4.658419,-4.410771,-0.309323,4.520569,-0.223418,0.562862,-0.054364,-18.907981,188.344778,0
0.097917,32.351263,-174.650737,152.318750,5.755548,3.153662,2.363782,-5.098721,-3.201449,-2.189441,4.993763,-0.252642,0.566651,-0.017021,16.254808,188.420236,0
0.098958,103.774989,-175.798423,95.689962,4.658478,1.261364,3.998839,-4.699464,-1.315789,-3.926872,4.712693,-0.234377,0.560771,-0.035692,47.515647,188.495615,0
0.100000,146.445476,-178.746164,8.087689,3.029838,-0.648686,4.998922,-3.792741,0.632359,-4.875324,3.688033,-0.238030,0.556264,-0.046895,65.068767,188.269588,0
0.101042,164.706901,-143.373277,-69.370644,1.593468,-2.391872,5.082262,-2.124819,2.326879,-5.038995,2.168832,-0.143052,0.553651,-0.043161,74.410827,188.495783,0
0.102083,183.932440,-61.041916,-123.746591,0.564258,-4.074704,4.669529,-0.132268,4.094915,-4.640310,0.215574,-0.124787,0.525953,-0.043161,82.836777,188.420368,0
0.103125,164.400654,13.944255,-162.069508,-0.170892,-4.731506,3.574200,1.505804,4.826389,-3.662480,-1.371225,-0.099216,0.555676,-0.024490,76.842477,188.495656,0
0.104167,114.958694,83.494020,-180.732387,-0.555432,-4.948072,1.550223,3.543132,4.944013,-1.622888,-3.285347,-0.062686,0.543003,-0.028224,54.799287,188.344903,0
0.105208,38.646351,134.741215,-183.366857,-0.600672,-4.319673,-0.318980,4.539408,4.400002,0.236247,-4.342027,-0.051727,0.567239,-0.017021,22.927708,188.495698,0
0.106250,-32.845430,174.849816,-152.147160,-0.046482,-3.066425,-2.247712,5.050605,3.157599,2.154136,-4.825894,-0.026156,0.568937,-0.035692,-11.737441,188.495734,0
0.107292,-104.030963,176.033744,-95.813826,1.027968,-1.198979,-3.870863,4.677468,1.308697,3.841206,-4.527035,-0.077298,0.564168,-0.035692,-41.799421,188.495550,0
0.108333,-147.132465,178.486168,-8.100758,2.713158,0.675568,-4.855072,3.666267,-0.587991,4.819036,-3.566417,-0.007891,0.558093,-0.005818,-59.748390,188.420218,0
0.109375,-165.030930,143.910621,69.283712,4.126908,2.447157,-4.938412,1.994613,-2.385432,5.003690,-2.008080,-0.062686,0.548686,-0.046895,-69.011280,188.495611,0
0.110417,-184.086331,61.446370,123.770455,5.178738,4.165492,-4.501868,-0.046446,-4.065250,4.571431,-0.015686,-0.161317,0.545943,-0.031958,-77.878320,188.495629,0
0.111458,-164.656628,-14.107604,161.871781,5.936508,4.825844,-3.454162,-1.609890,-4.826130,3.593602,1.542651,-0.161317,0.540390,-0.002084,-70.345860,188.495718,0
0.112500,-114.658886,-83.826501,180.633144,6.321048,5.035310,-1.394467,-3.654681,-4.965809,1.562402,3.478120,-0.205153,0.552867,-0.054364,-49.003890,188.495740,0
0.113542,-37.790760,-134.421327,183.710796,6.332358,4.378508,0.415208,-4.617374,-4.414446,-0.313519,4.506338,-0.245336,0.562666,-0.039427,-16.612051,188.495850,0
0.114583,33.406116,-174.529928,152.195644,5.800788,3.157213,2.343939,-5.150960,-3.179394,-2.176851,5.004436,-0.241683,0.558746,-0.031958,15.949438,188.495731,0
0.115625,103.831701,-175.919232,95.985417,4.703718,1.293317,4.010745,-4.770360,-1.323141,-3.889102,4.687788,-0.256295,0.562209,-0.054364,46.984077,188.495559,0
0.116667,146.865148,-178.432060,9.023295,3.063768,-0.620283,4.967173,-3.766622,0.599277,-4.887915,3.741401,-0.234377,0.560445,-0.031958,65.114007,188.646379,0
0.117708,165.035834,-143.482005,-68.902841,1.582158,-2.367020,5.038608,-2.113625,2.374664,-5.080962,2.168832,-0.168623,0.549144,-0.076769,73.720917,188.495562,0
0.118750,184.057207,-61.549314,-123.845076,0.586878,-4.049852,4.633812,-0.046446,4.105942,-4.678080,0.165765,-0.117481,0.544114,-0.046895,83.289177,188.571127,0
0.119792,164.366626,14.161712,-162.167993,-0.170892,-4.699553,3.562295,1.520729,4.822714,-3.612120,-1.339205,-0.110175,0.543526,-0.035692,74.252487,188.495788,0
0.120833,114.198747,84.496735,-180.683144,-0.521502,-4.930321,1.510537,3.580446,4.888877,-1.631281,-3.310252,-0.033462,0.555676,-0.031958,53.046237,188.722563,0
0.121875,36.672756,135.043237,-183.674622,-0.589362,-4.294821,-0.366603,4.528213,4.366921,0.278214,-4.349143,-0.040768,0.546857,-0.058098,22.147318,188.495671,0
0.122917,-34.716942,174.741088,-152.134849,-0.035172,-3.048674,-2.299304,5.039411,3.150247,2.149939,-4.833010,-0.044421,0.547249,-0.002084,-12.257701,188.571167,0
0.123958,-104.359895,176.190796,-95.038258,1.084518,-1.177677,-3.918486,4.636423,1.275615,3.837010,-4.548382,-0.048074,0.562797,-0.028224,-42.862561,188.495622,0
0.125000,-147.416027,178.474087,-8.260795,2.679228,0.721722,-4.882852,3.669998,-0.613721,4.877790,-3.584206,-0.073645,0.561163,-0.020755,-61.467510,188.722012,0
0.126042,-165.473288,143.789812,68.508144,4.160838,2.468459,-4.938412,2.002076,-2.381757,4.999494,-2.008080,-0.084604,0.556395,-0.058098,-69.542850,188.571149,0
0.127083,-184.721511,61.977930,123.782766,5.190048,4.176143,-4.521711,-0.076297,-4.068926,4.596611,-0.001454,-0.139399,0.549993,-0.039427,-77.776530,188.571069,0
