1-Time,2-VGERA,3-VGERB,4-VGERC,5-VN,6-IGERAN,7-IGERBN,8-IGERCN,9-IGERAT,10-IGERBT,11-IGERCT,12-IN,13-IFD,14-IFAULT,15-VFAULT,16-Speed (rad/s),17-Active Power,18-Reactive Power,19-FAULT 
0.000000,-90.967297,-80.701373,195.634777,4.063616,3.271553,2.935673,-5.754083,-3.073325,-3.112691,5.209389,0.157591,0.474397,0.018727,-91.422386,188.495893,1609.223940,-11.819854,0
0.001042,-24.207339,-138.052257,184.066386,3.838430,1.396453,4.587800,-5.324943,-1.202166,-4.567788,4.596327,0.146652,0.477911,0.033594,-26.259203,188.646590,1608.387344,-11.910836,0
0.002083,40.631633,-181.767184,134.438959,2.881389,-0.794223,5.594890,-4.052987,0.995058,-5.731865,3.339739,0.084667,0.470607,0.026161,46.019241,188.571143,1607.903886,-12.005414,0
0.003125,95.085973,-195.414886,60.860587,1.507755,-2.951873,5.823774,-2.088995,3.125586,-5.731865,1.306351,0.081021,0.465026,0.022444,107.151944,188.495935,1607.221995,-11.623137,0
0.004167,157.179063,-165.688266,-3.275937,0.280491,-4.438009,5.070537,0.083768,4.707735,-5.114551,-0.852695,0.048206,0.458550,0.000144,159.165404,188.495915,1607.122020,-11.820222,0
0.005208,186.253771,-114.808882,-64.654030,-0.935513,-5.223276,3.605679,2.186941,5.396914,-3.513945,-2.905122,-0.035656,0.457310,0.003860,177.268790,188.571261,1606.616146,-10.731922,0
0.006250,190.841540,-36.046844,-123.225088,-2.106481,-5.322352,1.541560,4.131603,5.541420,-1.459172,-4.820466,-0.061180,0.471985,-0.018440,176.165474,188.571248,1605.723486,-10.207456,0
0.007292,160.343042,29.772192,-166.363522,-2.962187,-4.669186,-0.543366,5.279842,4.826303,0.595601,-5.818121,-0.068472,0.452487,-0.007290,145.700448,188.495886,1605.452848,-9.079576,0
0.008333,89.334311,81.121376,-195.952843,-3.435078,-3.006915,-2.957053,5.821100,3.173754,3.130996,-6.423568,-0.083057,0.471227,-0.029590,91.390290,188.571227,1605.030788,-8.299233,0
0.009375,23.444447,137.814540,-183.837626,-3.243670,-1.120806,-4.584211,5.291441,1.310005,4.594912,-5.791466,-0.064826,0.474190,0.003860,26.880089,188.571335,1605.137728,-8.099297,0
0.010417,-40.524431,182.116718,-134.125137,-2.331667,1.110234,-5.674532,4.085209,-0.957618,5.750170,-4.527262,-0.002841,0.478669,0.018727,-45.353321,188.571299,1604.669872,-8.564842,0
0.011458,-95.114370,195.024484,-61.336624,-0.935513,3.308248,-5.890931,2.043894,-3.077031,5.741351,-2.520530,-0.013779,0.467782,0.033594,-106.666157,188.495854,1605.048552,-9.289298,0
0.012500,-157.828956,165.708939,2.739141,0.303010,4.794385,-5.087756,-0.070877,-4.636948,5.071125,-0.304366,0.048206,0.464544,0.037311,-159.051142,188.571326,1605.043115,-10.892848,0
0.013542,-186.180468,115.205396,64.870638,1.496495,5.561304,-3.589605,-2.224309,-5.363180,3.479338,1.759484,0.073729,0.465509,0.029877,-176.985653,188.572439,1605.658589,-10.975591,0
0.014583,-191.265435,36.936648,124.219403,2.678722,5.667719,-1.546294,-4.172837,-5.481749,1.442202,3.655790,0.095606,0.464062,-0.007290,-176.163795,188.570921,1606.538629,-11.068784,0
0.015626,-160.348839,-29.692794,166.725950,3.478132,4.988867,0.521986,-5.266951,-4.714759,-0.643436,4.664868,0.128422,0.460341,0.033594,-144.798103,188.495381,1607.084162,-11.060703,0
0.016666,-88.594313,-80.936273,196.606911,4.131172,3.223850,3.048034,-5.815941,-3.006631,-3.253791,5.232236,0.146652,0.448284,-0.022156,-90.431653,188.570801,1607.666605,-12.408218,0
0.017708,-22.388051,-137.958297,183.507409,3.860949,1.378105,4.596123,-5.274683,-1.120650,-4.660385,4.592519,0.121129,0.464544,0.018727,-25.392312,188.646248,1607.973671,-13.341501,0
0.018750,41.433928,-182.695040,133.661252,2.847611,-0.856604,5.715574,-4.014326,1.065458,-5.771549,3.377817,0.117483,0.453796,0.018727,46.570899,188.570933,1609.113497,-13.389367,0
0.019791,95.131173,-194.992066,60.386671,1.473977,-3.017923,5.857066,-2.054200,3.144112,-5.784777,1.298736,0.029975,0.466060,0.011294,107.163202,188.495537,1609.612033,-13.377247,0
0.020833,157.518061,-165.864441,-3.105813,0.280491,-4.471034,5.124637,0.103099,4.722556,-5.123370,-0.829848,0.037267,0.462891,0.007577,159.435604,188.570884,1610.002245,-13.177620,0
0.021875,185.892173,-115.079017,-64.593272,-0.924254,-5.259971,3.576548,2.175343,5.430262,-3.408120,-2.931777,-0.028364,0.460824,-0.018440,177.246273,188.646355,1609.673818,-14.633416,0
0.022916,191.191838,-37.315305,-123.917733,-2.083962,-5.326022,1.558206,4.127737,5.563651,-1.428306,-4.835698,-0.042949,0.461719,0.007577,176.931040,188.570939,1610.375780,-15.356019,0
0.023958,160.636840,28.574201,-166.509342,-2.939669,-4.691203,-0.518397,5.260512,4.796661,0.697017,-5.882854,-0.086703,0.475155,0.022444,145.914356,188.495598,1611.009831,-17.501345,0
0.025000,90.328705,80.710301,-196.232331,-3.558930,-2.973889,-2.982022,5.778573,3.136702,3.188318,-6.408336,-0.083057,0.476671,0.029877,91.514131,188.570922,1611.149343,-18.869741,0
0.026041,23.885144,137.885010,-183.473076,-3.299967,-1.098789,-4.559242,5.272110,1.247016,4.652234,-5.726733,-0.064826,0.472537,0.000144,26.328432,188.646386,1610.781781,-20.372950,0
0.027083,-40.716529,182.304638,-133.541857,-2.320407,1.172615,-5.653724,4.011753,-0.972439,5.714895,-4.500608,-0.039302,0.468609,0.033594,-46.028821,188.570883,1610.138602,-20.415472,0
0.028125,-95.148270,195.047974,-59.975637,-0.935513,3.293570,-5.811862,2.063225,-3.073325,5.714895,-2.432949,-0.028364,0.460686,0.011294,-106.947615,188.495427,1609.253996,-20.897290,0
0.029166,-157.230060,165.462294,4.087976,0.325528,4.794385,-5.054464,-0.136601,-4.622127,5.049078,-0.350060,0.066437,0.457516,0.018727,-158.972333,188.646219,1608.656563,-19.986007,0
0.030208,-186.090069,114.030895,65.295947,1.541533,5.531949,-3.510536,-2.212711,-5.300191,3.422016,1.732830,0.099252,0.455587,0.026161,-176.760486,188.646386,1607.177148,-19.621173,0
0.031250,-191.118536,35.726912,123.903459,2.689981,5.623685,-1.533810,-4.118711,-5.455812,1.437793,3.636750,0.128422,0.462822,0.018727,-175.994920,188.570955,1606.469257,-19.215007,0
0.032291,-160.224540,-29.551854,166.750254,3.500651,4.948502,0.534470,-5.255353,-4.674001,-0.630208,4.634405,0.153945,0.477842,0.007577,-145.304727,188.495461,1605.695675,-19.222967,0
0.033333,-89.362708,-80.994998,196.218058,4.108653,3.249536,2.964803,-5.819807,-3.014041,-3.192060,5.232236,0.168530,0.464958,0.033594,-91.005828,188.646286,1605.409354,-18.722107,0
0.034375,-23.382444,-138.404607,183.592471,3.872208,1.411131,4.554508,-5.332675,-1.202166,-4.647156,4.581095,0.146652,0.476533,0.011294,-26.011520,188.646239,1605.556047,-17.991926,0
0.035416,40.823732,-182.448395,134.098712,2.892649,-0.863943,5.682282,-4.080050,1.076573,-5.714227,3.347354,0.121129,0.476395,0.015011,46.278183,188.570810,1604.664764,-18.539286,0
0.036458,95.334571,-195.003811,61.273743,1.496495,-3.003245,5.886197,-2.096727,3.144112,-5.753912,1.291120,0.117483,0.472330,0.011294,107.196977,188.495504,1604.425218,-18.904617,0
0.037500,157.970058,-165.700011,-3.045055,0.280491,-4.515068,5.137122,0.095367,4.715145,-5.074867,-0.864119,0.040913,0.467369,0.007577,159.593220,188.721726,1603.935307,-19.441352,0
0.038541,186.185971,-115.032037,-64.678334,-0.935513,-5.263641,3.597356,2.198539,5.448788,-3.452213,-2.935585,0.000805,0.464131,0.015011,177.313823,188.570852,1604.584171,-19.051415,0
0.039583,191.112739,-36.504900,-123.735458,-2.128999,-5.392072,1.524914,4.181862,5.578472,-1.406259,-4.877584,-0.046595,0.459652,0.022444,176.300574,188.570848,1604.882531,-19.362241,0
0.040625,160.083144,29.795682,-166.351371,-2.939669,-4.628822,-0.564174,5.295307,4.837419,0.666151,-5.860007,-0.068472,0.459997,0.000144,145.148790,188.495513,1604.830771,-18.096944,0
0.041666,88.181719,81.227082,-196.536123,-3.547671,-2.907839,-3.015314,5.813368,3.155228,3.219184,-6.480685,-0.097641,0.447388,0.011294,90.512140,188.646214,1605.754037,-17.454678,0
0.042708,22.348354,138.155145,-183.412318,-3.266189,-1.062094,-4.629988,5.306905,1.250721,4.683099,-5.791466,-0.101287,0.449248,-0.018440,25.911874,188.570826,1606.697899,-16.752877,0
0.043750,-41.281526,182.786184,-133.298824,-2.320407,1.135920,-5.720308,4.023351,-1.005787,5.825130,-4.599611,-0.050241,0.475637,-0.014723,-46.017563,188.570855,1609.000381,-16.355681,0
0.044791,-95.329069,194.965759,-60.206518,-0.912995,3.326595,-5.870123,2.078689,-3.110378,5.785445,-2.501491,0.004452,0.467576,0.018727,-106.936357,188.495457,1610.414038,-15.885899,0
0.045833,-158.134054,165.603234,3.431786,0.303010,4.827410,-5.137694,-0.121137,-4.677706,5.106400,-0.342444,0.051852,0.467782,0.011294,-159.411408,188.647882,1611.841656,-16.072684,0
0.046875,-185.988369,114.923515,65.065065,1.552792,5.579652,-3.577121,-2.247506,-5.385412,3.452881,1.774716,0.099252,0.463993,0.022444,-176.974395,188.573759,1613.356644,-16.756148,0
0.047916,-191.401034,37.324234,124.656863,2.689981,5.697075,-1.500518,-4.176703,-5.474338,1.433384,3.697676,0.128422,0.466680,0.041027,-176.681678,188.571156,1614.495480,-17.671871,0
0.048958,-160.416638,-28.941113,166.871770,3.523169,4.966850,0.580247,-5.317211,-4.733285,-0.687530,4.683907,0.146652,0.473570,0.029877,-145.102078,188.495629,1615.744502,-18.404472,0
0.050000,-89.554807,-80.865803,197.032220,4.108653,3.238528,3.056357,-5.831405,-3.069620,-3.192060,5.266507,0.132068,0.478531,0.015011,-90.668078,188.646600,1616.799032,-17.964990,0
0.051041,-23.077346,-138.228432,183.349437,3.849689,1.356088,4.596123,-5.352006,-1.183639,-4.629519,4.607750,0.132068,0.475637,0.015011,-25.200920,188.571053,1616.736466,-17.832301,0
0.052083,41.275729,-183.059136,133.393915,2.881389,-0.896968,5.736382,-4.068452,1.087689,-5.780368,3.354970,0.113837,0.478875,0.000144,46.987457,188.571022,1617.649165,-17.703146,0
0.053125,95.515370,-194.886361,59.584661,1.496495,-3.043609,5.865389,-2.038735,3.195986,-5.820052,1.317775,0.059144,0.463166,-0.007290,107.579760,188.495562,1618.670788,-17.184348,0
0.054168,158.015257,-165.864441,-4.600469,0.246713,-4.500390,5.132960,0.114697,4.744787,-5.092504,-0.829848,0.051852,0.463166,0.015011,160.054811,188.646543,1619.233763,-16.328138,0
0.055208,185.745274,-114.174651,-65.176552,-0.901736,-5.252632,3.568225,2.217870,5.411735,-3.443395,-2.973663,-0.006487,0.460272,-0.018440,177.021107,188.571087,1618.645507,-16.364763,0
0.056250,191.237038,-36.187784,-124.002795,-2.083962,-5.296666,1.508268,4.181862,5.589588,-1.384213,-4.892815,-0.050241,0.442496,-0.007290,176.728390,188.571073,1618.915369,-16.540046,0
0.057292,159.902345,29.537292,-166.533646,-2.872113,-4.665516,-0.543366,5.264378,4.781840,0.679379,-5.848584,-0.046595,0.472054,0.018727,145.599123,188.495731,1618.274845,-17.055105,0
0.058333,89.436010,80.874731,-196.633337,-3.480115,-2.948203,-2.986184,5.824966,3.136702,3.210365,-6.412144,-0.093995,0.474121,0.022444,91.536648,188.721880,1617.521095,-17.623222,0
0.059375,24.088542,138.072930,-183.254346,-3.243670,-1.073103,-4.567565,5.260512,1.250721,4.616959,-5.726733,-0.075764,0.478049,0.018727,26.576115,188.646444,1616.257256,-18.030473,0
0.060417,-40.309732,182.621754,-133.554009,-2.354185,1.161606,-5.616270,4.038816,-0.968734,5.754580,-4.489184,-0.050241,0.472192,-0.003573,-45.859946,188.571076,1614.386770,-18.717968,0
0.061458,-95.385568,194.730859,-60.461704,-0.912995,3.330265,-5.778570,2.020698,-3.065915,5.710486,-2.444373,0.000805,0.466336,0.018727,-107.015165,188.495512,1612.915726,-19.075650,0
0.062500,-157.817656,165.556254,3.881398,0.325528,4.787046,-5.054464,-0.132735,-4.633243,5.013803,-0.315789,0.051852,0.460135,-0.007290,-159.343858,188.721847,1611.435599,-19.537521,0
0.063542,-186.022269,114.289285,65.332402,1.507755,5.495254,-3.527182,-2.228175,-5.307601,3.399969,1.744253,0.070083,0.456896,0.011294,-176.692936,188.570908,1609.937298,-19.263518,0
0.064583,-191.175035,35.538992,124.340920,2.678722,5.675058,-1.517164,-4.134176,-5.455812,1.411337,3.648174,0.132068,0.411284,0.003860,-175.826045,188.571122,1608.929849,-18.573457,0
0.065625,-159.738643,-30.397494,166.640889,3.500651,4.849427,0.555278,-5.247620,-4.670295,-0.669892,4.619174,0.121129,0.489624,0.015011,-144.539161,188.495765,1607.404127,-17.871577,0
0.066667,-88.051917,-81.312113,196.777035,4.074875,3.205503,2.989772,-5.781146,-2.991810,-3.174422,5.190350,0.150299,0.466404,0.000144,-90.240262,188.721811,1605.620610,-17.880600,0
0.067708,-22.139452,-138.439842,183.337286,3.748356,1.345080,4.579477,-5.290148,-1.157702,-4.554559,4.581095,0.117483,0.468747,-0.018440,-25.358537,188.571147,1604.580292,-17.394766,0
0.068750,41.546927,-182.882960,133.478977,2.858871,-0.856604,5.665636,-4.041389,1.058047,-5.727455,3.347354,0.095606,0.469643,-0.018440,46.705999,188.570993,1603.820014,-16.902802,0
0.069792,95.583170,-194.839381,60.641857,1.473977,-3.010584,5.832097,-2.081263,3.151523,-5.740684,1.294928,0.081021,0.467851,-0.018440,107.388369,188.495747,1602.622444,-17.175291,0
0.070833,158.150856,-165.676521,-2.996448,0.257972,-4.496721,5.095506,0.064438,4.744787,-5.092504,-0.848887,0.029975,0.465853,0.029877,159.852162,188.721806,1602.576402,-17.908172,0
0.071875,185.971273,-115.137742,-64.897064,-0.958032,-5.241624,3.589033,2.206272,5.419146,-3.416938,-2.947008,-0.021072,0.464406,-0.018440,177.471440,188.646495,1602.600568,-18.233908,0
0.072917,191.112739,-37.021680,-124.403800,-2.095221,-5.337030,1.524914,4.177996,5.585883,-1.423897,-4.873776,-0.068472,0.467162,0.007577,176.683357,188.571129,1602.659697,-17.828517,0
0.073958,160.252642,29.478567,-166.703769,-2.950928,-4.694872,-0.555850,5.256645,4.818893,0.683788,-5.829544,-0.068472,0.475913,0.015011,145.160048,188.495669,1602.970656,-17.609150,0
0.075000,88.690215,81.344532,-196.876370,-3.525153,-2.944534,-3.002830,5.863627,3.144112,3.245640,-6.465454,-0.086703,0.480529,0.022444,90.489624,188.721866,1603.874114,-17.538131,0
0.076042,22.506553,138.425281,-183.120678,-3.221151,-1.087780,-4.617503,5.291441,1.224784,4.678690,-5.772427,-0.064826,0.487281,0.018727,25.292666,188.495673,1604.836991,-17.437863,0
0.077083,-41.722223,183.279474,-132.739847,-2.286629,1.190962,-5.711985,4.073611,-0.979850,5.776626,-4.572957,-0.039302,0.471159,-0.018440,-46.816904,188.571067,1605.942078,-16.184522,0
0.078125,-95.475968,194.977504,-59.270840,-0.901736,3.315587,-5.849316,2.067091,-3.165957,5.781036,-2.444373,-0.006487,0.464200,-0.003573,-107.375432,188.495658,1607.398867,-16.620566,0
0.079167,-158.077554,165.673704,4.513285,0.336788,4.831079,-5.112725,-0.121137,-4.674001,5.128447,-0.281519,0.029975,0.460479,-0.018440,-159.614058,188.721898,1609.084313,-16.355182,0
0.080208,-185.773671,113.983915,65.587587,1.496495,5.586991,-3.535505,-2.286167,-5.374296,3.422016,1.812794,0.070083,0.456827,0.011294,-176.726711,188.495638,1610.201556,-16.868963,0
0.081250,-191.310634,36.396378,124.899896,2.678722,5.664050,-1.454741,-4.184435,-5.485454,1.367243,3.743370,0.099252,0.461995,0.015011,-176.602870,188.571093,1611.460746,-18.259781,0
0.082292,-159.874242,-29.305208,167.005439,3.444354,4.941163,0.596893,-5.278549,-4.685116,-0.700758,4.683907,0.135714,0.470401,0.026161,-145.079561,188.495615,1612.451061,-19.188616,0
0.083333,-89.170609,-80.959763,197.263101,4.041097,3.231189,3.043872,-5.893263,-3.043683,-3.196469,5.285546,0.113837,0.476050,0.011294,-90.758145,188.721869,1614.345732,-19.346483,0
0.084375,-23.484143,-138.768702,182.875522,3.759615,1.363427,4.596123,-5.313344,-1.139176,-4.638338,4.600134,0.135714,0.477222,0.011294,-25.144629,188.571071,1615.331735,-20.395675,0
0.085417,41.004530,-183.634641,133.308853,2.836352,-0.896968,5.686443,-4.041389,1.095100,-5.745093,3.339739,0.099252,0.475706,0.007577,47.167590,188.571114,1615.754955,-21.011295,0
0.086458,95.775269,-194.522265,59.985666,1.496495,-3.036271,5.819612,-2.046468,3.195986,-5.745093,1.245426,0.077375,0.465853,0.015011,107.669827,188.495676,1615.724727,-21.669080,0
0.087500,158.286455,-165.735246,-4.491104,0.235454,-4.482043,5.078860,0.122429,4.752198,-5.004316,-0.879350,0.037267,0.459859,-0.003573,159.987261,188.721920,1614.985561,-22.030954,0
0.088542,185.598375,-113.798811,-65.468192,-0.946773,-5.270979,3.564064,2.233335,5.433967,-3.368435,-2.935585,0.011744,0.457999,-0.014723,176.897265,188.495484,1614.426522,-21.828350,0
0.089583,191.451736,-35.330399,-124.100008,-2.027666,-5.373725,1.504107,4.135469,5.574767,-1.401850,-4.828082,-0.053887,0.455863,-0.007290,176.401899,188.570989,1613.742549,-21.219142,0
0.090625,159.495547,30.523873,-166.278461,-2.860854,-4.606805,-0.589143,5.275976,4.759609,0.666151,-5.860007,-0.064826,0.449111,-0.007290,144.878590,188.495521,1613.171687,-21.080757,0
0.091667,87.933120,81.391512,-196.876370,-3.468856,-2.918847,-3.019476,5.817234,3.129291,3.201546,-6.423568,-0.086703,0.469229,0.011294,90.669757,188.721837,1612.192377,-20.544849,0
0.092708,22.709951,138.296086,-182.829038,-3.243670,-1.087780,-4.592534,5.306905,1.276658,4.639005,-5.799082,-0.064826,0.481218,0.011294,25.923132,188.495669,1612.096809,-19.598341,0
0.093750,-41.032927,183.115044,-133.359582,-2.286629,1.110234,-5.657885,4.069745,-0.976144,5.781036,-4.572957,-0.039302,0.472330,-0.007290,-46.231471,188.570946,1612.182385,-19.986247,0
0.094792,-95.814965,194.601664,-60.546765,-0.924254,3.300909,-5.849316,2.074823,-3.106673,5.794264,-2.455796,-0.024718,0.470332,0.007577,-107.184040,188.495613,1612.070349,-19.588224,0
0.095833,-158.405252,165.497529,3.650516,0.303010,4.794385,-5.096079,-0.121137,-4.633243,5.093172,-0.334829,0.037267,0.468747,0.022444,-159.614058,188.721916,1611.338040,-19.126419,0
0.096875,-186.033569,114.606400,65.624042,1.507755,5.564974,-3.568798,-2.216577,-5.329833,3.444063,1.755677,0.077375,0.462753,0.022444,-176.940620,188.571203,1610.958371,-18.369441,0
0.097917,-191.231535,36.231948,124.741925,2.678722,5.656711,-1.533810,-4.145774,-5.437286,1.433384,3.674829,0.143006,0.462133,0.011294,-176.163795,188.571087,1609.960723,-17.154337,0
0.098958,-159.885542,-30.080379,166.811012,3.455614,4.933824,0.542793,-5.247620,-4.681411,-0.639027,4.615366,0.124775,0.473157,-0.014723,-144.426578,188.495729,1609.071528,-15.899194,0
0.100000,-87.645119,-81.511778,196.922855,4.041097,3.212842,3.060518,-5.796610,-3.021452,-3.205288,5.217005,0.146652,0.458963,0.011294,-89.587279,188.721866,1607.863950,-15.584397,0
0.101041,-21.834354,-138.604272,183.215769,3.804652,1.411131,4.550346,-5.297880,-1.131766,-4.620700,4.558248,0.150299,0.419001,-0.003573,-24.638004,188.571020,1607.177639,-15.251595,0
0.102083,42.010224,-183.012155,132.944303,2.858871,-0.845595,5.686443,-4.025924,1.058047,-5.758321,3.362586,0.113837,0.468265,0.003860,47.280174,188.495781,1607.175761,-14.294643,0
0.103125,95.752669,-194.968576,59.657571,1.473977,-2.984898,5.836259,-2.073530,3.140407,-5.731865,1.264465,0.066437,0.464475,0.018727,107.782410,188.495671,1606.847871,-13.500024,0
0.104167,158.162156,-165.547325,-4.053644,0.269232,-4.482043,5.112152,0.064438,4.700324,-5.114551,-0.833656,0.026329,0.466198,-0.007290,160.088586,188.721898,1607.348317,-12.147280,0
0.105208,185.869573,-114.409552,-65.346676,-0.912995,-5.208598,3.551579,2.198539,5.400620,-3.438985,-2.935585,-0.028364,0.459928,-0.007290,177.347598,188.571125,1607.673925,-11.631251,0
0.106250,191.022339,-36.598860,-124.646833,-2.095221,-5.296666,1.529076,4.120004,5.526599,-1.454763,-4.839505,-0.042949,0.464337,0.003860,176.829715,188.495792,1607.491228,-11.549373,0
0.107292,160.128343,29.325882,-166.813134,-2.950928,-4.639830,-0.551689,5.245047,4.774430,0.697017,-5.818121,-0.072118,0.474810,0.018727,145.475281,188.495702,1607.526163,-12.106838,0
0.108333,89.187412,81.391512,-196.694095,-3.491375,-2.977559,-3.027799,5.797903,3.114470,3.210365,-6.419760,-0.061180,0.473294,0.026161,90.759823,188.721748,1607.621996,-12.702217,0
0.109375,23.489646,138.507496,-183.023464,-3.187373,-1.084111,-4.575888,5.237315,1.180321,4.621368,-5.741964,-0.075764,0.478600,-0.003573,25.607899,188.495761,1606.833314,-14.191727,0
0.110416,-41.123327,183.068064,-132.824909,-2.297889,1.157937,-5.645401,3.973091,-1.031723,5.723714,-4.508223,-0.057533,0.471021,0.000144,-46.704320,188.495665,1605.654940,-15.018144,0
0.111458,-95.701966,194.683879,-59.222233,-0.890476,3.341273,-5.782731,1.958840,-3.117789,5.750170,-2.417718,0.019036,0.463166,0.011294,-107.578082,188.495676,1604.893641,-15.195101,0
