1-Time,2-VGERA,3-VGERB,4-VGERC,5-VN,6-IGERAN,7-IGERBN,8-IGERCN,9-IGERAT,10-IGERBT,11-IGERCT,12-IN,13-IFD,14-IFAULT,15-VFAULT,16-Speed (rad/s),17-FAULT 
0.000000,-146.916957,182.786970,-8.703977,2.747088,1.314618,-4.937627,3.448365,-1.315789,4.860491,-3.501580,-0.106522,0.552606,-0.035692,25.314118,188.721813,0
0.001042,-168.036693,145.771080,67.030871,4.160838,2.919344,-4.750945,1.536411,-2.911065,4.743655,-1.719952,-0.124787,0.550842,-0.061832,24.850408,188.646437,0
0.002083,-189.020319,61.313480,120.101894,5.212668,4.637679,-4.084223,-0.810434,-4.590882,4.111129,0.663165,-0.154011,0.546923,-0.039427,24.782548,188.572161,0
0.003125,-166.153838,-12.247145,163.570644,6.049608,5.085014,-2.903172,-2.416789,-5.079757,2.950827,2.220185,-0.201500,0.542089,-0.091706,14.976778,188.495845,0
0.004167,-117.029468,-80.298877,184.597160,6.456768,4.971405,-0.708704,-4.418856,-4.973160,0.839723,4.192157,-0.227071,0.551299,-0.043161,6.154978,188.721855,0
0.005208,-37.949555,-134.421327,186.283713,6.524628,4.112238,1.062872,-5.272966,-4.149792,-1.001450,5.098198,-0.241683,0.547837,-0.058098,-6.444361,188.797487,0
0.006250,34.948696,-176.366225,156.270455,5.959128,2.741830,2.830638,-5.578566,-2.826522,-2.721758,5.459853,-0.252642,0.560184,-0.065566,-11.171941,188.571189,0
0.007292,101.325009,-178.939458,97.068750,4.850748,0.632965,4.297427,-4.791060,-0.727669,-4.168107,4.732736,-0.248989,0.557701,-0.024490,-16.566811,188.495664,0
0.008333,146.502188,-182.672457,9.195644,3.188178,-1.340990,5.086064,-3.631350,1.242533,-5.046391,3.533564,-0.241683,0.557767,-0.058098,-20.434831,188.721838,0
0.009375,167.905487,-145.052522,-66.379167,1.717878,-2.984769,4.887952,-1.644955,2.926027,-4.957756,1.675799,-0.179582,0.548490,-0.065566,-20.016361,188.797487,0
0.010417,188.900455,-61.742608,-119.597917,0.745218,-4.639198,4.183132,0.678382,4.587466,-4.293000,-0.654021,-0.150358,0.549078,-0.046895,-20.717581,188.571154,0
0.011458,166.113372,10.851544,-163.792993,-0.136962,-5.054581,2.998271,2.300409,5.087368,-3.168958,-2.195814,-0.077298,0.558812,-0.058098,-9.283171,188.571232,0
0.012500,117.987142,79.531483,-184.437879,-0.532812,-4.912570,0.834282,4.263296,4.914607,-1.005479,-4.228697,-0.077298,0.554304,-0.046895,-1.309622,188.721982,0
0.013542,40.302356,134.475435,-186.001326,-0.555432,-4.067603,-1.002061,5.105653,4.105942,0.855838,-5.157579,-0.011544,0.560575,-0.024490,10.622428,188.797461,0
0.014583,-33.174362,176.613628,-156.418940,-0.012552,-2.732699,-2.758398,5.462185,2.701806,2.604348,-5.439290,-0.037115,0.567565,-0.024490,17.555458,188.571205,0
0.015625,-100.787008,179.537207,-96.872538,1.141068,-0.567029,-4.198518,4.627665,0.625007,4.054726,-4.700752,-0.080951,0.555741,-0.020755,21.242518,188.646563,0
0.016667,-146.667422,183.076911,-8.593182,2.758398,1.332370,-4.952866,3.460119,-1.326816,4.900779,-3.486352,-0.080951,0.551757,-0.054364,25.302808,188.721951,0
0.017708,-168.286228,145.505300,66.587690,4.194768,3.032953,-4.773804,1.512903,-2.962525,4.755741,-1.678076,-0.157664,0.549340,-0.065566,25.427218,188.797394,0
0.018750,-189.383279,61.253075,119.695644,5.223978,4.712235,-4.068983,-0.841778,-4.568828,4.139331,0.670778,-0.183235,0.521838,-0.061832,25.031368,188.571221,0
0.019792,-166.131153,-12.174659,163.632197,6.049608,5.099215,-2.933651,-2.432461,-5.123866,2.991116,2.204957,-0.219765,0.551038,-0.073035,14.614858,188.646571,0
0.020833,-117.176921,-80.105582,184.498675,6.468078,4.953654,-0.723943,-4.446281,-4.958457,0.811521,4.230226,-0.227071,0.548752,-0.031958,5.702578,188.721982,0
0.021875,-38.006267,-134.336760,186.296023,6.490698,4.073185,1.120020,-5.261213,-4.179198,-1.005479,5.136267,-0.234377,0.545485,-0.061832,-5.539561,188.797331,0
0.022917,34.778558,-176.172931,156.479735,5.981748,2.727629,2.857307,-5.629499,-2.841225,-2.745931,5.444626,-0.270907,0.578279,-0.046895,-10.674301,188.571046,0
0.023958,101.143529,-178.866973,97.093372,4.782888,0.675568,4.266948,-4.775388,-0.749724,-4.216453,4.736543,-0.238030,0.558420,-0.061832,-16.465021,188.646681,0
0.025000,146.536216,-182.853671,9.441856,3.199488,-1.301937,5.067015,-3.639186,1.220479,-5.074592,3.560212,-0.212459,0.558616,-0.035692,-20.118151,188.721962,0
0.026042,167.860117,-145.282059,-66.059091,1.717878,-2.949266,4.846044,-1.644955,2.852512,-4.913439,1.717675,-0.201500,0.552541,-0.043161,-20.005051,188.797393,0
0.027083,188.764345,-62.298330,-119.364016,0.745218,-4.603695,4.228850,0.650957,4.521302,-4.284943,-0.650215,-0.139399,0.548164,-0.020755,-21.022951,188.646594,0
0.028125,166.260824,10.694492,-163.571402,-0.148272,-5.047480,3.040179,2.249476,5.065313,-3.172987,-2.157745,-0.110175,0.557048,-0.043161,-8.717671,188.646612,0
0.029167,118.213992,79.217380,-184.302463,-0.555432,-4.955173,0.899049,4.231953,4.885201,-1.057854,-4.163979,-0.088257,0.553716,-0.043161,-0.732812,188.721962,0
0.030208,40.529206,134.245897,-185.890531,-0.578052,-4.113757,-0.952534,5.074310,4.109618,0.726916,-5.054793,-0.066339,0.562993,-0.039427,9.966448,188.797364,0
0.031250,-32.595895,176.577385,-155.938826,-0.035172,-2.722048,-2.716490,5.407334,2.764294,2.507657,-5.405027,-0.066339,0.567500,-0.017021,16.548868,188.571096,0
0.032292,-100.605528,179.041890,-97.414205,1.095828,-0.659336,-4.072793,4.662926,0.735280,3.954005,-4.693138,-0.073645,0.558746,-0.043161,21.095488,188.721976,0
0.033333,-146.259092,182.702403,-9.257955,2.769708,1.222311,-4.918578,3.467955,-1.205517,4.816174,-3.577717,-0.084604,0.553259,-0.035692,25.325428,188.721976,0
0.034375,-167.775816,146.423449,66.501515,4.172148,2.858989,-4.750945,1.591262,-2.848577,4.755741,-1.773249,-0.117481,0.547249,-0.061832,24.782548,188.797331,0
0.035417,-188.192316,62.292033,119.867993,5.223978,4.577324,-4.114701,-0.704650,-4.543098,4.119187,0.552765,-0.164970,0.568806,-0.043161,24.725998,188.571154,0
0.036458,-166.879758,-11.884717,162.955114,6.060918,5.060162,-2.994608,-2.260072,-5.035648,3.039462,2.098364,-0.197847,0.539084,-0.020755,15.101188,188.721873,0
0.037500,-117.698676,-79.827722,184.018561,6.502008,4.943003,-0.822999,-4.297400,-4.965809,0.952530,4.058916,-0.245336,0.558224,-0.050629,6.505588,188.722070,0
0.038542,-38.720845,-133.744796,186.763826,6.513318,4.161941,0.944767,-5.159346,-4.241686,-0.880585,5.067743,-0.256295,0.553259,-0.050629,-6.444361,188.797451,0
0.039583,33.757733,-176.293740,155.691857,5.936508,2.841238,2.704914,-5.555058,-2.951498,-2.604922,5.406557,-0.274560,0.576384,-0.069301,-10.911811,188.571317,0
0.040625,100.735199,-178.879053,98.238258,4.862058,0.831780,4.160273,-4.849829,-0.889402,-4.071415,4.793647,-0.278213,0.559922,-0.084238,-16.521571,188.721929,0
0.041667,145.957748,-182.068412,10.340530,3.222108,-1.117322,5.009867,-3.752806,1.014637,-4.981929,3.655385,-0.241683,0.561555,-0.080503,-20.423521,188.722040,0
0.042708,167.599239,-146.635121,-65.714394,1.729188,-2.782403,4.842234,-1.848688,2.756942,-4.925526,1.854723,-0.212459,0.552475,-0.069301,-19.948501,188.797470,0
0.043750,186.790750,-63.844686,-119.881061,0.722598,-4.479436,4.251709,0.509911,4.392651,-4.341346,-0.421801,-0.157664,0.550189,-0.024490,-20.457451,188.571167,0
0.044792,167.224937,10.078366,-162.857387,-0.114342,-4.980025,3.143045,2.057497,4.991798,-3.277736,-1.997856,-0.128440,0.559661,-0.039427,-9.430201,188.722166,0
0.045833,119.076022,79.084490,-183.268372,-0.521502,-4.937422,1.040013,4.079153,4.885201,-1.210949,-3.927952,-0.055380,0.553651,-0.043161,-1.795952,188.721953,0
0.046875,41.504661,133.641852,-186.518372,-0.600672,-4.170562,-0.788710,5.011622,4.183133,0.630224,-5.005303,-0.059033,0.564560,-0.054364,10.588498,188.797333,0
0.047917,-31.166740,176.480738,-155.163258,-0.001242,-2.846308,-2.480280,5.352483,2.907648,2.342475,-5.336503,-0.048074,0.567435,-0.076769,17.159608,188.571223,0
0.048958,-100.208540,179.223103,-98.374432,1.095828,-0.858152,-3.939449,4.709941,0.937446,3.825083,-4.765469,-0.062686,0.561817,-0.054364,21.231208,188.721949,0
0.050000,-145.941502,181.965468,-10.132008,2.747088,1.051898,-4.800473,3.620754,-1.007026,4.731568,-3.680504,-0.095563,0.555741,-0.058098,25.291498,188.722049,0
0.051042,-167.719103,147.474487,66.415341,4.138218,2.706327,-4.747135,1.771487,-2.664789,4.739626,-1.963594,-0.139399,0.551103,-0.043161,25.280188,188.797345,0
0.052083,-186.286776,64.043764,120.471212,5.201358,4.424662,-4.168039,-0.465656,-4.348283,4.131273,0.350999,-0.179582,0.540978,-0.076769,24.714688,188.571123,0
0.053125,-167.719103,-11.401481,162.278031,6.026988,4.914600,-3.124143,-2.036749,-4.973160,3.180470,1.908019,-0.201500,0.523536,-0.061832,15.010708,188.571216,0
0.054167,-118.674131,-79.779398,182.762879,6.456768,4.928802,-1.040160,-4.089749,-4.899645,1.170087,3.860957,-0.241683,0.547772,-0.039427,6.505588,188.722098,0
0.055208,-39.344682,-133.406531,186.899243,6.513318,4.186793,0.746655,-5.065316,-4.245362,-0.671086,4.900240,-0.238030,0.530134,-0.035692,-5.777071,188.797315,0
0.056250,31.840851,-176.027960,154.928599,5.947818,2.993900,2.453464,-5.437520,-3.043392,-2.343049,5.284736,-0.278213,0.555219,-0.054364,-10.357621,188.571265,0
0.057292,100.315526,-178.468303,99.296970,4.895988,1.016395,3.954541,-4.896844,-1.084217,-3.926377,4.808874,-0.259948,0.557571,-0.031958,-16.408471,188.495875,0
0.058333,145.685528,-180.884484,11.411553,3.210798,-0.854602,4.842234,-3.831165,0.783064,-4.788546,3.746750,-0.238030,0.560053,-0.024490,-20.208631,188.722061,0
0.059375,167.531184,-147.855292,-65.369697,1.751808,-2.544534,4.804136,-2.056339,2.484937,-4.885238,2.064102,-0.164970,0.550777,-0.039427,-19.710991,188.797532,0
0.060417,184.476880,-66.333352,-120.471970,0.722598,-4.238017,4.297427,0.208230,4.164754,-4.373577,-0.170546,-0.161317,0.549144,-0.020755,-20.457451,188.571183,0
0.061458,168.200392,9.462240,-161.934091,-0.103032,-4.852215,3.329727,1.751898,4.859471,-3.446947,-1.777056,-0.121134,0.558224,-0.054364,-9.011731,188.496011,0
0.062500,120.312355,79.169056,-181.704925,-0.464952,-4.887718,1.310512,3.773554,4.826389,-1.476851,-3.672890,-0.073645,0.557440,-0.054364,-1.411412,188.719744,0
0.063542,42.196554,133.315668,-186.739963,-0.589362,-4.213165,-0.483923,4.796136,4.256648,0.376408,-4.818766,-0.073645,0.561033,-0.061832,9.819418,188.722041,0
0.064583,-29.249857,176.021664,-154.030682,0.021378,-3.027372,-2.183112,5.270206,3.069381,2.028226,-5.222296,-0.048074,0.567957,-0.043161,15.768478,188.571189,0
0.065625,-99.800210,179.029809,-99.568561,1.084518,-1.106671,-3.703238,4.745203,1.150639,3.599468,-4.792117,-0.033462,0.559334,-0.024490,20.948458,188.495799,0
0.066667,-145.476460,180.189575,-11.400000,2.724468,0.714621,-4.602361,3.746128,-0.709290,4.509983,-3.779483,-0.044421,0.554762,-0.039427,25.348048,188.721433,0
0.067708,-167.764473,148.875872,66.193750,4.183458,2.393903,-4.701417,2.073169,-2.374405,4.679193,-2.222463,-0.113828,0.551626,-0.043161,24.692068,188.571301,0
0.068750,-182.657176,66.991505,121.628409,5.246598,4.137090,-4.244236,-0.179646,-4.072602,4.223936,-0.029691,-0.150358,0.534315,-0.046895,24.284908,188.571353,0
0.069792,-169.238998,-10.749112,161.170076,6.015678,4.811642,-3.295586,-1.723314,-4.840833,3.353710,1.565399,-0.190541,0.560967,-0.076769,15.564898,188.495877,0
0.070833,-120.250738,-80.274715,180.177652,6.400218,4.886198,-1.325898,-3.737134,-4.870239,1.440018,3.503109,-0.219765,0.530787,-0.069301,7.896718,188.722056,0
0.071875,-40.546987,-132.874971,187.613258,6.569868,4.353657,0.441868,-4.810650,-4.348283,-0.372953,4.698474,-0.259948,0.548360,-0.076769,-6.455671,188.571158,0
0.072917,29.776516,-175.085650,153.648296,5.913888,3.199816,2.156296,-5.351325,-3.282315,-2.012685,5.200984,-0.263601,0.556068,-0.039427,-10.278451,188.571207,0
0.073958,99.351414,-179.156914,100.503409,4.895988,1.335920,3.710711,-4.943860,-1.374601,-3.660475,4.850750,-0.252642,0.559726,-0.046895,-16.442401,188.495767,0
0.075000,145.209143,-178.770325,13.085795,3.222108,-0.496024,4.670791,-4.023144,0.441220,-4.619335,3.952323,-0.241683,0.562143,-0.020755,-20.061601,188.722128,0
0.076042,168.075624,-149.353324,-64.557197,1.763118,-2.253411,4.785087,-2.354102,2.190877,-4.869122,2.387688,-0.227071,0.558289,-0.069301,-19.914571,188.495857,0
0.077083,180.382237,-69.486468,-122.096970,0.711288,-3.957545,4.385053,-0.113041,3.900100,-4.462211,0.194916,-0.161317,0.551626,-0.039427,-19.835401,188.571359,0
0.078125,169.742972,8.809871,-161.207766,-0.057792,-4.731506,3.527839,1.403201,4.708765,-3.583927,-1.392559,-0.080951,0.562078,-0.043161,-9.927841,188.495984,0
0.079167,122.104470,79.797263,-178.885796,-0.464952,-4.802511,1.588630,3.471873,4.796983,-1.754840,-3.345497,-0.121134,0.558289,0.001650,-2.960881,188.646728,0
0.080208,43.149324,133.086131,-187.453978,-0.623292,-4.365827,-0.167706,4.615911,4.370596,0.058131,-4.628421,-0.066339,0.563450,-0.058098,10.430158,188.496020,0
0.081250,-27.707277,175.200162,-152.824243,0.043998,-3.261690,-1.866895,5.129161,3.275223,1.693834,-5.108090,-0.059033,0.571027,-0.024490,16.311358,188.495911,0
0.082292,-99.062948,179.585530,-100.356440,1.061898,-1.394244,-3.474648,4.803972,1.466754,3.385941,-4.856834,-0.044421,0.560706,-0.058098,21.106798,188.495908,0
0.083333,-144.943362,178.304954,-13.000379,2.690538,0.427049,-4.461397,3.910682,-0.360094,4.336743,-3.962214,-0.080951,0.555023,-0.058098,24.850408,188.646657,0
0.084375,-168.195488,149.769859,65.381250,4.172148,2.113431,-4.663318,2.355260,-2.098724,4.667107,-2.511787,-0.073645,0.552345,-0.091706,25.189708,188.495935,0
0.085417,-179.424564,69.697627,122.994887,5.303148,3.881469,-4.270905,0.161214,-3.830002,4.324657,-0.372311,-0.128440,0.539214,-0.039427,24.217048,188.495866,0
0.086458,-170.123713,-10.229634,160.689963,5.981748,4.648330,-3.451789,-1.421633,-4.671749,3.470546,1.287495,-0.172276,0.549209,-0.039427,15.813718,188.495845,0
0.087500,-121.759291,-80.612980,177.863258,6.354978,4.751288,-1.554488,-3.455043,-4.719534,1.681748,3.225205,-0.245336,0.535425,-0.043161,8.032438,188.571446,0
0.088542,-41.613183,-132.621272,187.637879,6.524628,4.403360,0.190419,-4.677440,-4.429149,-0.135253,4.546198,-0.252642,0.557309,-0.076769,-5.924101,188.495922,0
0.089583,28.177223,-174.324553,152.564963,5.913888,3.356028,1.794362,-5.237705,-3.458751,-1.694408,5.052515,-0.252642,0.552867,-0.039427,-10.154041,188.497003,0
0.090626,98.852344,-179.168995,100.971212,4.941228,1.566688,3.470691,-4.971285,-1.617201,-3.374428,4.839329,-0.238030,0.560771,-0.031958,-16.419781,188.496118,0
0.091667,144.619333,-177.284374,14.686174,3.312588,-0.222652,4.480299,-4.136764,0.114078,-4.409836,4.051302,-0.216112,0.564430,-0.031958,-19.982431,188.345417,0
0.092708,168.540667,-149.715751,-63.744697,1.774428,-1.930336,4.769847,-2.593096,1.852708,-4.776459,2.642750,-0.197847,0.559138,-0.061832,-19.586581,188.495530,0
0.093750,177.546612,-72.252995,-123.192614,0.677358,-3.673523,4.423152,-0.496999,3.591337,-4.466240,0.545151,-0.168623,0.552410,-0.043161,-19.677061,188.496120,0
0.094792,170.310097,7.927965,-160.444508,-0.046482,-4.529140,3.645944,1.066258,4.513951,-3.728965,-1.084201,-0.132093,0.557505,-0.058098,-9.588541,188.496704,0
0.095834,124.021352,80.014719,-176.226705,-0.385782,-4.681802,1.779122,3.127094,4.624223,-1.988512,-3.006683,-0.084604,0.556787,-0.054364,-2.406691,188.345426,0
0.096875,43.988669,133.001564,-187.244698,-0.634602,-4.394229,0.057074,4.396506,4.414705,-0.187627,-4.392393,-0.059033,0.563123,-0.069301,9.502738,188.496226,0
0.097917,-26.255437,174.016233,-152.048675,0.043998,-3.364648,-1.565918,5.007705,3.473713,1.327211,-4.963428,-0.088257,0.568414,-0.031958,14.920228,188.419945,0
0.098959,-98.405083,180.153333,-100.430303,1.016658,-1.625012,-3.238438,4.811808,1.690975,3.095865,-4.826379,-0.059033,0.560380,-0.061832,20.824048,188.496355,0
0.100000,-144.387580,176.637790,-14.379167,2.645298,0.068471,-4.225187,4.016466,-0.021925,4.090985,-4.080228,-0.077298,0.554304,-0.050629,24.771238,188.271367,0
0.101042,-169.488533,149.721536,64.507197,4.172148,1.847160,-4.606171,2.609926,-1.815691,4.586530,-2.724973,-0.102869,0.555023,-0.073035,24.940888,188.496159,0
0.102085,-175.670196,72.766177,124.435228,5.291838,3.579696,-4.381390,0.537337,-3.524915,4.336743,-0.695897,-0.164970,0.553390,-0.043161,23.651548,188.422336,0
0.103125,-170.736208,-9.154433,160.037500,5.959128,4.509869,-3.634661,-1.072936,-4.506340,3.647814,0.956296,-0.135746,0.552475,-0.050629,16.073848,188.496165,0
0.104167,-123.993764,-81.265349,174.354735,6.287118,4.680282,-1.771649,-3.106346,-4.634991,1.911391,2.886392,-0.208806,0.507140,-0.035692,9.615838,188.269910,0
0.105208,-42.849515,-132.705838,187.797917,6.490698,4.477916,-0.076270,-4.508968,-4.440177,0.130650,4.329205,-0.234377,0.535752,-0.061832,-6.003271,188.420645,0
0.106250,26.509875,-172.874844,151.937122,5.925198,3.551294,1.501004,-5.135839,-3.598430,-1.372102,4.904047,-0.274560,0.547315,-0.054364,-9.792121,188.420752,0
0.107292,97.616011,-180.509976,101.340531,4.929918,1.850710,3.245911,-4.998711,-1.903909,-3.177016,4.907853,-0.252642,0.560706,-0.017021,-16.532881,188.496092,0
0.108333,144.018181,-175.472239,16.323485,3.301278,0.125275,4.285997,-4.281728,-0.205712,-4.204366,4.176929,-0.252642,0.563711,-0.028224,-19.371691,188.269971,0
0.109375,170.287412,-149.655347,-62.205871,1.774428,-1.656965,4.716509,-2.839927,1.558648,-4.756315,2.859743,-0.230724,0.561621,-0.058098,-20.027671,188.345209,0
0.110417,174.064464,-75.369868,-124.522159,0.654738,-3.407252,4.503158,-0.818270,3.315656,-4.518614,0.880158,-0.161317,0.554958,-0.043161,-19.258591,188.420687,0
0.111458,170.729769,6.973574,-160.185985,-0.057792,-4.411980,3.802148,0.842936,4.348542,-3.853858,-0.832946,-0.106522,0.558224,-0.076769,-10.572511,188.496049,0
0.112500,125.858837,80.715412,-173.530682,-0.317922,-4.660500,2.045811,2.880264,4.609520,-2.214126,-2.732587,-0.069992,0.557309,-0.046895,-4.261531,188.269897,0
0.113542,45.134261,133.219021,-187.269319,-0.566742,-4.479436,0.308524,4.302476,4.480869,-0.401155,-4.266766,-0.084604,0.554762,-0.013287,9.898588,188.269910,0
0.114583,-24.871652,173.025599,-151.740910,0.066618,-3.492458,-1.310659,4.898002,3.591337,1.093539,-4.807345,-0.051727,0.572269,-0.061832,15.440488,188.420712,0
0.115625,-97.259490,180.829863,-101.058144,1.039278,-1.830928,-3.028897,4.850987,1.871086,2.942770,-4.887290,-0.055380,0.557440,-0.061832,21.027628,188.420571,0
0.116667,-144.001935,175.550508,-15.622538,2.656608,-0.130345,-4.137560,4.141840,0.191269,3.986236,-4.171593,-0.080951,0.559530,-0.054364,24.160498,188.269823,0
0.117708,-170.361906,149.914830,62.968371,4.092978,1.616392,-4.590931,2.786233,-1.591470,4.550271,-2.915318,-0.095563,0.558420,-0.039427,25.370668,188.194482,0
0.118750,-173.980163,75.001144,125.309281,5.325768,3.398632,-4.408059,0.752823,-3.326424,4.389118,-0.950959,-0.175929,0.554500,-0.039427,23.855128,188.420681,0
0.119792,-170.838291,-8.502064,160.000569,6.015678,4.428212,-3.718478,-0.900547,-4.418122,3.720333,0.765951,-0.154011,0.559922,-0.046895,16.492318,188.345294,0
0.120833,-125.252781,-81.555291,173.135985,6.264498,4.609277,-1.962141,-2.890860,-4.598234,2.096716,2.654171,-0.227071,0.546857,-0.024490,9.547978,188.270006,0
0.121875,-43.915710,-133.007861,187.440910,6.490698,4.520520,-0.236283,-4.426692,-4.543098,0.283745,4.230226,-0.230724,0.552541,-0.046895,-5.754451,188.194499,0
0.122917,25.613818,-172.427851,151.974053,5.868648,3.632950,1.344800,-5.014382,-3.712378,-1.202891,4.846943,-0.212459,0.562405,-0.054364,-9.984391,188.345205,0
0.123958,97.003516,-180.606623,101.697538,4.907298,1.971420,3.089707,-5.053562,-2.036236,-3.080324,4.949729,-0.241683,0.564495,-0.050629,-16.476331,188.345247,0
0.125000,143.723276,-175.049407,17.369886,3.335208,0.267286,4.194561,-4.320907,-0.352743,-4.099617,4.272102,-0.259948,0.564756,-0.061832,-19.450861,188.269678,0
0.126042,171.047359,-149.522457,-61.024053,1.819668,-1.522054,4.659362,-2.992726,1.407942,-4.711998,2.981564,-0.227071,0.559792,-0.065566,-19.710991,188.194477,0
0.127083,173.111694,-76.879981,-124.854546,0.643428,-3.272341,4.522208,-0.986742,3.201708,-4.558903,1.036240,-0.175929,0.556068,-0.031958,-19.134181,188.345355,0
