1-Time,2-VGERA,3-VGERB,4-VGERC,5-VN,6-IGERAN,7-IGERBN,8-IGERCN,9-IGERAT,10-IGERBT,11-IGERCT,12-IN,13-IFD,14-IFAULT,15-VFAULT,16-Speed (rad/s),17-Active Power,18-Reactive Power,19-FAULT 
0.000000,79.490695,70.265430,-203.974811,-0.928662,-0.197800,-5.263836,5.039411,0.727928,5.339426,-4.889936,0.021333,0.335727,-0.028224,38.286688,188.719469,1510.747353,-906.328264,0
0.001042,25.250858,150.216853,-177.654735,-0.431022,2.326448,-6.379008,3.524475,-1.837746,6.485123,-3.484586,-0.059033,0.316652,-0.035692,12.873118,188.599069,1510.676502,-906.785410,0
0.002084,-23.941567,192.282560,-117.443561,0.699978,4.318154,-5.751972,0.998338,-3.807948,5.994110,-1.090155,-0.099216,0.317436,-0.069301,-5.607421,188.507479,1511.170378,-907.612674,0
0.003125,-91.928515,202.478843,-56.346023,1.853598,6.253055,-4.755857,-1.710637,-5.723013,4.986904,1.563998,-0.124787,0.295748,-0.050629,-35.194381,188.646621,1511.626364,-907.861825,0
0.004167,-154.108102,156.305628,-3.902841,2.905428,6.661337,-2.866811,-3.889757,-6.252321,3.144555,3.634665,-0.197847,0.306200,-0.061832,-63.989640,188.721985,1511.332367,-908.058700,0
0.005209,-205.058615,92.651345,48.589583,3.889398,6.235304,-0.406289,-5.535291,-5.829610,0.777621,5.328200,-0.219765,0.317697,-0.050629,-85.727460,188.571192,1512.285363,-908.483079,0
0.006251,-181.579639,39.736985,123.881250,5.291838,4.914600,2.014547,-6.386044,-4.546773,-1.660658,6.160736,-0.234377,0.323772,-0.046895,-79.631370,188.571067,1512.763549,-908.916680,0
0.007292,-135.461032,-11.208187,190.937122,6.535938,3.210467,3.931373,-6.408432,-2.866956,-3.700250,6.317282,-0.274560,0.340234,-0.039427,-59.182890,188.646310,1512.978224,-909.297991,0
0.008333,-78.895982,-69.909299,204.060228,6.784758,0.366694,5.570398,-5.113646,-0.036628,-5.282404,5.050688,-0.238030,0.294703,-0.024490,-33.316921,188.721933,1513.193101,-909.867121,0
0.009374,-24.644802,-149.546619,177.752463,6.332358,-2.122051,6.622073,-3.591247,2.514343,-6.461674,3.623992,-0.172276,0.321617,-0.020755,-8.717671,188.571140,1513.917875,-910.476488,0
0.010415,23.492770,-191.660650,118.378409,5.190048,-4.103106,6.010911,-1.132275,4.462490,-5.907711,1.314949,-0.168623,0.322466,-0.046895,10.724218,188.571015,1514.196630,-910.396097,0
0.011457,91.785966,-202.219360,57.477841,4.036428,-5.974103,4.963205,1.576700,6.366529,-4.917291,-1.406804,-0.102869,0.301693,-0.050629,39.700438,188.646475,1514.106927,-910.884394,0
0.012499,153.602594,-156.589786,4.185227,3.018528,-6.471142,3.094002,3.696118,6.943622,-3.100123,-3.466797,-0.069992,0.305416,-0.039427,69.162987,188.721953,1514.393364,-911.229640,0
0.013540,204.462366,-91.401228,-47.999432,2.068488,-5.977653,0.693008,5.401354,6.414313,-0.653452,-5.156774,-0.022503,0.315999,-0.058098,90.674606,188.571105,1513.615965,-911.124812,0
0.014582,181.550515,-38.825133,-122.921781,0.609498,-4.642749,-1.735765,6.252106,5.142504,1.696696,-5.932385,0.035945,0.334616,-0.087972,84.861267,188.571109,1512.854833,-910.481844,0
0.015624,135.681443,10.827382,-190.802463,-0.657222,-3.027372,-3.640685,6.304346,3.455335,3.719502,-6.167203,-0.011544,0.328410,-0.009553,64.627677,188.646444,1512.100026,-910.772460,0
0.016665,80.001108,70.023812,-203.950190,-0.917352,-0.172948,-5.279710,5.005829,0.720577,5.301656,-4.868589,-0.004238,0.329717,-0.043161,37.461058,188.721915,1511.511026,-910.712098,0
0.017707,24.853870,149.926911,-177.593182,-0.442332,2.337098,-6.339322,3.509549,-1.841421,6.443156,-3.445450,-0.055380,0.298949,-0.028224,13.008838,188.571132,1510.617907,-910.469498,0
0.018751,-23.998279,191.920133,-117.406629,0.711288,4.264900,-5.724192,0.979681,-3.774866,5.939553,-1.125734,-0.106522,0.309662,-0.054364,-5.890171,188.570989,1510.096026,-909.573595,0
0.019793,-91.792405,202.370115,-56.801515,1.910148,6.142997,-4.680454,-1.658398,-5.682580,4.965920,1.539093,-0.154011,0.297054,-0.043161,-34.719361,188.721833,1509.580332,-909.134158,0
0.020836,-154.130787,156.933835,-4.001326,2.848878,6.643586,-2.854905,-3.818861,-6.208212,3.169736,3.656012,-0.186888,0.304763,-0.024490,-64.419420,188.721849,1509.518045,-909.221353,0
0.021875,-204.854450,92.590940,48.454167,3.844158,6.135896,-0.434069,-5.524097,-5.741392,0.714670,5.331758,-0.241683,0.313647,-0.031958,-84.935760,188.646522,1507.974268,-909.654399,0
0.022918,-181.999311,38.963808,123.019508,5.257908,4.829394,1.935175,-6.322610,-4.465907,-1.639674,6.146505,-0.263601,0.320833,-0.058098,-78.522990,188.570986,1506.906321,-909.390493,0
0.023960,-134.950619,-11.389400,191.097160,6.569868,3.217567,3.907561,-6.363655,-2.833874,-3.624710,6.281703,-0.263601,0.354671,-0.058098,-58.402500,188.721925,1506.115447,-908.346769,0
0.025001,-79.190887,-69.885138,203.814016,6.807378,0.359593,5.487058,-5.068870,-0.036628,-5.223650,5.015110,-0.227071,0.314758,-0.031958,-31.891861,188.721847,1505.277994,-907.823094,0
0.026042,-25.847107,-149.945288,177.592425,6.309738,-2.150453,6.578418,-3.594979,2.477585,-6.394527,3.623992,-0.175929,0.321551,-0.076769,-8.378371,188.571024,1504.692630,-907.329073,0
0.027084,23.719620,-191.600245,118.107576,5.190048,-4.088905,5.967256,-1.076304,4.440436,-5.869941,1.272255,-0.124787,0.313974,-0.061832,10.633738,188.570988,1503.874430,-907.145200,0
0.028126,91.797308,-202.146875,56.653030,4.025118,-5.956351,4.971142,1.602819,6.340798,-4.892111,-1.385457,-0.099216,0.296662,-0.028224,39.372448,188.721728,1503.562122,-906.379476,0
0.029166,153.296346,-156.577705,3.680492,3.018528,-6.428538,3.058284,3.733432,6.899513,-3.058156,-3.463239,-0.044421,0.302934,-0.046895,68.597487,188.797347,1502.700470,-906.158329,0
0.030207,204.530421,-91.956949,-47.913258,2.068488,-5.974103,0.653323,5.472250,6.414313,-0.661845,-5.160332,-0.007891,0.318089,-0.058098,90.618056,188.571118,1502.801493,-906.361140,0
0.031249,181.754680,-40.093628,-122.946402,0.654738,-4.660500,-1.743702,6.323002,5.138828,1.721877,-6.028447,-0.022503,0.323054,-0.050629,82.146867,188.571250,1503.424993,-907.985107,0
0.032290,135.602045,10.911948,-190.900948,-0.645912,-3.030922,-3.668465,6.360316,3.484741,3.757273,-6.163645,0.028639,0.338340,-0.054364,63.417507,188.721985,1503.755420,-908.163449,0
0.033332,79.002968,70.072135,-204.208713,-0.883422,-0.165848,-5.307490,5.028217,0.742631,5.322639,-4.882820,0.010374,0.310969,-0.039427,37.732498,188.797233,1504.246879,-907.805557,0
0.034373,24.468225,149.794021,-177.753220,-0.408402,2.358400,-6.371071,3.572983,-1.929639,6.531287,-3.473913,-0.077298,0.339777,-0.035692,12.748708,188.571158,1505.236817,-909.200251,0
0.035415,-23.658004,192.089266,-118.182197,0.677358,4.289751,-5.787689,1.031920,-3.785893,6.015093,-1.150639,-0.084604,0.291567,-0.035692,-5.381221,188.646504,1506.346795,-909.766490,0
0.036457,-92.087310,202.285549,-57.650947,1.808358,6.199801,-4.716171,-1.688249,-5.711986,4.991100,1.549767,-0.150358,0.300059,-0.039427,-35.160451,188.721804,1506.794004,-910.367284,0
0.037499,-154.255555,156.776783,-4.185985,2.837568,6.664888,-2.846968,-3.871100,-6.285403,3.165539,3.691591,-0.201500,0.304306,-0.031958,-63.978330,188.795156,1507.471174,-911.275264,0
0.038540,-205.013245,91.962733,48.207955,3.855468,6.217553,-0.390415,-5.553948,-5.778150,0.748244,5.378010,-0.267254,0.310250,-0.069301,-85.761390,188.571143,1508.276498,-911.369963,0
0.039585,-181.443529,38.540976,123.450379,5.291838,4.864897,1.978830,-6.400969,-4.517367,-1.677445,6.164294,-0.289172,0.326059,-0.028224,-79.699230,188.646609,1508.913782,-911.470893,0
0.040627,-135.506402,-11.159863,190.937122,6.524628,3.224668,3.919467,-6.415895,-2.848577,-3.670874,6.338629,-0.292825,0.325210,-0.046895,-59.420400,188.721891,1509.721589,-912.427196,0
0.041666,-80.268424,-69.885138,203.887879,6.739518,0.380895,5.538649,-5.165886,-0.066034,-5.294994,5.068477,-0.223418,0.329717,-0.043161,-33.814561,188.797206,1510.992827,-913.323721,0
0.042710,-25.234612,-149.776156,177.715531,6.298428,-2.175305,6.630010,-3.587516,2.518018,-6.470068,3.620434,-0.197847,0.320441,-0.061832,-8.480161,188.573933,1511.612964,-914.138975,0
0.043752,23.753648,-191.950592,117.356629,5.167428,-4.113757,6.010911,-1.109886,4.524978,-5.907711,1.268697,-0.146705,0.304763,-0.058098,10.893868,188.721965,1512.312313,-914.952042,0
0.044792,91.513746,-202.219360,56.591477,4.059048,-5.970553,5.010828,1.636402,6.399610,-4.908898,-1.381899,-0.080951,0.298753,-0.050629,39.847468,188.721826,1512.832978,-915.475546,0
0.045835,153.681991,-156.324006,4.419129,3.075078,-6.428538,3.097970,3.759551,6.914216,-3.083337,-3.470355,-0.066339,0.306657,-0.020755,69.343947,188.797121,1513.171686,-915.643675,0
0.046875,204.632503,-92.621399,-48.270265,2.011938,-6.002505,0.665228,5.431205,6.410638,-0.678632,-5.149658,0.006721,0.317371,-0.061832,90.719846,188.571002,1513.392494,-915.562046,0
0.047917,181.414405,-39.247965,-123.143372,0.620808,-4.653399,-1.787356,6.296883,5.149855,1.721877,-5.982195,-0.018850,0.322923,-0.050629,84.646377,188.646533,1513.187953,-914.720240,0
0.048959,134.887468,11.612641,-190.962501,-0.668532,-2.963467,-3.652591,6.300614,3.473713,3.769863,-6.135182,-0.007891,0.319461,-0.035692,64.333617,188.722098,1512.856729,-914.332825,0
0.049999,78.628665,70.096297,-204.171781,-0.872112,-0.208451,-5.279710,5.031948,0.687495,5.326836,-4.886378,-0.000585,0.332134,-0.035692,37.370578,188.797291,1512.579771,-914.738986,0
0.051040,25.205488,149.818183,-177.642425,-0.453642,2.333548,-6.307573,3.490893,-1.789961,6.485123,-3.502375,-0.029809,0.303783,-0.061832,13.529098,188.571149,1512.612659,-912.973540,0
0.052082,-23.487867,191.714758,-118.637690,0.699978,4.289751,-5.728160,1.039383,-3.763839,5.939553,-1.182659,-0.095563,0.318089,-0.031958,-5.720521,188.721866,1511.823028,-912.423997,0
0.053124,-91.678980,202.539248,-57.084659,1.842288,6.174949,-4.700297,-1.691980,-5.671553,4.995297,1.571114,-0.146705,0.298165,-0.054364,-34.447921,188.721938,1511.482386,-912.196673,0
0.054165,-153.609032,157.115049,-3.841288,2.848878,6.618734,-2.858874,-3.826324,-6.237618,3.140359,3.602645,-0.186888,0.304175,-0.076769,-64.114050,188.797396,1510.652021,-911.028516,0
0.055207,-204.854450,91.829844,48.171023,3.866778,6.206902,-0.438038,-5.512903,-5.767122,0.735654,5.338874,-0.256295,0.311491,-0.039427,-84.867900,188.571230,1510.184283,-910.631881,0
0.056249,-182.101394,39.785309,123.007197,5.257908,4.832944,1.998673,-6.341267,-4.495313,-1.585117,6.132274,-0.256295,0.316391,-0.073035,-78.602160,188.721902,1509.861513,-910.063089,0
0.057298,-135.472374,-11.051135,191.454167,6.569868,3.174964,3.919467,-6.419626,-2.859604,-3.662480,6.292377,-0.248989,0.338144,-0.039427,-58.447740,188.721817,1509.612736,-909.745849,0
0.058345,-78.895982,-71.093228,203.469319,6.784758,0.306339,5.558492,-5.080064,-0.058682,-5.274010,4.997320,-0.248989,0.328802,-0.024490,-31.054921,188.797418,1508.844241,-908.713177,0
0.059376,-24.554062,-150.078178,177.444698,6.321048,-2.125601,6.606198,-3.598710,2.506991,-6.394527,3.602645,-0.172276,0.311883,-0.065566,-7.699771,188.571058,1508.123987,-907.764579,0
0.060416,23.708278,-191.515679,117.910606,5.235288,-4.064053,6.002974,-1.143469,4.466166,-5.903514,1.339854,-0.161317,0.299667,-0.058098,10.577188,188.706217,1508.385196,-906.695176,0
0.061457,91.604486,-202.316007,57.699432,4.059048,-5.945701,5.026702,1.584163,6.344474,-4.896308,-1.374783,-0.102869,0.302346,-0.031958,39.270658,188.721643,1507.882104,-906.559136,0
0.062499,153.670649,-157.181750,4.616098,3.041148,-6.400136,3.105907,3.744626,6.910540,-3.091730,-3.502375,-0.077298,0.306984,-0.031958,68.608797,188.721880,1508.047386,-907.220798,0
0.063540,204.632503,-92.114001,-47.864015,1.978008,-5.998955,0.673166,5.423742,6.451071,-0.653452,-5.160332,0.003068,0.314039,-0.050629,90.618056,188.571178,1508.208896,-907.533138,0
0.064582,181.493802,-38.764729,-122.724811,0.643428,-4.649849,-1.723859,6.270763,5.204992,1.793220,-6.064025,-0.000585,0.287321,-0.039427,82.033767,188.722009,1509.190889,-908.747258,0
0.065624,134.864783,11.310618,-190.876326,-0.657222,-3.006070,-3.672434,6.364047,3.514147,3.744683,-6.188550,-0.029809,0.327953,-0.031958,63.383577,188.797340,1509.996393,-908.512548,0
0.066665,79.513380,70.023812,-204.036364,-0.906042,-0.212001,-5.323365,5.061799,0.724252,5.335229,-4.939746,-0.044421,0.330501,-0.050629,38.343238,188.721889,1510.852054,-908.593158,0
0.067707,25.625160,149.963154,-177.839394,-0.453642,2.369051,-6.402819,3.565520,-1.881855,6.514500,-3.488144,-0.069992,0.318089,-0.043161,12.986218,188.571198,1510.841191,-910.111964,0
0.068749,-23.589949,192.282560,-117.677462,0.699978,4.321704,-5.791658,1.020726,-3.852057,6.061257,-1.132850,-0.095563,0.320375,-0.043161,-5.426461,188.721967,1512.188189,-911.525276,0
0.069794,-92.098652,202.333872,-56.382955,1.864908,6.253055,-4.747920,-1.721831,-5.756095,4.986904,1.549767,-0.139399,0.295421,-0.061832,-35.330101,188.797329,1512.894474,-911.688133,0
0.070835,-154.266897,155.906958,-4.087500,2.894118,6.725242,-2.870780,-3.882294,-6.289079,3.140359,3.688033,-0.230724,0.306265,-0.065566,-64.068810,188.646547,1513.364745,-912.653015,0
0.071875,-205.206067,92.627183,48.441856,3.866778,6.270807,-0.398352,-5.553948,-5.829610,0.739851,5.363779,-0.245336,0.316979,-0.065566,-85.840560,188.570957,1514.469300,-913.299087,0
0.072917,-181.579639,40.075251,123.733523,5.269218,4.886198,2.034390,-6.438283,-4.517367,-1.685838,6.178526,-0.259948,0.325079,-0.046895,-79.676610,188.721784,1514.877479,-914.676627,0
0.073959,-135.438347,-11.087378,191.072538,6.535938,3.174964,3.967090,-6.453208,-2.848577,-3.729627,6.377765,-0.303784,0.329194,-0.058098,-59.182890,188.797365,1515.659740,-915.858006,0
0.075001,-78.861954,-69.957623,204.084849,6.750828,0.338292,5.598178,-5.162154,-0.066034,-5.320174,5.057804,-0.208806,0.315411,-0.028224,-33.215131,188.646542,1516.494738,-916.599392,0
0.076042,-24.599432,-149.751994,177.752463,6.287118,-2.125601,6.689539,-3.624830,2.558452,-6.491051,3.638223,-0.208806,0.318742,-0.058098,-8.683741,188.646583,1517.608163,-917.836939,0
0.077084,23.333975,-192.035158,117.972159,5.223978,-4.138609,6.066471,-1.102424,4.473517,-5.916104,1.258024,-0.175929,0.310119,-0.024490,10.588498,188.721900,1517.181538,-918.830738,0
0.078126,91.990131,-202.134794,57.502462,4.036428,-6.020256,4.971142,1.617745,6.443720,-4.900505,-1.424593,-0.080951,0.300582,-0.058098,39.926638,188.797418,1517.759671,-920.089125,0
0.079167,154.022266,-155.985740,4.369886,3.075078,-6.474692,3.094002,3.770745,6.950973,-3.079140,-3.541512,-0.040768,0.305285,-0.028224,69.321327,188.646681,1517.988050,-920.366721,0
0.080208,204.779956,-91.364985,-47.950190,2.045868,-5.981203,0.645385,5.490907,6.491504,-0.657648,-5.181679,-0.000585,0.311099,-0.050629,90.832946,188.646447,1518.615324,-920.344759,0
0.081249,181.300980,-38.885538,-122.897159,0.643428,-4.674701,-1.759576,6.315540,5.168234,1.751253,-6.049794,0.017680,0.307898,-0.017021,84.748167,188.721922,1518.213799,-919.831526,0
0.082290,135.522648,10.646169,-190.974811,-0.657222,-3.016721,-3.708151,6.371510,3.455335,3.769863,-6.195665,0.017680,0.330762,-0.039427,64.627677,188.797396,1517.785172,-920.999658,0
0.083332,79.876340,70.035893,-204.036364,-0.917352,-0.158747,-5.303522,5.009560,0.669116,5.322639,-4.897051,-0.007891,0.338013,-0.061832,37.393198,188.646552,1516.893069,-921.548215,0
0.084374,25.205488,149.902749,-177.716288,-0.419712,2.372601,-6.367102,3.490893,-1.867152,6.489320,-3.473913,-0.062686,0.314300,-0.054364,13.099318,188.571270,1516.539502,-921.066646,0
0.085415,-23.533237,192.053023,-117.505114,0.711288,4.307503,-5.803563,0.998338,-3.837354,5.968930,-1.125734,-0.091910,0.317762,-0.050629,-5.675281,188.722063,1515.294129,-920.608748,0
0.086457,-91.667637,202.539248,-57.084659,1.864908,6.192701,-4.747920,-1.703174,-5.723013,4.986904,1.556883,-0.179582,0.300386,-0.039427,-34.538401,188.797400,1514.888304,-920.779960,0
0.087499,-154.051390,157.066725,-4.715341,2.837568,6.657787,-2.866811,-3.900951,-6.278052,3.190719,3.688033,-0.205153,0.307506,-0.050629,-64.385490,188.571283,1515.284142,-921.028309,0
0.088540,-205.160697,92.760073,48.171023,3.878088,6.185600,-0.394384,-5.572605,-5.770798,0.752441,5.338874,-0.285519,0.314170,-0.058098,-84.969690,188.646545,1514.504551,-920.635416,0
0.089582,-181.806489,39.434963,122.810228,5.212668,4.836494,1.998673,-6.386044,-4.524719,-1.660658,6.228335,-0.267254,0.319265,-0.084238,-78.522990,188.721958,1514.855140,-920.636297,0
0.090627,-134.837194,-11.111540,191.294129,6.535938,3.192716,3.919467,-6.400969,-2.844901,-3.700250,6.320839,-0.245336,0.329194,-0.031958,-58.425120,188.797237,1514.140452,-919.850549,0
0.091668,-79.077462,-69.848895,203.875569,6.796068,0.373795,5.586272,-5.083795,-0.043979,-5.269814,5.043572,-0.227071,0.353757,-0.035692,-31.846621,188.571208,1513.451815,-919.616629,0
0.092708,-25.915162,-150.102340,177.727841,6.332358,-2.132702,6.614136,-3.621098,2.536397,-6.415511,3.616876,-0.179582,0.311099,-0.035692,-8.457541,188.722025,1512.522367,-919.416508,0
0.093752,23.288605,-191.890187,118.095266,5.156118,-4.124408,6.018848,-1.102424,4.469842,-5.916104,1.272255,-0.183235,0.317697,-0.080503,10.441468,188.721934,1512.573920,-919.304657,0
0.094793,91.842678,-202.279765,56.850000,4.047738,-5.956351,4.983048,1.591625,6.399610,-4.921488,-1.410362,-0.113828,0.296662,-0.028224,39.372448,188.797280,1512.635338,-918.523894,0
0.095838,153.772731,-155.707880,3.889773,3.041148,-6.456941,3.121782,3.796865,6.973028,-3.104320,-3.516607,-0.055380,0.303130,-0.087972,68.936787,188.571035,1513.054060,-917.974384,0
0.096875,204.882038,-91.824059,-47.839394,2.068488,-6.045108,0.696977,5.475981,6.454747,-0.653452,-5.210142,0.043251,0.316260,-0.028224,90.697226,188.646518,1512.766335,-918.470846,0
0.097917,181.312322,-39.996981,-123.561932,0.632118,-4.642749,-1.751639,6.345391,5.201316,1.755450,-6.042678,-0.004238,0.320571,-0.054364,81.999837,188.721806,1513.205494,-918.749737,0
0.098958,135.363853,10.791139,-191.159470,-0.657222,-2.991869,-3.688308,6.382704,3.470038,3.761469,-6.217013,-0.026156,0.334878,-0.069301,63.383577,188.793731,1513.637669,-918.565770,0
0.100000,78.878200,70.192944,-204.122539,-0.883422,-0.148096,-5.363050,5.091650,0.731604,5.389786,-4.961093,-0.000585,0.317762,-0.046895,37.619398,188.618714,1515.207508,-918.225146,0
0.101041,24.570308,149.987315,-177.790152,-0.431022,2.358400,-6.406788,3.535669,-1.914936,6.556467,-3.470355,-0.040768,0.328868,-0.058098,12.737398,188.720413,1515.829214,-919.024844,0
0.102082,-23.408469,192.367127,-117.689773,0.733908,4.382059,-5.839281,1.035651,-3.852057,6.031880,-1.171986,-0.084604,0.302280,-0.009553,-5.222881,188.739209,1517.058448,-919.138263,0
0.103124,-92.098652,202.442601,-57.860227,1.830978,6.238854,-4.767763,-1.699443,-5.756095,5.045657,1.578230,-0.161317,0.298034,-0.043161,-35.228311,188.598933,1517.920650,-919.785600,0
0.104165,-154.437035,156.474761,-4.863068,2.837568,6.742994,-2.870780,-3.949459,-6.281727,3.144555,3.695149,-0.234377,0.305612,-0.046895,-63.978330,188.573504,1517.500063,-919.992712,0
0.105207,-205.342177,91.950653,47.974053,3.855468,6.274357,-0.426132,-5.594993,-5.825934,0.731457,5.388684,-0.241683,0.312275,-0.028224,-85.908420,188.647011,1518.154741,-920.581820,0
0.106249,-181.262049,39.048374,123.105682,5.314458,4.935902,2.022484,-6.464402,-4.561476,-1.685838,6.210546,-0.252642,0.323250,-0.046895,-79.597440,188.722377,1518.320928,-920.304854,0
0.107290,-135.404319,-10.579980,190.838637,6.558558,3.245970,3.975027,-6.460671,-2.889010,-3.712841,6.370649,-0.256295,0.324556,-0.050629,-59.488260,188.646737,1519.087561,-920.723339,0
0.108332,-80.325137,-69.607277,203.974054,6.807378,0.387996,5.598178,-5.143497,-0.088088,-5.299190,5.104056,-0.197847,0.331350,-0.031958,-33.859801,188.571487,1520.219306,-921.182564,0
0.109374,-25.756367,-149.691589,177.912501,6.287118,-2.146903,6.685570,-3.580053,2.569479,-6.499445,3.627549,-0.183235,0.303326,-0.039427,-8.672431,188.646866,1520.945080,-922.120358,0
0.110415,23.163838,-192.083482,117.430493,5.190048,-4.152810,6.062502,-1.094961,4.499248,-5.941284,1.243792,-0.135746,0.322531,-0.039427,10.577188,188.722311,1521.056400,-922.558679,0
