1-Time,2-VGERA,3-VGERB,4-VGERC,5-VN,6-IGERAN,7-IGERBN,8-IGERCN,9-IGERAT,10-IGERBT,11-IGERCT,12-IN,13-IFD,14-IFAULT,15-VFAULT,16-Speed (rad/s),17-Active Power,18-Reactive Power,19-FAULT 
0.000000,125.529905,74.807850,-192.415152,-0.668532,-6.027357,0.780317,5.378966,6.105550,-0.821319,-5.053597,0.017680,0.590037,-0.028224,46.904907,188.496121,1618.801598,894.587763,0
0.001041,46.722211,128.579953,-193.818561,-0.736392,-4.632098,-1.704016,6.192404,4.778605,1.667320,-5.886133,0.017680,0.599509,-0.028224,-44.072731,188.496503,1617.455223,893.891961,0
0.002083,-26.414232,176.746518,-164.445455,-0.193512,-2.711397,-3.966109,6.408824,2.859863,3.971304,-6.152971,0.006721,0.613423,0.001650,-123.525479,188.420989,1617.425861,894.011033,0
0.003125,-93.777342,185.952167,-106.056250,0.892248,-0.187149,-5.446391,5.132695,0.338299,5.448540,-4.985998,-0.007891,0.602514,-0.024490,-177.033088,188.496181,1616.370907,894.191119,0
0.004169,-141.325104,191.606030,-15.807197,2.645298,2.379702,-6.295668,3.427459,-2.186942,6.376009,-3.352946,-0.004238,0.587555,-0.035692,-211.709547,188.495327,1615.886323,894.654644,0
0.005208,-169.477191,151.871936,59.890720,4.059048,4.325254,-5.966275,1.173712,-4.249038,6.161978,-1.250258,-0.059033,0.593434,-0.043161,-208.384407,188.496301,1615.341148,894.801639,0
0.006250,-195.542257,72.053404,111.989205,5.009088,6.079092,-4.795543,-1.535263,-5.961937,4.999494,1.443032,-0.143052,0.589580,-0.031958,-183.864328,188.496120,1615.347666,894.269110,0
0.007291,-172.074623,-4.430800,161.182387,5.970438,6.600983,-3.152549,-3.494232,-6.531678,3.371177,3.350037,-0.164970,0.590168,-0.039427,-118.662179,188.496221,1614.982841,894.665248,0
0.008333,-125.456946,-74.802065,192.525190,6.603798,6.185600,-0.584876,-5.397231,-6.131022,0.945488,5.207233,-0.205153,0.616036,-0.031958,-42.229201,188.497095,1613.846390,895.684186,0
0.009376,-46.331663,-128.791625,193.633145,6.603798,4.854246,1.911364,-6.180818,-4.807752,-1.585117,6.068232,-0.238030,0.613554,-0.065566,50.003847,188.495531,1612.145579,895.794791,0
0.010417,26.952233,-176.644086,164.210796,6.038298,2.976149,4.193299,-6.415895,-3.021337,-3.901692,6.288819,-0.252642,0.612770,-0.043161,128.076776,188.420392,1611.135158,896.917045,0
0.011458,93.861643,-185.861816,105.821591,4.907298,0.370244,5.621990,-5.162154,-0.437285,-5.374731,5.168097,-0.227071,0.601796,-0.031958,182.308224,188.495600,1610.270172,897.773147,0
0.012500,141.159870,-191.346546,15.867992,3.289968,-2.182406,6.538732,-3.524083,2.150443,-6.348364,3.517256,-0.205153,0.587424,-0.050629,217.799004,188.495759,1609.128574,898.283098,0
0.013541,169.380012,-151.092974,-59.928409,1.853598,-4.124408,6.157748,-1.251679,4.194160,-6.096562,1.414569,-0.172276,0.593891,-0.058098,213.410724,188.495667,1608.271521,898.636315,0
0.014583,195.297625,-69.244850,-111.940720,0.847008,-5.871145,5.006859,1.446102,5.921763,-4.929881,-1.239585,-0.121134,0.589710,-0.005818,189.184704,188.420253,1607.720000,898.782909,0
0.015625,171.444347,5.028548,-161.392425,-0.091722,-6.364633,3.312274,3.419997,6.480477,-3.322548,-3.171496,-0.040768,0.576058,-0.050629,124.208756,188.495541,1607.174383,899.759799,0
0.016666,124.940095,75.629351,-192.476705,-0.702462,-5.998955,0.768412,5.311801,6.094523,-0.787746,-5.057154,-0.018850,0.588143,-0.058098,44.484567,188.495750,1607.034542,899.686941,0
0.017708,45.724071,129.244403,-193.596970,-0.713772,-4.585944,-1.700048,6.151359,4.741847,1.650533,-5.871901,0.017680,0.604409,-0.031958,-43.937011,188.495671,1606.280187,899.880193,0
0.018750,-27.593852,176.637790,-164.346970,-0.159582,-2.743350,-3.974046,6.371510,2.867215,3.967107,-6.152971,0.050557,0.611333,-0.031958,-125.323769,188.420450,1605.950770,900.390770,0
0.019791,-94.253727,186.169623,-104.874432,0.971418,-0.144546,-5.414642,5.084188,0.371380,5.469523,-4.978882,-0.018850,0.597745,-0.043161,-178.367668,188.495653,1605.656761,901.142180,0
0.020833,-141.812832,191.328169,-15.203977,2.656608,2.376152,-6.295668,3.397608,-2.253105,6.409582,-3.313810,-0.059033,0.588469,-0.035692,-211.867887,188.495642,1606.407118,900.691186,0
0.021875,-170.032973,150.675927,60.444697,4.059048,4.346556,-5.974212,1.173712,-4.245362,6.132601,-1.236027,-0.084604,0.592519,-0.013287,-211.279767,188.495633,1605.799296,900.784070,0
0.022916,-196.052669,69.105663,112.124622,5.009088,6.036488,-4.771731,-1.572576,-5.928855,5.003690,1.457263,-0.117481,0.589841,0.009119,-184.237558,188.557192,1604.798106,901.500176,0
0.023958,-171.144538,-5.107330,161.871781,5.947818,6.519326,-3.112863,-3.509157,-6.454488,3.333407,3.389174,-0.161317,0.585726,-0.046895,-119.499119,188.495765,1604.040019,900.789860,0
0.025000,-124.980561,-75.599405,192.463637,6.581178,6.196251,-0.557095,-5.449470,-6.142049,0.832178,5.160981,-0.241683,0.611398,-0.035692,-40.928551,188.420698,1603.824696,900.051141,0
0.026041,-45.662455,-129.431913,193.189963,6.626418,4.797441,1.903427,-6.244251,-4.778346,-1.622888,6.068232,-0.227071,0.602775,-0.039427,50.750307,188.469932,1603.743559,899.779793,0
0.027083,28.018428,-176.535358,164.260038,6.106158,2.912244,4.169488,-6.415895,-2.922092,-3.905888,6.303050,-0.270907,0.611790,0.009119,128.732756,188.488208,1603.862733,899.049371,0
0.028124,94.746358,-185.753088,104.541288,4.884678,0.338292,5.665644,-5.169617,-0.396852,-5.374731,5.125403,-0.252642,0.598399,-0.046895,183.292194,188.502433,1603.359818,898.785676,0
0.029166,141.658940,-191.129090,15.030871,3.256038,-2.168205,6.510952,-3.494232,2.179849,-6.314790,3.485236,-0.164970,0.589580,-0.054364,216.939444,188.440879,1602.999927,898.473832,0
0.030208,169.595519,-150.066097,-60.543940,1.876218,-4.124408,6.149811,-1.255410,4.164754,-6.117546,1.389664,-0.135746,0.592323,-0.031958,215.141154,188.501905,1602.543062,898.855550,0
0.031250,195.671928,-68.375025,-112.273106,0.858318,-5.853393,4.963205,1.494610,5.881330,-4.913095,-1.236027,-0.091910,0.591148,-0.031958,189.162084,188.420517,1601.846631,899.050872,0
0.032291,170.605002,5.910454,-161.810985,-0.057792,-6.322030,3.256714,3.449848,6.370204,-3.326745,-3.185727,-0.048074,0.598921,-0.050629,122.738456,188.495774,1600.429550,898.801555,0
0.033333,124.372970,76.209235,-192.378220,-0.679842,-5.924399,0.816035,5.345383,6.039387,-0.829713,-4.996671,-0.018850,0.579128,-0.009553,45.174477,188.420311,1598.817283,899.147382,0
0.034374,45.315741,129.896772,-193.006061,-0.725082,-4.614346,-1.664330,6.117777,4.741847,1.654730,-5.861228,0.014027,0.598529,-0.031958,-45.882331,188.495707,1598.447003,899.392511,0
0.035416,-28.614677,176.891489,-164.051516,-0.216132,-2.750450,-3.922455,6.319271,2.834133,3.946124,-6.078256,0.039598,0.606826,-0.031958,-124.927919,188.421101,1597.297119,899.020058,0
0.036458,-95.161127,185.710549,-104.308144,0.892248,-0.180049,-5.394799,5.087919,0.397111,5.406573,-4.950419,0.021333,0.597941,-0.024490,-177.994438,188.496009,1595.848038,899.386202,0
0.037500,-142.243847,191.050308,-14.416099,2.633988,2.333548,-6.283762,3.416265,-2.205321,6.371812,-3.367177,-0.026156,0.587816,-0.020755,-211.698237,188.420595,1594.844557,900.616669,0
0.038541,-169.964918,150.325581,61.306440,4.081668,4.268450,-5.910715,1.181175,-4.179198,6.107421,-1.243143,-0.077298,0.592715,-0.020755,-208.135587,188.496071,1593.631570,901.041884,0
0.039583,-196.075354,68.199595,112.986364,5.043018,5.997435,-4.747920,-1.509143,-5.914152,4.961723,1.414569,-0.154011,0.588927,-0.061832,-183.197038,188.495951,1592.725350,901.515397,0
0.040624,-170.940373,-5.916751,162.142614,5.936508,6.483823,-3.100958,-3.490500,-6.443460,3.350193,3.271765,-0.190541,0.575992,-0.020755,-117.022229,188.496074,1591.178422,902.737832,0
0.041666,-124.163901,-76.251774,192.500569,6.535938,6.142997,-0.624561,-5.333797,-6.050155,0.869948,5.150308,-0.278213,0.544244,-0.035692,-40.510081,188.420600,1589.865976,902.701727,0
0.042708,-45.208755,-129.758098,192.820645,6.592488,4.776140,1.863741,-6.180818,-4.800400,-1.547347,5.989960,-0.238030,0.607283,-0.050629,51.406287,188.496047,1588.122314,903.577777,0
0.043749,28.925828,-176.813219,163.841478,6.072228,2.944196,4.094085,-6.378581,-2.962525,-3.872315,6.239009,-0.252642,0.623353,-0.046895,129.535766,188.420685,1586.816956,904.180594,0
0.044791,95.426908,-185.463146,104.122728,4.895988,0.395096,5.614052,-5.165886,-0.411555,-5.383124,5.175213,-0.197847,0.597549,-0.020755,183.495774,188.496129,1586.891312,905.164677,0
0.045833,142.339491,-190.839148,14.341477,3.301278,-2.136252,6.475235,-3.535277,2.146768,-6.298003,3.495909,-0.186888,0.589972,-0.043161,218.002584,188.420596,1586.239386,905.922638,0
0.046874,169.788342,-149.643266,-61.344129,1.830978,-4.096006,6.165686,-1.274067,4.164754,-6.079775,1.428800,-0.150358,0.592715,-0.039427,213.195834,188.496094,1585.614417,906.464905,0
0.047916,195.705955,-67.432714,-113.085606,0.847008,-5.860494,4.990985,1.457296,5.899708,-4.938275,-1.246701,-0.102869,0.591931,-0.028224,188.336454,188.420620,1585.802988,907.205036,0
0.048958,169.992507,6.514499,-162.525000,-0.114342,-6.311379,3.324180,3.438653,6.440044,-3.305761,-3.135917,-0.048074,0.593826,-0.020755,122.455706,188.496219,1585.775853,908.077932,0
0.049999,123.715105,77.139464,-192.267425,-0.657222,-5.974103,0.816035,5.289413,6.046738,-0.842303,-5.003787,-0.007891,0.587293,-0.046895,42.629728,188.420710,1585.523106,908.704268,0
0.051041,44.487739,130.561222,-192.722917,-0.702462,-4.564642,-1.723859,6.132703,4.716117,1.650533,-5.857670,0.032292,0.600097,-0.035692,-45.667441,188.495948,1585.072779,908.890037,0
0.052083,-29.658187,176.710275,-164.039205,-0.193512,-2.729149,-3.938329,6.289420,2.848836,3.925140,-6.106719,0.043251,0.611529,-0.024490,-127.031579,188.420643,1584.862524,909.697173,0
0.053124,-95.853020,185.940086,-103.187879,0.982728,-0.123244,-5.390831,5.058068,0.312568,5.423360,-4.964650,0.006721,0.598921,-0.031958,-179.295088,188.496044,1585.345571,909.533286,0
0.054166,-142.697547,190.832852,-13.652841,2.656608,2.344199,-6.295668,3.408802,-2.208996,6.350829,-3.335157,-0.059033,0.589776,-0.024490,-212.037537,188.420652,1584.902798,909.422559,0
0.055208,-170.554728,149.129571,61.786553,4.081668,4.311053,-5.910715,1.147592,-4.193901,6.103224,-1.250258,-0.066339,0.590625,-0.065566,-211.042257,188.495984,1584.673838,909.900959,0
0.056250,-196.392944,67.184799,113.528031,5.065638,6.018737,-4.795543,-1.501680,-5.910477,5.003690,1.443032,-0.139399,0.592127,-0.024490,-183.276208,188.420701,1584.875679,910.591429,0
0.057291,-169.908206,-6.750333,163.028978,6.015678,6.473173,-3.093021,-3.509157,-6.436109,3.379570,3.310901,-0.194194,0.579977,-0.005818,-117.678209,188.420562,1584.822571,911.211239,0
0.058333,-123.789599,-77.218246,192.155872,6.569868,6.135896,-0.596781,-5.386036,-6.075885,0.895128,5.150308,-0.223418,0.585856,-0.013287,-39.130261,188.420634,1584.590638,912.088389,0
0.059375,-44.176588,-130.784975,192.254357,6.626418,4.754838,1.891521,-6.214401,-4.789373,-1.601904,6.029096,-0.230724,0.605127,-0.020755,52.503357,188.496080,1585.065885,912.243820,0
0.060416,30.230216,-176.511196,163.718372,6.094848,2.922894,4.169488,-6.378581,-2.955174,-3.876512,6.285261,-0.274560,0.615253,-0.020755,130.519736,188.420604,1585.225237,912.871707,0
0.061458,96.311624,-185.596036,102.817803,4.862058,0.341842,5.578335,-5.180811,-0.448312,-5.374731,5.125403,-0.216112,0.599509,-0.035692,184.366644,188.420580,1584.212014,913.377830,0
0.062499,142.691108,-190.500883,13.516667,3.256038,-2.139802,6.510952,-3.516620,2.132065,-6.310593,3.545719,-0.183235,0.590560,-0.013287,217.109094,188.420703,1584.029756,914.527021,0
0.063541,170.049219,-148.592227,-61.885796,1.842288,-4.071154,6.169654,-1.236753,4.113294,-6.071382,1.443032,-0.139399,0.593891,-0.031958,214.960194,188.496089,1582.948791,915.174570,0
0.064583,195.876093,-66.466242,-113.590341,0.813078,-5.814340,5.002890,1.386400,5.896033,-4.938275,-1.225354,-0.073645,0.597223,-0.020755,187.951914,188.420491,1582.537361,915.827754,0
0.065624,169.402697,7.384324,-163.078978,-0.159582,-6.322030,3.347991,3.431191,6.417989,-3.347728,-3.121686,-0.044421,0.586640,-0.028224,121.053266,188.420569,1581.864126,916.756975,0
0.066666,122.955157,77.791833,-192.058145,-0.691152,-5.988304,0.835877,5.315533,6.076144,-0.854893,-4.993113,-0.011544,0.594153,-0.031958,43.149988,188.420591,1581.499221,917.499889,0
0.067708,43.875244,131.225671,-192.021213,-0.736392,-4.571743,-1.664330,6.106583,4.708765,1.625353,-5.871901,0.010374,0.612835,-0.009553,-47.601451,188.495964,1581.046494,918.042569,0
0.068749,-30.781095,176.903570,-163.620644,-0.170892,-2.736249,-3.890706,6.341659,2.885593,3.920944,-6.067583,0.010374,0.612901,-0.043161,-126.703589,188.420524,1580.257406,918.697209,0
0.069791,-96.839817,185.589739,-102.289205,0.971418,-0.190700,-5.430516,5.076725,0.393435,5.385589,-4.929072,0.032292,0.599770,-0.031958,-179.181988,188.345256,1578.678110,919.666640,0
0.070833,-143.321384,190.518748,-12.975758,2.701848,2.298045,-6.259950,3.487161,-2.201645,6.350829,-3.374293,-0.037115,0.590168,-0.024490,-211.596447,188.420755,1578.481412,920.631480,0
0.071874,-170.429961,148.730901,62.574432,4.081668,4.268450,-5.922621,1.166249,-4.204929,6.128404,-1.268048,-0.110175,0.595328,-0.028224,-208.067727,188.496074,1578.518126,921.320751,0
0.072916,-196.381602,66.206246,114.205114,5.110878,5.979684,-4.807449,-1.483023,-5.903125,5.016280,1.371875,-0.154011,0.591148,-0.031958,-182.088658,188.496159,1577.687903,922.626745,0
0.073958,-169.477191,-7.523511,163.287500,6.026988,6.483823,-3.172392,-3.456918,-6.443460,3.404750,3.275323,-0.150358,0.584550,0.005384,-115.110839,188.345292,1577.108988,923.527453,0
0.074999,-123.029651,-77.846453,192.242046,6.581178,6.164298,-0.620593,-5.333797,-6.083237,0.886735,5.125403,-0.252642,0.570766,0.005384,-38.757031,188.420725,1576.600894,923.904205,0
0.076041,-43.552750,-131.256130,191.811175,6.569868,4.822293,1.871678,-6.192012,-4.785697,-1.543150,5.968613,-0.212459,0.601273,-0.009553,53.362917,188.496098,1575.060701,924.481542,0
0.077083,31.182986,-176.813219,163.422917,6.049608,2.993900,4.109959,-6.397238,-2.984580,-3.851331,6.271030,-0.227071,0.617016,-0.028224,131.254886,188.420580,1574.388887,925.297806,0
0.078124,97.139626,-185.366499,102.079167,4.862058,0.391546,5.574367,-5.206931,-0.470367,-5.357944,5.114729,-0.212459,0.596831,-0.020755,184.819044,188.420575,1573.655122,925.851383,0
0.079166,143.292261,-190.210941,12.778030,3.222108,-2.104300,6.530795,-3.565128,2.143092,-6.306397,3.570624,-0.175929,0.591213,-0.013287,218.002584,188.420670,1573.553561,926.500858,0
0.080208,170.196672,-148.072748,-62.649053,1.842288,-4.092455,6.141874,-1.274067,4.083888,-6.067185,1.446589,-0.135746,0.598595,0.001650,212.958324,188.496112,1572.949355,926.979931,0
0.081249,196.000860,-65.499769,-114.205872,0.813078,-5.824991,4.994953,1.408788,5.870302,-4.971848,-1.200449,-0.102869,0.593434,-0.024490,187.318554,188.420707,1572.396099,928.042815,0
0.082291,168.654092,8.350797,-163.497538,-0.159582,-6.336231,3.284494,3.419997,6.384907,-3.284778,-3.125244,-0.033462,0.623222,-0.028224,120.397286,188.345167,1571.686571,927.507044,0
0.083333,122.388032,78.649577,-191.910417,-0.679842,-5.988304,0.808097,5.315533,6.065117,-0.817123,-5.035807,-0.007891,0.613554,-0.035692,40.763578,188.420620,1571.993275,927.294882,0
0.084374,43.024556,131.890121,-191.725758,-0.702462,-4.607246,-1.704016,6.128971,4.701414,1.654730,-5.836323,0.014027,0.609635,-0.005818,-47.465731,188.496011,1571.501143,927.299735,0
0.085416,-31.949372,176.649871,-163.719129,-0.204822,-2.754001,-3.934360,6.311808,2.852512,3.946124,-6.081814,0.032292,0.614273,-0.024490,-128.829869,188.420564,1571.740964,927.237618,0
0.086458,-97.429627,186.109218,-101.045834,1.005348,-0.180049,-5.410673,5.084188,0.327271,5.448540,-4.932630,0.028639,0.600097,-0.017021,-180.346918,188.345263,1572.680927,927.198325,0
0.087499,-143.480179,190.361697,-12.187879,2.724468,2.351300,-6.303605,3.461042,-2.212672,6.371812,-3.374293,-0.084604,0.592519,-0.046895,-212.161947,188.408780,1572.808097,927.516928,0
0.088541,-171.087826,147.498649,62.956061,4.104288,4.343006,-5.938495,1.128935,-4.223307,6.115814,-1.204006,-0.088257,0.594414,-0.054364,-210.838677,188.470349,1572.793896,927.058676,0
0.089593,-197.039467,63.512205,115.214584,5.076948,6.032938,-4.739983,-1.538994,-5.910477,4.974314,1.421684,-0.175929,0.589384,-0.017021,-181.376128,188.397804,1572.521634,927.256720,0
0.090638,-167.333458,-10.386685,165.380304,6.015678,6.551279,-3.041429,-3.609904,-6.443460,3.316620,3.367827,-0.175929,0.579977,-0.043161,-113.380409,188.414674,1572.522151,927.226459,0
0.091667,-122.507896,-78.861249,191.798864,6.603798,6.160748,-0.549158,-5.367380,-6.083237,0.886735,5.164539,-0.208806,0.590690,0.005384,-37.230181,188.414367,1572.606128,927.540363,0
0.092708,-42.679378,-132.150117,191.454167,6.603798,4.776140,1.911364,-6.177087,-4.782021,-1.614494,6.011307,-0.252642,0.601208,-0.054364,54.290337,188.493195,1573.409967,927.579709,0
0.093749,32.578113,-176.378306,163.546023,6.094848,2.908693,4.149645,-6.400969,-2.958849,-3.880708,6.310166,-0.248989,0.615971,-0.020755,132.238856,188.414526,1573.854033,927.799733,0
0.094791,97.865546,-185.692683,100.417235,4.850748,0.363144,5.594209,-5.143497,-0.389500,-5.395714,5.128961,-0.241683,0.598921,0.016587,185.486334,188.409391,1574.437531,927.832857,0
0.095833,143.689248,-189.908919,11.805492,3.210798,-2.118501,6.495078,-3.539008,2.135740,-6.344167,3.527930,-0.208806,0.595198,-0.035692,217.199574,188.416861,1574.453104,927.987640,0
0.096875,170.695742,-146.792172,-63.042993,1.808358,-4.067603,6.129968,-1.218096,4.102267,-6.067185,1.403895,-0.157664,0.597092,-0.031958,214.767924,188.491724,1574.417349,927.854944,0
0.097916,196.136970,-64.376245,-114.525947,0.779148,-5.842743,4.955267,1.431176,5.855599,-4.929881,-1.232469,-0.077298,0.595328,-0.013287,186.753054,188.415968,1574.015535,927.466079,0
0.098958,167.939514,9.148136,-163.977652,-0.159582,-6.307829,3.324180,3.423728,6.355501,-3.326745,-3.135917,-0.044421,0.626946,-0.050629,119.085326,188.337995,1573.479020,928.147494,0
0.099999,121.662112,79.374431,-191.590341,-0.668532,-5.942150,0.780317,5.296876,6.039387,-0.812926,-4.978882,0.021333,0.621458,-0.005818,41.114188,188.414083,1572.203656,928.252120,0
0.101041,42.298636,132.542490,-191.245645,-0.668532,-4.596595,-1.680205,6.106583,4.719793,1.637943,-5.804302,0.014027,0.610418,0.009119,-49.478910,188.416970,1571.403840,928.904654,0
0.102083,-32.992882,176.553223,-163.300569,-0.182202,-2.729149,-3.902612,6.304346,2.848836,3.950320,-6.092488,0.014027,0.613097,-0.017021,-128.219129,188.415609,1571.195868,929.300759,0
0.103124,-98.314343,185.638063,-100.097917,1.027968,-0.155197,-5.398768,5.076725,0.353002,5.414966,-4.918398,0.021333,0.601926,-0.043161,-180.301678,188.264947,1570.064605,929.867997,0
0.104166,-144.035962,189.878460,-11.387689,2.713158,2.308696,-6.279793,3.434922,-2.205321,6.367616,-3.377851,-0.044421,0.588535,-0.046895,-211.404177,188.417038,1569.664783,930.383131,0
0.105208,-171.042456,146.906685,63.670076,4.126908,4.257799,-5.902778,1.140130,-4.146117,6.078044,-1.239585,-0.055380,0.590886,-0.028224,-208.056417,188.491603,1568.046892,931.023874,0
0.106249,-196.721877,64.092088,115.214584,5.110878,6.000986,-4.759826,-1.527800,-5.903125,4.957527,1.411011,-0.168623,0.589384,0.005384,-180.799318,188.491413,1567.871451,930.730940,0
0.107291,-168.172803,-9.202757,164.358523,6.083538,6.476723,-3.073178,-3.494232,-6.436109,3.341800,3.282438,-0.201500,0.590168,-0.020755,-113.142899,188.264719,1567.235936,930.790300,0
0.108333,-121.691236,-79.404890,191.872728,6.535938,6.132346,-0.604718,-5.322603,-6.094264,0.890931,5.100498,-0.223418,0.592454,-0.017021,-36.913501,188.415092,1566.199536,931.367585,0
0.109374,-42.089568,-132.621272,191.010985,6.558558,4.776140,1.879615,-6.136042,-4.778346,-1.576724,5.989960,-0.234377,0.602188,-0.020755,55.161207,188.491811,1565.313700,931.877361,0
0.110416,33.372088,-176.559520,163.238258,6.015678,2.965498,4.082179,-6.374849,-2.980904,-3.838741,6.242567,-0.201500,0.617147,-0.031958,132.691256,188.490360,1563.944890,932.177073,0
