1-Time,2-VGERA,3-VGERB,4-VGERC,5-VN,6-IGERAN,7-IGERBN,8-IGERCN,9-IGERAT,10-IGERBT,11-IGERCT,12-IN,13-IFD,14-IFAULT,15-VFAULT,16-Speed (rad/s),17-Active Power,18-Reactive Power,19-FAULT 
0.000000,-104.677485,-101.851210,180.066857,6.332358,4.953654,-1.164289,-3.800204,-4.940079,1.327387,3.591971,-0.223418,0.555545,-0.043161,-150.703408,188.519075,950.181341,1028.123696,0
0.001042,-20.833722,-148.290205,177.518561,6.287118,4.158391,0.808097,-4.796480,-4.094656,-0.603091,4.552590,-0.190541,0.511974,-0.043161,-116.909129,188.497741,951.557225,1026.449695,0
0.002083,59.595949,-171.968776,149.548864,5.778168,2.933545,2.474903,-5.012899,-2.925768,-2.395079,4.858564,-0.234377,0.535556,-0.043161,-67.495740,188.571078,952.012373,1024.988662,0
0.003125,118.055197,-182.732862,74.306440,4.319178,0.948940,4.125833,-4.539015,-0.999675,-3.947855,4.417391,-0.227071,0.554631,-0.035692,-0.698882,188.495660,953.170871,1025.014444,0
0.004167,154.441939,-171.038547,-7.879167,2.803638,-0.822649,4.927487,-3.565128,0.863931,-4.904701,3.481678,-0.234377,0.558681,-0.069301,61.619217,188.495595,954.414136,1024.698832,0
0.005208,174.382054,-122.714931,-81.607387,1.412508,-2.739799,4.990985,-1.710637,2.646670,-4.963455,1.749006,-0.183235,0.543983,-0.050629,118.497206,188.495595,956.235554,1023.942677,0
0.006250,185.543075,-39.682878,-131.600758,0.451158,-4.135059,4.423477,0.181168,4.249297,-4.447262,-0.129537,-0.128440,0.505572,-0.058098,155.413045,188.571065,956.733366,1023.295844,0
0.007292,151.458861,31.956883,-173.001326,-0.329232,-4.923221,3.236871,2.024464,4.932986,-3.326745,-1.805283,-0.088257,0.526345,-0.050629,173.893585,188.495644,957.920023,1023.691802,0
0.008333,103.207864,102.763062,-179.821402,-0.464952,-4.862866,1.296233,3.658804,4.914607,-1.366889,-3.498818,-0.037115,0.551561,-0.046895,156.770245,188.495698,958.244729,1022.785121,0
0.009375,20.940708,148.694659,-177.457766,-0.487572,-4.078254,-0.715839,4.677468,4.139024,0.542606,-4.445205,-0.055380,0.554762,-0.009553,120.974096,188.495767,959.334409,1022.409927,0
0.010416,-59.103318,172.276583,-149.438826,0.043998,-2.835657,-2.354864,4.890156,2.926027,2.326200,-4.783200,-0.022503,0.561882,-0.035692,74.512617,188.553122,958.887014,1021.939849,0
0.011458,-118.345198,183.088992,-73.100758,1.536918,-0.797797,-4.021669,4.356570,0.970528,3.912550,-4.256639,-0.048074,0.548556,-0.043161,6.516898,188.500899,959.322862,1021.579512,0
0.012500,-154.743282,171.382596,9.478788,3.086388,0.973792,-4.855072,3.412534,-0.900429,4.861003,-3.360062,-0.066339,0.548490,-0.046895,-59.329920,188.494274,959.473972,1021.671945,0
0.013541,-174.672056,122.177074,82.259091,4.454898,2.876741,-4.863009,1.554312,-2.672141,4.902970,-1.659411,-0.080951,0.547510,-0.043161,-113.414339,188.501751,960.336632,1022.411826,0
0.014583,-185.912474,40.920914,131.895455,5.371008,4.286201,-4.319313,-0.311373,-4.245362,4.390973,0.254711,-0.128440,0.548686,-0.080503,-148.577128,188.505048,960.854384,1022.409096,0
0.015625,-151.590067,-31.310811,173.345266,6.174018,5.028209,-3.045398,-2.199446,-4.906997,3.224293,1.951804,-0.186888,0.544963,-0.028224,-167.973778,188.494900,960.983888,1022.159441,0
0.016666,-102.726575,-103.506293,179.980682,6.321048,4.964304,-1.148414,-3.807667,-4.943754,1.293814,3.641781,-0.230724,0.552998,-0.017021,-149.730748,188.495133,961.033392,1022.452354,0
0.017708,-19.268457,-148.761360,177.457008,6.309738,4.122888,0.827940,-4.848719,-4.127738,-0.636665,4.573937,-0.234377,0.548229,-0.054364,-117.723449,188.566214,961.221678,1023.105616,0
0.018750,59.641319,-172.101666,149.413447,5.800788,2.919344,2.530463,-5.039019,-2.951498,-2.445439,4.894143,-0.227071,0.561359,-0.009553,-69.769050,188.495113,961.988752,1023.600003,0
0.019792,118.259362,-183.336907,73.235417,4.285248,0.863733,4.189331,-4.501702,-0.915132,-4.035986,4.420949,-0.245336,0.552867,-0.013287,1.393468,188.488362,963.476798,1023.320045,0
0.020833,154.816241,-170.603634,-9.467235,2.781018,-0.946909,4.955267,-3.505426,0.955825,-4.946668,3.396289,-0.190541,0.551887,-0.058098,62.637117,188.495660,964.398157,1022.447650,0
0.021875,174.971864,-120.709501,-82.776894,1.423818,-2.782403,5.002890,-1.598696,2.764294,-4.934078,1.628040,-0.208806,0.543330,-0.046895,119.028776,188.574943,965.460312,1021.220840,0
0.022917,185.168772,-39.006347,-132.216288,0.462468,-4.216715,4.399666,0.263258,4.289730,-4.396901,-0.207809,-0.132093,0.542350,-0.039427,152.427205,188.505961,966.156101,1020.335702,0
0.023958,151.277381,31.727346,-174.170834,-0.351852,-4.965824,3.125750,2.162525,4.973419,-3.234418,-1.965386,-0.095563,0.557048,-0.039427,172.898305,188.440213,968.591049,1019.080772,0
0.025000,103.230549,103.862424,-179.550569,-0.453642,-4.862866,1.197019,3.744626,4.892553,-1.312332,-3.591322,-0.059033,0.549928,-0.031958,153.965365,188.517477,969.747317,1018.587539,0
0.026042,18.229850,149.479917,-177.851705,-0.476262,-3.996598,-0.830928,4.729707,4.131673,0.693687,-4.541267,-0.022503,0.534250,-0.039427,120.827066,188.444907,971.649857,1018.641819,0
0.027083,-61.485243,171.841671,-148.958713,0.111858,-2.746900,-2.513607,4.920007,2.790024,2.481478,-4.825894,-0.044421,0.567696,-0.035692,71.651187,188.513174,973.571145,1017.532330,0
0.028125,-118.469966,185.070261,-71.057197,1.593468,-0.652236,-4.136758,4.416272,0.790416,4.076221,-4.242408,-0.055380,0.557767,-0.039427,2.671498,188.437237,976.632998,1016.677715,0
0.029166,-155.627998,169.957050,9.269508,3.063768,1.130004,-4.878883,3.293130,-1.032756,4.923953,-3.292462,-0.059033,0.554174,-0.046895,-59.940660,188.512221,978.283870,1015.594820,0
0.030208,-176.861158,120.389101,82.480682,4.454898,2.997450,-4.839197,1.371475,-2.855928,4.907166,-1.449498,-0.106522,0.540847,-0.043161,-113.651849,188.439376,981.223146,1013.767980,0
0.031250,-185.061786,37.671151,132.314016,5.404938,4.382059,-4.188350,-0.471822,-4.366662,4.290253,0.436161,-0.161317,0.539671,-0.028224,-149.097388,188.506174,982.734270,1011.964707,0
0.032291,-151.295162,-33.497455,174.120834,6.196638,5.095665,-2.934277,-2.359895,-5.020945,3.081605,2.136812,-0.194194,0.544702,-0.035692,-167.985088,188.495575,985.670541,1011.034962,0
0.033333,-102.862685,-104.472766,179.069698,6.275808,4.939452,-0.942048,-3.912145,-4.958457,1.117553,3.720053,-0.179582,0.550711,-0.039427,-150.058738,188.474351,987.521771,1009.516480,0
0.034375,-19.109662,-149.570780,178.158713,6.354978,4.048333,1.018432,-4.927078,-4.109359,-0.884270,4.677114,-0.241683,0.559857,-0.031958,-116.637689,188.552979,991.175426,1008.406395,0
0.035416,61.285982,-171.340569,148.674811,5.744238,2.702777,2.701112,-5.024094,-2.764035,-2.588127,4.858564,-0.219765,0.526019,-0.020755,-65.912340,188.474027,992.465498,1005.829901,0
0.036458,117.919087,-186.477942,69.320644,4.262628,0.700420,4.320294,-4.475582,-0.709290,-4.166083,4.328445,-0.234377,0.549470,-0.024490,2.422678,188.556211,994.798065,1004.147838,0
0.037500,155.088461,-169.045198,-10.267424,2.781018,-1.106671,5.034639,-3.393485,1.084476,-4.992832,3.332248,-0.183235,0.550189,-0.065566,63.247857,188.472598,995.961113,1003.068796,0
0.038541,177.410502,-119.924242,-82.050568,1.401198,-2.981218,4.998922,-1.464367,2.907648,-4.976045,1.507073,-0.186888,0.544897,-0.043161,120.465146,188.627419,998.755172,1002.396058,0
0.039583,184.329427,-38.003632,-132.536364,0.439848,-4.269969,4.276640,0.442363,4.403678,-4.325558,-0.339450,-0.132093,0.545943,-0.028224,155.786275,188.481635,1000.470809,1000.956143,0
0.040625,151.311408,34.493873,-174.367804,-0.340542,-5.015528,3.002724,2.296854,5.072665,-3.095927,-2.132604,-0.080951,0.515763,-0.046895,174.017995,188.556823,1003.001144,1000.074226,0
0.041667,101.188899,105.638317,-179.156629,-0.442332,-4.855765,1.062087,3.830447,4.962392,-1.144465,-3.701615,-0.040768,0.520727,-0.039427,155.639245,188.499894,1004.890971,999.721211,0
0.042708,17.288423,150.059801,-178.467235,-0.487572,-3.982397,-0.942048,4.841649,4.047130,0.840571,-4.615981,-0.073645,0.553586,-0.028224,120.397286,188.492774,1006.953322,998.480153,0
0.043750,-61.439873,171.563810,-148.466288,0.077928,-2.597788,-2.616790,4.875231,2.738563,2.569609,-4.797432,-0.026156,0.561425,-0.031958,73.506027,188.475238,1007.701997,997.337481,0
0.044792,-118.072978,187.136095,-68.804356,1.604778,-0.527976,-4.196287,4.289406,0.702198,4.139172,-4.231734,-0.059033,0.553390,-0.028224,3.666778,188.551419,1008.964757,997.089481,0
0.045833,-155.764108,169.075144,11.300758,3.109008,1.232962,-4.950318,3.211040,-1.146705,4.965920,-3.196401,-0.051727,0.547641,-0.054364,-61.286550,188.474004,1009.898967,995.994374,0
0.046875,-178.120176,118.649450,83.034659,4.488828,3.143012,-4.902695,1.274459,-3.021337,4.902970,-1.339205,-0.102869,0.543460,-0.024490,-115.551929,188.552430,1011.949479,995.086715,0
0.047917,-184.619429,37.622827,133.040341,5.438868,4.467265,-4.168507,-0.609883,-4.385040,4.256679,0.478855,-0.132093,0.537189,-0.035692,-148.859878,188.549193,1012.312860,994.558626,0
0.048958,-151.862287,-33.666587,174.760985,6.196638,5.159570,-2.866811,-2.501687,-5.098136,3.064818,2.268452,-0.201500,0.561490,-0.054364,-168.347008,188.552791,1014.748523,994.586407,0
0.050000,-101.875888,-105.560047,178.995834,6.287118,4.907500,-0.874582,-3.994235,-4.892294,1.012636,3.826789,-0.208806,0.532159,-0.017021,-148.916428,188.475793,1015.884159,993.266750,0
0.051041,-15.877049,-150.066097,178.811175,6.309738,4.058983,1.157333,-4.971854,-4.013790,-0.984990,4.755387,-0.252642,0.553716,-0.046895,-116.807339,188.624046,1016.952358,992.645997,0
0.052083,62.737822,-171.437217,148.022349,5.744238,2.674375,2.800326,-5.042750,-2.727277,-2.684651,4.922606,-0.223418,0.558942,-0.017021,-67.586220,188.471815,1018.287090,992.950456,0
0.053125,117.953114,-188.012217,68.138826,4.240008,0.576160,4.419509,-4.434537,-0.643127,-4.283591,4.332003,-0.223418,0.555676,-0.024490,3.564988,188.491724,1020.229564,993.059199,0
0.054166,155.984519,-168.320343,-10.501326,2.747088,-1.223831,5.078294,-3.262887,1.235182,-5.022209,3.218397,-0.205153,0.548490,-0.050629,63.903837,188.493584,1021.884804,991.303401,0
0.055208,178.771602,-117.906731,-82.998485,1.378578,-3.130330,5.002890,-1.352426,3.076732,-4.946668,1.346970,-0.154011,0.544244,-0.035692,121.392566,188.495799,1023.946006,989.772634,0
0.056250,183.773645,-35.430399,-132.917993,0.428538,-4.401330,4.236954,0.558036,4.469842,-4.229034,-0.499553,-0.154011,0.521838,-0.020755,152.551615,188.492363,1024.966195,988.007740,0
0.057293,151.402148,35.859015,-175.057198,-0.351852,-5.097184,2.875730,2.472229,5.102071,-3.003599,-2.274918,-0.069992,0.551887,-0.024490,172.660795,188.491024,1026.866641,987.065365,0
0.058333,101.551859,106.049068,-178.787311,-0.487572,-4.816712,0.879532,3.946120,4.932986,-1.018564,-3.804792,-0.059033,0.552736,-0.050629,153.614755,188.489947,1028.708062,985.546879,0
0.059375,16.335653,150.555118,-179.008902,-0.498882,-3.893640,-1.144446,4.916276,3.966264,1.042012,-4.726275,-0.040768,0.555088,-0.043161,120.521696,188.500535,1031.679091,984.122390,0
0.060416,-63.300043,171.660457,-147.296781,0.123168,-2.462878,-2.783471,4.927470,2.576830,2.720690,-4.808105,0.010374,0.580630,-0.058098,69.502287,188.493501,1033.381223,982.551930,0
0.061458,-117.834786,189.709328,-65.628220,1.740498,-0.329160,-4.366936,4.281943,0.481653,4.319629,-4.189040,-0.044421,0.548164,-0.039427,-0.280412,188.494619,1036.735938,981.244669,0
0.062500,-156.558083,167.492545,11.288447,3.109008,1.403375,-5.005878,3.076711,-1.334168,4.991100,-3.078992,-0.073645,0.553324,-0.039427,-61.230000,188.499876,1038.510507,979.071261,0
0.063541,-180.343306,117.972920,82.837690,4.420968,3.324076,-4.874915,1.114010,-3.172043,4.911363,-1.164870,-0.117481,0.543460,-0.031958,-115.687649,188.638753,1041.393381,977.590523,0
0.064583,-183.621289,36.052310,133.495834,5.404938,4.534721,-4.073261,-0.788989,-4.510016,4.181139,0.638958,-0.139399,0.529481,-0.054364,-149.719438,188.500358,1043.294341,976.054547,0
0.065625,-151.964370,-37.049240,174.921023,6.219258,5.216374,-2.692194,-2.684525,-5.156948,2.813017,2.435671,-0.197847,0.541893,-0.061832,-167.566618,188.501863,1045.630264,973.757275,0
0.066676,-99.267113,-108.169522,178.121781,6.321048,4.861346,-0.648373,-4.177073,-4.877591,0.819588,3.972661,-0.216112,0.554108,-0.028224,-148.678918,188.499665,1047.314155,972.568358,0
0.067722,-14.379839,-151.431240,179.365152,6.354978,3.995078,1.359731,-5.083795,-3.918220,-1.232595,4.901259,-0.197847,0.553520,-0.017021,-115.223939,188.565115,1051.040806,971.215154,0
0.068751,62.749165,-171.352650,146.778978,5.698998,2.528813,2.935258,-4.975586,-2.598626,-2.852519,4.894143,-0.227071,0.559008,-0.054364,-64.328940,188.493425,1052.764592,969.103484,0
0.069792,117.340619,-190.657935,64.753409,4.149528,0.387996,4.522692,-4.359910,-0.393176,-4.413688,4.250173,-0.234377,0.549274,-0.050629,5.374588,188.492909,1055.579578,966.938351,0
0.070833,156.211369,-166.568612,-12.310985,2.724468,-1.369392,5.058451,-3.136020,1.396915,-5.055782,3.086757,-0.238030,0.544702,-0.024490,65.034837,188.494317,1056.738246,965.070735,0
0.071875,180.495662,-116.746964,-83.207765,1.389888,-3.254590,5.002890,-1.195708,3.205384,-4.955062,1.250908,-0.172276,0.544832,-0.054364,123.145616,188.631549,1058.721907,964.506247,0
0.072917,182.707450,-35.768665,-133.668940,0.417228,-4.458134,4.137739,0.688634,4.547032,-4.275197,-0.570710,-0.128440,0.541827,-0.050629,156.057715,188.471359,1060.144764,964.708932,0
0.073958,152.003301,36.753002,-175.278788,-0.340542,-5.122036,2.792389,2.595364,5.153531,-2.844125,-2.431464,-0.099216,0.553390,-0.043161,174.131095,188.547898,1062.741516,962.869522,0
0.075010,98.387301,109.141779,-178.221023,-0.476262,-4.752807,0.740631,4.069255,4.837417,-0.829713,-3.907970,-0.051727,0.557440,-0.020755,153.874885,188.472973,1063.331379,961.170372,0
0.076042,13.568082,150.953788,-179.759849,-0.498882,-3.868788,-1.239692,4.934933,3.907452,1.109159,-4.758295,-0.066339,0.560184,-0.009553,119.469866,188.621066,1063.815483,960.918420,0
0.077083,-63.753743,171.551729,-146.632008,0.123168,-2.402523,-2.854905,4.901350,2.514343,2.808820,-4.779642,-0.037115,0.554566,-0.028224,72.013107,188.470695,1064.514599,959.866188,0
0.078125,-117.630621,190.881175,-64.544887,1.661328,-0.290107,-4.426465,4.233435,0.386083,4.369990,-4.146346,-0.022503,0.551887,-0.039427,1.122028,188.545415,1065.656426,958.923931,0
0.079167,-157.159235,166.513992,12.150189,3.097698,1.485032,-4.997941,2.975964,-1.411359,5.049854,-2.997161,-0.077298,0.547641,-0.035692,-62.756850,188.475949,1066.648522,958.229686,0
0.080208,-181.125939,116.052056,83.896402,4.454898,3.416383,-4.898726,1.035651,-3.267612,4.919757,-1.097271,-0.080951,0.543722,-0.031958,-117.553799,188.623898,1067.621316,958.097110,0
0.081250,-183.042821,34.288498,133.840531,5.450178,4.570223,-4.021669,-0.833765,-4.535746,4.147565,0.720789,-0.146705,0.542742,-0.013287,-149.006908,188.485482,1067.918183,957.464001,0
0.082292,-152.202562,-37.387506,175.339584,6.219258,5.227025,-2.684256,-2.755421,-5.186354,2.783640,2.542406,-0.194194,0.546596,-0.024490,-168.290458,188.554007,1069.515331,957.090851,0
0.083333,-100.333308,-107.263455,178.454167,6.298428,4.896849,-0.668216,-4.188267,-4.906997,0.806998,3.965545,-0.263601,0.555219,-0.009553,-148.362238,188.481253,1070.136030,956.943093,0
0.084375,-14.107619,-150.923842,179.832955,6.332358,3.945375,1.411322,-5.109915,-3.914544,-1.182235,4.887027,-0.201500,0.552083,-0.058098,-116.072189,188.704960,1069.524396,957.107139,0
0.085417,64.529937,-171.521783,146.003410,5.721618,2.486210,2.978913,-5.016631,-2.506732,-2.881895,4.894143,-0.219765,0.555284,-0.031958,-65.403390,188.474395,1069.691905,956.576004,0
0.086458,117.692237,-191.515679,63.116099,4.172148,0.327641,4.594126,-4.378567,-0.367446,-4.443065,4.264404,-0.223418,0.551430,-0.005818,6.007948,188.486573,1070.071586,957.073520,0
0.087500,157.243536,-165.771273,-11.917045,2.747088,-1.411995,5.141791,-3.124826,1.433672,-5.101946,3.097430,-0.201500,0.552279,-0.035692,65.419377,188.498995,1070.826988,957.462641,0
0.088542,181.459775,-116.191243,-83.466288,1.322028,-3.336246,5.006859,-1.087498,3.323008,-4.976045,1.137057,-0.154011,0.541370,-0.058098,123.134306,188.652121,1072.898920,956.635732,0
0.089583,182.367175,-33.545778,-134.173675,0.405918,-4.465235,4.109959,0.759530,4.583790,-4.166083,-0.688119,-0.132093,0.543264,-0.028224,152.947465,188.500293,1073.390425,955.046600,0
0.090625,151.640341,39.567853,-175.131061,-0.374472,-5.157539,2.713018,2.640140,5.186613,-2.818945,-2.548873,-0.062686,0.526868,-0.069301,172.061365,188.497033,1074.428677,955.207985,0
0.091667,98.716234,108.392763,-178.491857,-0.487572,-4.816712,0.716820,4.140151,4.877850,-0.817123,-3.936433,-0.026156,0.548164,-0.054364,153.004015,188.503926,1075.284555,955.291187,0
0.092712,13.840302,151.533671,-179.698296,-0.510192,-3.833285,-1.334938,4.998366,3.892749,1.260240,-4.825894,-0.018850,0.556264,-0.020755,119.843096,188.713825,1077.559824,954.543895,0
0.093750,-63.923881,172.095370,-145.536364,0.157098,-2.271163,-2.962057,4.860305,2.429800,2.884361,-4.779642,-0.033462,0.559204,-0.013287,68.031987,188.499578,1078.455065,953.638230,0
0.094792,-117.607936,192.463774,-61.614962,1.729188,-0.165848,-4.493931,4.181196,0.253756,4.407760,-4.135672,-0.044421,0.549013,-0.043161,-2.881711,188.493738,1079.482460,953.113648,0
0.095833,-157.624278,165.317983,13.541288,3.188178,1.616392,-5.045564,2.938650,-1.521631,5.066641,-2.915331,-0.055380,0.546988,-0.043161,-63.164010,188.504895,1080.228019,952.052281,0
0.096875,-182.203476,115.822519,84.179546,4.534068,3.526442,-4.906663,0.934904,-3.355830,4.894576,-1.033230,-0.121134,0.542546,-0.031958,-117.632969,188.587222,1081.532641,951.369005,0
0.097917,-182.214819,34.566359,135.871781,5.438868,4.655430,-3.978015,-0.983020,-4.587207,4.109795,0.877334,-0.154011,0.545093,-0.017021,-150.398038,188.514593,1083.304273,950.271121,0
0.098958,-152.701632,-39.115075,175.216478,6.253188,5.255427,-2.596948,-2.878556,-5.208408,2.712296,2.642026,-0.216112,0.537712,-0.050629,-167.272558,188.484096,1084.612699,949.632714,0
0.100000,-97.418285,-108.966862,178.404925,6.332358,4.857796,-0.501535,-4.274088,-4.848185,0.676900,4.029586,-0.219765,0.527586,-0.061832,-148.418788,188.547024,1084.882200,948.565127,0
0.101042,-12.428929,-151.286269,180.153031,6.388908,3.934724,1.466882,-5.150960,-3.947626,-1.345906,4.954626,-0.248989,0.555284,-0.054364,-115.054289,188.575117,1086.962585,948.661236,0
0.102083,64.314430,-171.763401,145.006250,5.710308,2.369051,3.109876,-5.005437,-2.414838,-2.974223,4.901259,-0.292825,0.557113,-0.035692,-63.616410,188.559649,1088.171371,947.504708,0
0.103126,117.272564,-192.699608,61.774243,4.081668,0.277937,4.625875,-4.330059,-0.246146,-4.543786,4.207478,-0.248989,0.551561,-0.058098,7.365148,188.546970,1089.988618,946.257499,0
0.104166,157.651866,-164.683991,-13.394318,2.656608,-1.468800,5.129885,-3.012885,1.532917,-5.085159,2.980021,-0.201500,0.545028,-0.028224,66.425967,188.550731,1090.319679,944.640464,0
0.105208,181.958845,-114.765696,-84.451137,1.344648,-3.435654,5.026702,-1.068841,3.396523,-4.976045,1.090805,-0.150358,0.540717,-0.013287,125.136176,188.699296,1090.997137,944.576851,0
0.106250,181.516487,-32.820924,-134.863069,0.417228,-4.518489,4.098053,0.830426,4.598493,-4.145100,-0.698792,-0.113828,0.546923,-0.043161,156.408325,188.494730,1090.805081,944.519778,0
0.107291,152.286863,39.241668,-175.488069,-0.453642,-5.189491,2.756672,2.718499,5.201316,-2.797962,-2.563104,-0.080951,0.557309,-0.065566,174.108475,188.571056,1091.463458,944.344179,0
0.108334,98.353274,108.960565,-178.307198,-0.487572,-4.752807,0.629511,4.136420,4.870498,-0.770959,-3.932875,-0.059033,0.554566,-0.076769,153.897505,188.495819,1091.491995,943.990219,0
0.109375,11.991475,151.594076,-180.079925,-0.544122,-3.851036,-1.342875,5.013292,3.852316,1.239257,-4.847242,-0.055380,0.582459,-0.028224,118.655546,188.646476,1091.135976,944.198400,0
0.110416,-65.715996,171.877913,-144.699243,0.134478,-2.331517,-2.942214,4.890156,2.400394,2.863377,-4.761853,-0.004238,0.564626,-0.043161,70.226127,188.495589,1090.289755,944.266715,0
