1-Time,2-VGERA,3-VGERB,4-VGERC,5-VN,6-IGERAN,7-IGERBN,8-IGERCN,9-IGERAT,10-IGERBT,11-IGERCT,12-IN,13-IFD,14-IFAULT,15-VFAULT,16-Speed (rad/s),17-Active Power,18-Reactive Power,19-FAULT 
0.000000,-113.445238,-72.023458,185.003410,6.445458,2.773783,1.502600,-4.012892,-2.664789,-1.392069,3.905062,-0.212459,0.416469,-0.065566,-24.529051,188.495774,1126.114902,50.791213,0
0.001042,-37.541225,-128.779545,188.610417,6.456768,1.346571,2.994787,-3.889757,-1.143029,-2.802158,3.748516,-0.216112,0.407911,-0.046895,-11.183251,188.420374,1125.970837,50.726472,0
0.002083,32.090386,-167.088091,155.556440,5.857338,-0.240404,3.768661,-3.072587,0.389759,-3.717037,3.058294,-0.234377,0.404122,-0.035692,-0.156002,188.344809,1125.785716,50.949210,0
0.003125,85.842496,-189.969323,80.658712,4.432278,-2.075897,4.272671,-1.710637,2.234986,-4.191264,1.716986,-0.179582,0.394846,-0.065566,7.704448,188.420140,1126.561081,50.580555,0
0.004167,139.515208,-178.323332,10.303599,3.131628,-3.126780,3.915499,-0.348687,3.392847,-3.935265,0.418372,-0.154011,0.391449,-0.054364,17.544148,188.495645,1127.619114,50.662330,0
0.005208,175.595702,-129.117810,-53.403788,1.921458,-3.993048,2.967007,1.278190,4.120645,-2.957436,-1.189775,-0.091910,0.395173,-0.054364,23.493208,188.420177,1128.401174,50.247946,0
0.006250,190.817338,-53.479270,-108.986175,0.892248,-4.202514,1.693092,2.599095,4.469842,-1.757182,-2.499063,-0.110175,0.396479,-0.084238,28.548778,188.344871,1128.997602,49.634997,0
0.007292,160.498834,10.622007,-164.531629,-0.216132,-3.769380,0.252496,3.531938,3.966264,-0.351290,-3.352946,-0.066339,0.409740,-0.035692,30.788158,188.420381,1130.488396,48.092863,0
0.008333,113.461484,72.331264,-185.114963,-0.611982,-2.690096,-1.453995,3.968508,2.970136,1.356764,-3.801235,-0.048074,0.410393,-0.054364,27.033238,188.495653,1131.230175,47.970414,0
0.009375,36.910948,129.014866,-189.029735,-0.679842,-1.206079,-2.926340,3.789402,1.448375,2.867574,-3.712288,-0.077298,0.406343,-0.065566,16.390528,188.420358,1132.848499,46.893894,0
0.010417,-32.788717,167.238846,-155.434091,-0.057792,0.373795,-3.704182,2.934919,-0.102791,3.727896,-2.936678,-0.080951,0.396479,-0.050629,4.616818,188.344713,1133.915562,46.279321,0
0.011458,-86.053099,191.183198,-79.711553,1.389888,2.237691,-4.239941,1.591625,-1.944342,4.189532,-1.563349,-0.113828,0.395238,-0.106643,-2.712061,188.420305,1136.009640,45.245697,0
0.012500,-139.918634,178.196226,-10.107386,2.724468,3.285023,-3.823240,0.225944,-3.061770,3.920944,-0.296756,-0.143052,0.396479,-0.061832,-12.574381,188.495624,1137.388337,45.096852,0
0.013542,-177.065323,129.389374,52.972159,3.912018,4.101587,-2.890623,-1.479292,-3.848381,2.989278,1.343412,-0.172276,0.397655,-0.080503,-19.088941,188.420312,1140.029323,44.569915,0
0.014583,-190.903174,54.149504,109.046970,4.941228,4.296852,-1.481775,-2.818854,-4.164495,1.650533,2.684720,-0.154011,0.402881,-0.050629,-23.364121,188.344740,1141.434572,43.720973,0
0.015625,-160.993000,-10.422928,164.875569,5.959128,3.870819,-0.068960,-3.740502,-3.686648,0.240444,3.552835,-0.205153,0.411830,-0.084238,-25.660051,188.420314,1142.901980,42.220665,0
0.016667,-113.127648,-72.301318,184.831061,6.400218,2.748931,1.645469,-4.136027,-2.661114,-1.471807,3.997566,-0.234377,0.410263,-0.043161,-24.642151,188.495528,1144.266905,41.363325,0
0.017708,-36.236837,-128.912435,189.521402,6.456768,1.300417,3.109876,-3.990504,-1.113623,-2.944846,3.833905,-0.212459,0.400072,-0.065566,-11.285041,188.420180,1146.476629,40.480024,0
0.018750,32.770936,-166.629017,155.421023,5.868648,-0.311409,3.867876,-3.094975,0.422841,-3.830348,3.061852,-0.212459,0.389751,-0.054364,-0.269102,188.269476,1147.670109,39.819631,0
0.019792,85.377453,-191.781459,79.870834,4.432278,-2.196607,4.359980,-1.718100,2.312176,-4.317164,1.724101,-0.201500,0.398961,-0.054364,7.919338,188.420206,1149.947447,39.255628,0
0.020833,139.549235,-177.791772,11.165341,3.176868,-3.219087,3.947247,-0.318836,3.429604,-3.973036,0.386351,-0.161317,0.400856,-0.035692,17.566768,188.495745,1150.536447,38.649866,0
0.021875,177.263050,-129.407752,-52.332765,1.955388,-4.074704,3.006693,1.364012,4.183133,-3.079140,-1.239585,-0.117481,0.399027,-0.039427,23.459278,188.495459,1152.763987,38.772350,0
0.022917,190.477063,-54.071234,-108.887690,0.892248,-4.252218,1.685154,2.692379,4.532329,-1.736198,-2.566662,-0.117481,0.405363,-0.050629,29.069038,188.269396,1153.849423,37.876032,0
0.023958,160.918506,11.141486,-164.765531,-0.204822,-3.833285,0.224716,3.640147,4.010373,-0.313519,-3.459681,-0.044421,0.413464,-0.024490,30.878638,188.420253,1155.551626,37.207829,0
0.025000,112.599454,72.693692,-185.164205,-0.578052,-2.665244,-1.533367,3.987165,2.955433,1.419715,-3.890181,-0.055380,0.411961,-0.043161,28.277338,188.495486,1156.686712,36.566923,0
0.026042,35.719986,128.845733,-189.817614,-0.713772,-1.163476,-3.009680,3.938657,1.437348,2.934721,-3.737193,-0.040768,0.374073,-0.050629,16.277428,188.495727,1157.559639,36.205714,0
0.027083,-32.992882,166.948905,-155.409470,-0.069102,0.387996,-3.831177,3.024471,-0.121170,3.795043,-2.990046,-0.048074,0.379037,-0.050629,4.571578,188.269434,1158.736170,36.144763,0
0.028125,-85.429262,191.859729,-79.933144,1.367268,2.283844,-4.287564,1.576700,-1.977424,4.286056,-1.606043,-0.110175,0.384982,-0.035692,-1.784642,188.420381,1160.413016,36.102742,0
0.029167,-140.190854,178.135822,-11.473864,2.679228,3.338277,-3.827209,0.211018,-3.142637,3.925140,-0.289640,-0.121134,0.401182,-0.076769,-12.144601,188.495551,1161.256137,35.196893,0
0.030208,-177.836613,129.727639,52.295076,3.821538,4.176143,-2.866811,-1.524069,-3.914544,2.968294,1.361201,-0.164970,0.396806,-0.050629,-18.874051,188.495651,1162.096687,34.473045,0
0.031250,-191.152709,53.992452,108.689962,4.929918,4.325254,-1.517493,-2.867362,-4.234335,1.650533,2.759435,-0.175929,0.402358,-0.043161,-23.058751,188.269406,1163.437368,33.867359,0
0.032292,-160.981658,-11.449805,164.617046,6.026988,3.899221,-0.025305,-3.822592,-3.741784,0.181690,3.599087,-0.216112,0.414639,-0.050629,-26.169001,188.420197,1164.413285,33.493388,0
0.033333,-112.492468,-72.373804,185.335796,6.377598,2.759582,1.637531,-4.147222,-2.628032,-1.530560,4.072280,-0.245336,0.403730,-0.054364,-24.483811,188.495542,1165.361873,32.633801,0
0.034375,-35.476890,-128.731221,189.915341,6.513318,1.275565,3.133687,-4.035281,-1.139353,-3.020386,3.880157,-0.263601,0.405233,-0.061832,-11.092771,188.495716,1166.594254,32.605857,0
0.035417,32.453346,-166.894797,155.556440,5.879958,-0.314959,3.891687,-3.150946,0.481653,-3.905888,3.104546,-0.205153,0.384786,-0.065566,-0.280412,188.269274,1167.983061,31.864540,0
0.036458,85.048521,-191.829783,80.621781,4.466208,-2.196607,4.463163,-1.736757,2.356285,-4.333951,1.727659,-0.146705,0.397916,-0.039427,7.319908,188.420262,1168.510659,31.224494,0
0.037500,139.855483,-177.997147,12.174811,3.154248,-3.272341,3.998839,-0.318836,3.543553,-4.048576,0.397025,-0.143052,0.402620,-0.050629,17.476288,188.499733,1170.501993,30.707571,0
0.038542,177.682722,-129.190295,-51.988068,1.898838,-4.163461,3.022567,1.468490,4.304433,-3.024583,-1.324973,-0.095563,0.397394,-0.028224,23.527138,188.422188,1171.744100,28.926908,0
0.039583,190.669885,-53.116843,-108.506061,0.858318,-4.326774,1.621657,2.793126,4.605844,-1.694231,-2.691186,-0.073645,0.405494,-0.046895,28.594018,188.344632,1173.216427,27.603339,0
0.040625,160.634944,12.011311,-164.802463,-0.238752,-3.872338,0.097721,3.770745,4.061833,-0.204405,-3.545070,-0.088257,0.384851,-0.076769,31.127458,188.419864,1174.583735,26.429609,0
0.041667,112.089042,72.729934,-185.336554,-0.623292,-2.700746,-1.592896,4.050598,2.981163,1.528829,-3.957780,-0.069992,0.404841,-0.043161,26.965378,188.495296,1176.032929,25.548523,0
0.042708,35.549848,129.002785,-190.162311,-0.725082,-1.174127,-3.104926,3.968508,1.407942,3.039638,-3.779887,-0.062686,0.401640,-0.054364,16.435768,188.479019,1177.417334,24.578189,0
0.043750,-32.040112,167.118037,-155.335607,-0.069102,0.469652,-3.902612,3.009546,-0.238794,3.925140,-3.018508,-0.055380,0.407911,-0.031958,4.978738,188.471878,1179.285913,22.689759,0
0.044792,-84.907507,192.959091,-80.080871,1.367268,2.425855,-4.418528,1.580431,-2.098724,4.395170,-1.566907,-0.080951,0.399027,-0.073035,-2.316212,188.419185,1181.283369,20.972564,0
0.045833,-140.111457,177.809637,-11.621591,2.645298,3.444785,-3.910549,0.095346,-3.219828,4.030058,-0.232714,-0.124787,0.396414,-0.043161,-12.517831,188.524492,1182.933493,20.256468,0
0.046875,-179.106974,128.930300,52.073485,3.844158,4.275550,-2.906497,-1.643472,-4.054223,2.993475,1.499957,-0.157664,0.395303,-0.073035,-19.145491,188.357125,1185.311854,18.698265,0
0.047917,-190.823777,52.856847,108.456061,4.929918,4.428212,-1.481775,-2.964377,-4.337256,1.591779,2.855497,-0.179582,0.391776,-0.046895,-23.352811,188.277870,1186.702607,17.590584,0
0.048958,-161.231193,-12.102174,165.047917,6.049608,4.016380,0.062004,-3.934534,-3.741784,0.047396,3.766305,-0.219765,0.402489,-0.039427,-25.999351,188.496054,1188.643624,15.278446,0
0.050003,-111.925343,-72.663745,185.114205,6.366288,2.763132,1.764526,-4.270357,-2.679492,-1.669051,4.154111,-0.219765,0.416142,-0.080503,-24.517741,188.496329,1190.496894,14.378913,0
0.051043,-35.953275,-129.117810,190.457008,6.524628,1.247163,3.312274,-4.102445,-1.098920,-3.163074,4.004681,-0.205153,0.408107,-0.054364,-11.398141,188.362905,1193.242590,13.115272,0
0.052083,31.432521,-166.846473,155.260985,5.868648,-0.407267,4.090116,-3.180797,0.514735,-4.031789,3.125893,-0.197847,0.405102,-0.020755,-0.551852,188.269541,1194.763822,12.149473,0
0.053125,84.095750,-193.738565,79.920076,4.420968,-2.359920,4.542535,-1.662129,2.492288,-4.464049,1.684965,-0.208806,0.396871,-0.050629,7.557418,188.495763,1197.142179,10.347197,0
0.054167,139.571920,-177.308536,11.756250,3.131628,-3.414352,4.014713,-0.143462,3.661177,-4.010806,0.272500,-0.168623,0.395303,-0.035692,17.385808,188.495828,1197.427676,8.020081,0
0.055208,179.032480,-128.380875,-51.667993,1.921458,-4.298372,3.026536,1.558043,4.458814,-3.058156,-1.403246,-0.110175,0.392756,-0.054364,23.459278,188.495828,1199.849711,7.161122,0
0.056250,190.295583,-52.210775,-108.161364,0.903558,-4.401330,1.601814,2.875217,4.694062,-1.711018,-2.755228,-0.095563,0.364731,-0.039427,29.125588,188.269695,1201.136501,7.071185,0
0.057292,161.111329,12.120039,-164.974811,-0.193512,-3.939793,0.038192,3.852836,4.120645,-0.128865,-3.666036,-0.040768,0.377470,-0.065566,31.104838,188.495826,1203.160000,5.840399,0
0.058333,112.452002,72.053404,-185.336554,-0.566742,-2.722048,-1.652425,4.140151,3.006893,1.616959,-4.043168,-0.055380,0.400660,-0.065566,28.299958,188.495884,1204.758516,4.790387,0
0.059375,36.706783,129.026947,-190.765531,-0.691152,-1.152825,-3.212078,4.020747,1.378536,3.110982,-3.886623,-0.037115,0.402228,-0.035692,16.526248,188.495683,1206.730188,3.893277,0
0.060421,-31.586412,167.081795,-154.793940,-0.012552,0.569060,-3.985952,2.957307,-0.271876,3.992287,-2.979372,-0.069992,0.405102,-0.050629,4.729918,188.269630,1207.027921,2.918815,0
0.061458,-84.226957,194.251748,-79.059091,1.401198,2.447157,-4.394716,1.569237,-2.175915,4.390973,-1.545560,-0.117481,0.398178,-0.061832,-1.535822,188.495759,1207.459665,2.002439,0
0.062500,-139.691784,177.870042,-11.190720,2.645298,3.476738,-3.914517,0.058032,-3.293343,4.013271,-0.147326,-0.146705,0.393735,-0.073035,-12.088051,188.516421,1207.769685,0.441956,0
0.063542,-179.606044,128.398740,51.938068,3.866778,4.392710,-2.886654,-1.703174,-4.068926,2.997671,1.553325,-0.172276,0.390600,-0.061832,-18.840121,188.438605,1208.164686,-0.059403,0
0.064584,-190.937202,52.482339,108.025190,4.918608,4.445964,-1.461933,-3.009154,-4.311525,1.591779,2.908864,-0.208806,0.398112,-0.054364,-23.115301,188.300026,1208.183386,-0.580466,0
0.065625,-161.503413,-11.280672,165.146402,6.015678,4.009280,0.034224,-4.020355,-3.818975,0.093560,3.794768,-0.234377,0.419408,-0.050629,-26.406511,188.438267,1209.315120,-0.005882,0
0.066667,-112.934826,-71.298603,185.409660,6.400218,2.823487,1.812149,-4.225580,-2.686844,-1.652264,4.161226,-0.219765,0.407454,-0.058098,-24.393331,188.506797,1209.481666,-0.333953,0
0.067708,-37.200950,-128.670816,190.752463,6.524628,1.232962,3.332117,-4.150953,-1.080541,-3.171467,4.029586,-0.212459,0.405102,-0.076769,-11.160631,188.514351,1209.865252,-0.973334,0
0.068750,31.160301,-166.991444,155.260985,5.868648,-0.442769,4.105991,-3.128558,0.577222,-4.002412,3.140124,-0.205153,0.413137,-0.043161,-0.212552,188.275059,1209.803395,-1.522531,0
0.069802,84.708245,-195.599025,76.879356,4.353108,-2.459327,4.613969,-1.636010,2.595209,-4.552179,1.649387,-0.161317,0.393801,-0.043161,7.285978,188.501275,1211.489857,-2.008992,0
0.070833,139.322385,-177.550154,11.153030,3.131628,-3.474707,4.042493,-0.169581,3.679555,-4.061166,0.251153,-0.168623,0.393801,-0.028224,17.408428,188.495436,1212.165274,-2.057376,0
0.071875,179.395440,-127.982205,-51.458712,1.966698,-4.326774,3.026536,1.558043,4.502923,-3.053960,-1.424593,-0.135746,0.399288,-0.087972,23.583688,188.495673,1212.697442,-2.407852,0
0.072917,190.545118,-52.730254,-107.902841,0.948798,-4.472335,1.589908,2.923724,4.683035,-1.669051,-2.794364,-0.073645,0.405429,-0.069301,28.650568,188.344789,1212.770263,-3.427879,0
0.073958,161.462946,10.875706,-165.491857,-0.193512,-3.985947,0.038192,3.931194,4.190485,-0.137258,-3.733635,-0.048074,0.399811,-0.073035,31.353658,188.495533,1214.371128,-3.636560,0
0.075011,112.349919,72.681611,-185.201137,-0.566742,-2.693646,-1.803231,4.199853,2.970136,1.667320,-4.107209,-0.069992,0.406866,-0.046895,26.592148,188.495579,1215.120231,-4.404795,0
0.076050,35.742671,129.945096,-191.097917,-0.702462,-1.085370,-3.307324,4.061792,1.363833,3.270456,-3.943548,-0.073645,0.401182,-0.058098,16.345288,188.495515,1217.258606,-5.232335,0
0.077091,-32.176222,167.287170,-153.969129,-0.023862,0.601012,-4.061355,2.983426,-0.345391,4.076221,-2.954467,-0.084604,0.399223,-0.069301,4.673368,188.344730,1217.975940,-6.263570,0
0.078128,-84.170244,195.628971,-77.397159,1.412508,2.589168,-4.545522,1.475953,-2.300890,4.495891,-1.517097,-0.110175,0.396087,-0.073035,-2.214422,188.495553,1219.958885,-7.378510,0
0.079171,-139.793867,176.855246,-10.562879,2.724468,3.636500,-3.954203,-0.031521,-3.425670,4.059435,-0.076169,-0.113828,0.393931,-0.024490,-12.472591,188.495649,1221.337589,-8.618981,0
0.080213,-181.216679,127.589319,51.630303,3.866778,4.449514,-2.918403,-1.792727,-4.238010,3.010261,1.631597,-0.172276,0.395369,-0.080503,-19.315141,188.495419,1223.843844,-9.678201,0
0.081256,-190.370077,53.001818,108.739205,4.975158,4.559573,-1.422247,-3.132289,-4.414446,1.562402,2.994253,-0.216112,0.403338,-0.028224,-23.386741,188.344710,1225.555841,-10.591461,0
0.082305,-161.821003,-12.331711,166.660607,6.049608,4.073185,0.196935,-4.150953,-3.844705,-0.007161,3.937082,-0.216112,0.414574,-0.080503,-26.429131,188.495419,1227.770516,-12.001476,0
0.083347,-111.551041,-72.905364,185.175758,6.400218,2.702777,1.962955,-4.382298,-2.613329,-1.794952,4.207478,-0.234377,0.406670,-0.039427,-24.234991,188.495488,1228.360048,-13.521596,0
0.084387,-34.966477,-129.927230,191.528031,6.558558,1.158406,3.486891,-4.173341,-0.981296,-3.381302,4.036702,-0.223418,0.397982,-0.054364,-11.171941,188.495504,1230.212761,-15.478898,0
0.085433,33.009128,-167.112253,152.823485,5.800788,-0.584781,4.193299,-3.083781,0.746307,-4.098936,3.090315,-0.219765,0.384263,-0.043161,-0.099452,188.344652,1230.723386,-17.190374,0
0.086466,83.778160,-196.396364,77.039394,4.398348,-2.576487,4.657624,-1.650935,2.642994,-4.560573,1.617366,-0.146705,0.392429,-0.058098,7.534798,188.495504,1231.028468,-18.264658,0
0.087511,139.742058,-175.858827,10.968371,3.154248,-3.527961,4.070273,-0.061372,3.775125,-4.115723,0.215574,-0.161317,0.395826,-0.080503,17.476288,188.495512,1232.105555,-18.769319,0
0.088545,180.994732,-128.030529,-50.596970,2.000628,-4.447483,3.030504,1.658790,4.550708,-3.100123,-1.538444,-0.077298,0.401444,-0.039427,23.696788,188.495493,1233.760405,-19.898496,0
0.089587,189.864568,-53.189328,-108.321402,0.847008,-4.458134,1.566097,3.043128,4.712441,-1.589314,-2.929562,-0.080951,0.403926,-0.058098,29.193448,188.420173,1234.709202,-21.967688,0
0.090626,161.803221,10.996515,-165.602652,-0.250062,-4.010799,-0.025305,4.020747,4.208863,-0.103685,-3.851044,-0.069992,0.407846,-0.054364,31.229248,188.495575,1236.235252,-22.909444,0
0.091667,112.542742,71.594329,-185.607387,-0.657222,-2.714947,-1.799262,4.244629,3.021596,1.700893,-4.110767,-0.091910,0.412810,-0.058098,28.254718,188.495513,1236.815700,-23.115010,0
0.092708,35.572533,128.761167,-191.836554,-0.725082,-1.092470,-3.378759,4.099106,1.356481,3.270456,-3.986243,-0.051727,0.397067,-0.050629,16.379218,188.499140,1237.207278,-23.307377,0
0.093750,-31.904002,166.779772,-154.683144,-0.046482,0.629415,-4.093104,3.035666,-0.382149,4.076221,-2.986488,-0.077298,0.393343,-0.024490,4.616818,188.420571,1237.552774,-23.749922,0
0.094792,-83.376269,195.979317,-78.061932,1.423818,2.638872,-4.597114,1.535655,-2.282511,4.550448,-1.534886,-0.069992,0.394977,-0.031958,-1.287002,188.495823,1238.230237,-23.720898,0
0.095833,-139.521647,177.338482,-12.187879,2.690538,3.654252,-3.958172,0.002062,-3.433021,4.042648,-0.111747,-0.154011,0.397655,-0.054364,-11.986261,188.496089,1238.231392,-23.966445,0
0.096875,-181.250706,128.700763,50.288447,3.821538,4.474366,-2.910466,-1.781533,-4.238010,3.052228,1.628040,-0.183235,0.398700,-0.050629,-18.975841,188.496009,1238.646656,-24.119706,0
0.097917,-190.755722,53.980371,107.815909,4.907298,4.534721,-1.418278,-3.139752,-4.425474,1.566599,3.040505,-0.227071,0.404318,-0.050629,-23.228401,188.420385,1239.173531,-24.924107,0
0.098958,-162.206648,-10.809517,165.466478,6.060918,4.094486,0.133438,-4.132296,-3.863084,0.026413,3.922851,-0.216112,0.412157,-0.039427,-26.610091,188.496060,1238.994621,-24.952558,0
0.100000,-112.333673,-71.189875,185.692804,6.434148,2.759582,1.939144,-4.374835,-2.642735,-1.761378,4.235941,-0.241683,0.386746,-0.065566,-24.268921,188.496125,1239.454140,-24.978850,0
0.101042,-35.272725,-128.525846,191.774243,6.547248,1.183258,3.459111,-4.206924,-0.992323,-3.347728,4.097185,-0.227071,0.373289,-0.050629,-11.036221,188.495888,1239.686929,-24.769118,0
0.102083,31.772796,-166.846473,154.817804,5.868648,-0.513775,4.213142,-3.180797,0.705874,-4.199657,3.168587,-0.216112,0.384917,-0.054364,-0.212552,188.420564,1241.698001,-24.889144,0
0.103125,83.211035,-195.671510,78.664394,4.432278,-2.533883,4.705247,-1.665861,2.661373,-4.568966,1.663618,-0.194194,0.391972,-0.050629,6.901438,188.496033,1242.051166,-25.124111,0
0.104167,139.447153,-177.199808,12.876515,3.165558,-3.535062,4.086148,-0.139730,3.764098,-4.124116,0.208459,-0.128440,0.398178,-0.028224,17.317948,188.495940,1242.315975,-25.798463,0
0.105211,181.096815,-128.175499,-50.129167,1.944078,-4.440383,3.070190,1.707298,4.587466,-3.091730,-1.552675,-0.095563,0.399745,-0.046895,23.651548,188.495890,1242.717946,-26.274227,0
0.106250,190.352295,-53.213490,-107.447349,0.914868,-4.468785,1.526411,3.024471,4.804335,-1.614494,-2.929562,-0.102869,0.402881,-0.043161,28.639258,188.495973,1243.851870,-26.045145,0
0.107292,161.667111,11.600560,-165.344129,-0.204822,-3.989497,-0.041180,4.061792,4.201512,-0.032341,-3.872392,-0.069992,0.402032,-0.020755,31.500688,188.495797,1243.931366,-26.876191,0
0.108333,111.941589,71.594329,-185.865910,-0.634602,-2.722048,-1.831011,4.319257,3.003217,1.776434,-4.160577,-0.037115,0.397328,-0.039427,26.840968,188.495808,1244.712571,-27.769852,0
0.109375,35.152861,128.676601,-191.910417,-0.747702,-1.081819,-3.398601,4.106569,1.323400,3.295636,-4.032495,-0.051727,0.400595,-0.050629,16.435768,188.495877,1245.324311,-28.092949,0
0.110417,-31.325535,167.118037,-154.769319,-0.023862,0.668468,-4.136758,3.072979,-0.371121,4.160155,-3.061202,-0.106522,0.396675,-0.065566,5.023978,188.420511,1246.989435,-27.906458,0
0.111458,-83.013309,196.233016,-78.911364,1.355958,2.656624,-4.620925,1.513267,-2.370729,4.596611,-1.531328,-0.121134,0.395956,-0.035692,-1.852502,188.495930,1248.131071,-29.102707,0
