1-Time,2-VGERA,3-VGERB,4-VGERC,5-VN,6-IGERAN,7-IGERBN,8-IGERCN,9-IGERAT,10-IGERBT,11-IGERCT,12-IN,13-IFD,14-IFAULT,15-VFAULT,16-Speed (rad/s),17-Active Power,18-Reactive Power,19-FAULT 
0.000000,97.413758,81.227082,-186.620359,-3.367522,-2.485906,-2.404331,4.636521,2.631859,2.264612,-4.560682,0.000299,0.404119,-0.022822,-7.412767,188.495749,1270.649311,-37.493302,0
0.001042,23.602645,136.687019,-186.510994,-3.367522,-0.955735,-3.655398,4.212608,1.152043,3.600497,-4.269238,-0.010640,0.402534,-0.033973,117.633444,188.495727,1269.505810,-37.300849,0
0.002083,-41.360625,171.557954,-140.322490,-2.421741,0.996424,-4.371442,3.001428,-0.596171,4.255758,-3.039114,-0.025225,0.386343,-0.041406,217.866308,188.495631,1269.078403,-37.682691,0
0.003125,-93.893978,195.412070,-62.782673,-0.901736,2.878864,-4.600737,1.411754,-2.525735,4.640459,-1.449416,-0.098148,0.413145,-0.078573,289.660644,188.571199,1269.152350,-37.409280,0
0.004167,-150.529204,163.594837,0.223745,0.269232,3.898977,-3.888715,-0.242264,-3.436112,3.934469,0.162991,-0.101794,0.416039,-0.048839,315.104458,188.495694,1268.361608,-36.653381,0
0.005208,-186.971463,116.415132,61.638294,1.485236,4.647550,-2.665808,-1.983335,-4.208663,2.750772,2.032779,-0.156487,0.411629,-0.093440,298.160680,188.495640,1267.945637,-36.660697,0
0.006250,-186.022269,39.426591,121.132878,2.633685,4.581499,-1.076833,-3.326988,-4.183274,1.224650,3.380237,-0.171072,0.420448,-0.086006,222.718646,188.495618,1267.061337,-36.740581,0
0.007292,-160.789536,-24.748145,168.633763,3.545688,4.020070,0.479961,-4.087761,-3.671867,-0.314155,4.284851,-0.182010,0.434159,-0.071140,131.075884,188.571049,1266.404105,-36.106510,0
0.008333,-99.091944,-80.924528,186.277990,3.838430,2.500908,2.426959,-4.470040,-2.184797,-2.237661,4.523306,-0.214826,0.428716,-0.048839,9.902536,188.495667,1265.244361,-35.704587,0
0.009375,-25.167832,-137.230106,186.521024,3.838430,0.989085,3.686071,-4.030987,-0.781148,-3.573547,4.231861,-0.200241,0.448766,-0.048839,-116.449641,188.495817,1264.443655,-34.705829,0
0.010417,40.349135,-171.243655,140.927951,3.005242,-0.970413,4.313615,-2.804667,0.988828,-4.224580,3.001738,-0.189302,0.424444,-0.056273,-216.592439,188.495698,1263.164796,-33.959280,0
0.011458,94.204579,-195.297436,63.849898,1.564051,-2.845514,4.587161,-1.264197,2.947408,-4.588144,1.415825,-0.123671,0.415763,-0.074856,-289.771549,188.571236,1262.527027,-33.549538,0
0.012500,150.918904,-163.691614,0.053621,0.303010,-3.865627,3.927434,0.359541,3.843277,-3.937111,-0.151163,-0.101794,0.416039,-0.037689,-319.358426,188.495712,1262.252458,-32.429831,0
0.013542,187.259464,-116.723319,-61.445989,-0.879217,-4.592183,2.676367,2.100613,4.594066,-2.749187,-2.009596,-0.068979,0.411560,-0.078573,-297.280851,188.495741,1261.678913,-31.244190,0
0.014583,186.005172,-38.971352,-120.636782,-2.061443,-4.537141,1.159801,3.497255,4.590439,-1.218837,-3.357054,-0.021578,0.415350,-0.048839,-220.758019,188.495569,1261.519649,-30.686306,0
0.015625,160.433441,26.131239,-168.003998,-2.984706,-4.023415,-0.433197,4.223963,4.046389,0.324195,-4.269238,-0.003348,0.407495,-0.067423,-128.315916,188.495803,1260.851873,-29.964483,0
0.016667,97.470257,81.649902,-186.182899,-3.311226,-2.474897,-2.376172,4.606241,2.653621,2.209654,-4.522832,-0.010640,0.427338,-0.071140,-6.894884,188.495586,1260.185569,-29.088804,0
0.017708,23.320147,136.769234,-186.474539,-3.299967,-0.992430,-3.578966,4.159619,1.184686,3.545540,-4.242743,-0.014286,0.427889,-0.074856,117.971194,188.495890,1259.466692,-28.334388,0
0.018750,-41.518824,171.299564,-140.091608,-2.399222,0.945052,-4.327192,2.978718,-0.585290,4.221938,-3.016404,-0.068979,0.409562,-0.052556,217.663658,188.495816,1258.769404,-28.212206,0
0.019792,-94.131276,195.294620,-62.940645,-0.912995,2.834830,-4.564533,1.442033,-2.438687,4.564364,-1.475911,-0.109087,0.414523,-0.063706,289.863294,188.495763,1257.476115,-27.174335,0
0.020833,-150.698703,163.430407,0.175138,0.269232,3.821918,-3.848488,-0.204415,-3.352691,3.875284,0.159206,-0.105440,0.415005,-0.059989,315.003133,188.495664,1256.068431,-26.892506,0
0.021875,-186.824564,116.650032,61.759810,1.507755,4.559482,-2.641672,-1.907637,-4.183274,2.708498,1.994929,-0.141902,0.416176,-0.086006,298.115646,188.495841,1255.334317,-26.832406,0
0.022917,-185.818871,39.720216,121.400215,2.644944,4.537465,-1.129128,-3.239935,-4.132496,1.203512,3.270472,-0.152841,0.417554,-0.052556,222.504738,188.495696,1253.833766,-26.271218,0
0.023958,-160.913835,-24.771635,168.500095,3.523169,3.950350,0.399507,-4.023417,-3.592073,-0.343748,4.190226,-0.222118,0.413558,-0.063706,130.974559,188.495683,1252.091760,-26.704861,0
0.025000,-99.125843,-81.229898,185.986350,3.894726,2.449535,2.394777,-4.337567,-2.235575,-2.136202,4.462746,-0.189302,0.434366,-0.074856,9.564786,188.495785,1251.109733,-25.098016,0
0.026042,-25.009633,-136.936481,186.265839,3.894726,0.981746,3.573435,-3.970428,-0.748505,-3.480542,4.190226,-0.203887,0.422308,-0.041406,-116.460900,188.495627,1249.612902,-24.954364,0
0.027083,40.597733,-171.173185,141.110226,2.993982,-0.863999,4.245229,-2.793312,0.945304,-4.131575,3.024448,-0.156487,0.422653,-0.071140,-216.851380,188.495667,1248.705233,-23.955972,0
0.028125,94.543577,-195.086026,63.716229,1.519014,-2.753777,4.522797,-1.237703,2.824090,-4.503594,1.446105,-0.105440,0.413627,-0.089723,-289.917907,188.495854,1247.056812,-22.436026,0
0.029167,150.749405,-163.480204,-0.286625,0.303010,-3.737196,3.834912,0.310337,3.745348,-3.839879,-0.136023,-0.087210,0.412318,-0.048839,-318.592860,188.495595,1245.044805,-22.077919,0
0.030208,186.886566,-116.617613,-61.761932,-0.901736,-4.452743,2.607981,2.051408,4.488883,-2.711140,-1.922541,-0.061686,0.408322,-0.086006,-296.954360,188.495758,1243.126905,-21.161129,0
0.031250,185.971273,-38.665981,-120.709692,-2.027666,-4.397701,1.155778,3.334502,4.467121,-1.206155,-3.190514,-0.014286,0.402121,-0.086006,-220.386494,188.495720,1240.331827,-20.084567,0
0.032292,160.071844,26.119494,-168.076908,-2.962187,-3.894983,-0.348720,4.117984,4.013746,0.286148,-4.098913,-0.014286,0.385171,-0.067423,-128.023199,188.495781,1238.091481,-18.991889,0
0.033333,98.001354,81.978762,-185.405192,-3.254929,-2.408847,-2.255490,4.481339,2.624605,2.150469,-4.413067,-0.047102,0.372425,-0.041406,-7.266409,188.495758,1236.207478,-18.674851,0
0.034375,23.139349,136.769234,-186.219354,-3.322485,-0.996100,-3.434148,4.125554,1.235464,3.477900,-4.178398,-0.014286,0.382691,-0.041406,117.881127,188.495689,1234.933366,-17.797946,0
0.035417,-42.049921,170.148553,-140.893619,-2.466778,0.838637,-4.097897,2.940869,-0.512750,4.069748,-3.005049,-0.050748,0.427889,-0.086006,216.627893,188.495767,1232.860119,-16.689649,0
0.036458,-94.741472,195.036229,-63.110768,-0.958032,2.655026,-4.488101,1.460958,-2.358893,4.450222,-1.479696,-0.094502,0.416659,-0.071140,290.347402,188.495631,1231.090952,-15.924653,0
0.037500,-150.156306,163.254232,0.090076,0.280491,3.708165,-3.751943,-0.090866,-3.200357,3.828781,0.053227,-0.090856,0.415625,-0.052556,314.226309,188.495734,1229.010229,-14.064278,0
0.038542,-186.971463,116.591307,61.759810,1.473977,4.427381,-2.589376,-1.794089,-4.005551,2.700043,1.854884,-0.134610,0.411836,-0.059989,298.487171,188.495573,1226.367608,-12.210536,0
0.039583,-185.570272,39.990351,121.181485,2.622425,4.376009,-1.189469,-3.065828,-3.991043,1.266925,3.103932,-0.141902,0.416452,-0.045123,221.840497,188.495645,1223.536976,-10.537012,0
0.040625,-160.145440,-24.231364,169.131981,3.500651,3.917325,0.327098,-3.921224,-3.552176,-0.221150,4.061536,-0.200241,0.418795,-0.059989,130.603034,188.495687,1221.601038,-8.758273,0
0.041667,-100.063737,-81.723188,184.625363,3.804652,2.383485,2.233868,-4.220234,-2.173916,-2.013605,4.277281,-0.163779,0.414247,-0.059989,9.508495,188.495740,1218.201624,-8.143038,0
0.042708,-24.817535,-137.171381,186.107867,3.883467,1.069814,3.428617,-3.902299,-0.788402,-3.357945,4.110741,-0.211179,0.424789,-0.067423,-116.933749,188.495671,1216.321137,-7.028742,0
0.043750,41.309628,-169.646334,141.936540,3.016501,-0.801618,4.076275,-2.725183,0.854629,-3.979386,2.922253,-0.171072,0.420173,-0.078573,-215.646740,188.495665,1213.352288,-6.427108,0
0.044792,95.085973,-195.003811,63.752684,1.519014,-2.658371,4.414184,-1.230133,2.718907,-4.414817,1.449890,-0.098148,0.410458,-0.041406,-290.582148,188.495720,1211.729174,-5.373392,0
0.045833,150.105310,-163.515439,-0.286625,0.325528,-3.594086,3.762503,0.253563,3.593014,-3.746874,-0.045183,-0.087210,0.410113,-0.048839,-315.902120,188.420341,1209.209042,-3.966805,0
0.046875,187.044765,-116.594123,-61.932056,-0.935513,-4.353667,2.603958,1.953000,4.394581,-2.656183,-1.812776,-0.065333,0.407013,-0.056273,-297.922576,188.495725,1207.341016,-3.003186,0
0.047917,185.485376,-38.912627,-120.746147,-1.993888,-4.324311,1.167847,3.217169,4.351057,-1.282250,-3.073179,-0.054394,0.409838,-0.063706,-219.834836,188.495910,1205.222206,-1.482360,0
0.048958,159.484248,25.931574,-168.307790,-2.973447,-3.858288,-0.276311,4.008221,3.930325,0.226963,-4.015643,-0.003348,0.399296,-0.045123,-127.944391,188.495745,1203.381946,-0.901247,0
0.050000,98.566350,82.507288,-184.384452,-3.254929,-2.405177,-2.134809,4.341296,2.617351,2.002507,-4.314658,0.003945,0.400605,-0.059989,-7.480317,188.420441,1201.246103,0.556195,0
0.051042,22.924650,136.710509,-185.976321,-3.367522,-1.032794,-3.357716,4.080135,1.257226,3.321483,-4.061063,-0.028871,0.393922,-0.052556,117.869869,188.496190,1198.528604,1.511271,0
0.052083,-42.445418,169.373382,-141.282472,-2.444260,0.743231,-4.025488,2.918159,-0.436583,3.942924,-2.978554,-0.039809,0.400536,-0.071140,216.064976,188.495731,1196.617549,2.534458,0
0.053125,-95.204769,194.507704,-63.487470,-1.003069,2.585306,-4.315124,1.449603,-2.275472,4.369900,-1.525116,-0.079917,0.406737,-0.056273,290.437469,188.495785,1195.334447,3.737023,0
0.054167,-150.201506,163.265977,-0.092199,0.246713,3.521021,-3.687579,-0.064372,-3.120563,3.731549,0.007807,-0.141902,0.413558,-0.048839,314.136242,188.420233,1193.609712,4.191143,0
0.055208,-186.655065,116.967147,61.978540,1.473977,4.379678,-2.557194,-1.767594,-3.893114,2.700043,1.805679,-0.152841,0.409286,-0.119457,298.554721,188.495854,1192.127520,4.925530,0
0.056250,-185.332974,40.283976,121.558187,2.667463,4.284272,-1.193491,-2.967419,-3.903995,1.330337,3.024448,-0.156487,0.409906,-0.048839,221.649105,188.420359,1190.739427,6.094764,0
0.057292,-159.964641,-24.313579,168.925403,3.545688,3.843935,0.278825,-3.788751,-3.483263,-0.161966,3.929061,-0.203887,0.405359,-0.033973,130.299059,188.495816,1188.504370,6.976563,0
0.058333,-100.221936,-82.063794,184.090689,3.872208,2.390824,2.145368,-4.129395,-2.141273,-1.945965,4.190226,-0.185656,0.411491,-0.071140,9.553528,188.495680,1186.831110,7.417152,0
0.059375,-24.546336,-137.077421,185.779772,3.894726,1.018441,3.332071,-3.826600,-0.799283,-3.256486,4.000976,-0.203887,0.422102,-0.086006,-117.260241,188.495617,1184.634787,7.902784,0
0.060417,41.965024,-169.211769,141.790720,3.016501,-0.757584,3.995820,-2.668409,0.782089,-3.835651,2.880618,-0.167425,0.417968,-0.037689,-215.691773,188.495796,1182.418270,9.016767,0
0.061458,95.571870,-194.357835,63.740533,1.552792,-2.562964,4.349820,-1.283122,2.653621,-4.338722,1.449890,-0.109087,0.408322,-0.071140,-290.604665,188.495687,1181.019768,9.671490,0
0.062500,150.161809,-163.315774,-0.651176,0.280491,-3.450977,3.682048,0.204359,3.524101,-3.700372,-0.037613,-0.101794,0.409562,-0.067423,-315.406754,188.495778,1179.851938,10.069382,0
0.063542,186.615368,-116.558888,-62.454578,-0.969291,-4.265600,2.587868,1.877301,4.296652,-2.622363,-1.752216,-0.109087,0.404877,-0.059989,-297.584826,188.495647,1178.180076,10.743709,0
0.064583,185.462776,-38.783432,-120.855512,-2.050184,-4.254591,1.216119,3.126331,4.296652,-1.252657,-3.005049,-0.050748,0.404946,-0.086006,-219.643445,188.495736,1176.927510,10.918592,0
0.065625,159.111350,26.025534,-168.526520,-2.973447,-3.770221,-0.260220,3.890888,3.872293,0.201598,-3.905878,-0.021578,0.396953,-0.059989,-127.539091,188.495709,1175.145175,11.447347,0
0.066667,98.927948,82.941853,-183.631048,-3.277448,-2.427194,-2.110672,4.242887,2.533930,1.922185,-4.197323,-0.032517,0.434779,-0.052556,-7.795550,188.495705,1172.713493,11.507714,0
0.067708,22.800351,136.992389,-185.636074,-3.367522,-1.069489,-3.253125,4.012006,1.217329,3.220023,-4.011858,-0.021578,0.443323,-0.056273,118.095036,188.495756,1171.152167,11.689108,0
0.068750,-42.953915,168.692172,-141.902207,-2.466778,0.706536,-3.884693,2.891665,-0.353162,3.879511,-2.963414,-0.058040,0.420793,-0.067423,215.794777,188.495812,1170.091227,12.675147,0
0.069792,-95.860165,194.178844,-63.791262,-0.958032,2.552281,-4.295010,1.483668,-2.134019,4.302260,-1.487266,-0.068979,0.412594,-0.030256,290.955352,188.495683,1168.243986,13.618848,0
0.070833,-149.952908,163.277722,-0.213715,0.291750,3.473318,-3.627239,-0.007598,-3.051650,3.672365,-0.048968,-0.109087,0.415625,-0.041406,313.550809,188.495700,1166.948297,14.317351,0
0.071875,-186.835864,116.826207,62.221574,1.507755,4.273263,-2.597422,-1.665401,-3.827828,2.666223,1.745119,-0.134610,0.407702,-0.082290,298.464654,188.495640,1165.757970,14.910682,0
0.072917,-185.174775,40.460151,121.546035,2.644944,4.214552,-1.205560,-2.899290,-3.842336,1.359929,2.933608,-0.182010,0.413214,-0.045123,221.198772,188.495832,1164.396286,15.817522,0
0.073958,-159.252746,-24.360559,169.387167,3.534429,3.807240,0.266757,-3.731977,-3.443366,-0.123918,3.883641,-0.182010,0.395024,-0.037689,129.544752,188.495678,1163.439337,16.359008,0
0.075000,-100.628734,-82.557084,183.300831,3.827171,2.387154,2.101118,-4.091546,-2.141273,-1.874098,4.148591,-0.200241,0.420379,-0.052556,9.272070,188.420338,1162.468748,17.125179,0
0.076042,-24.252538,-137.547221,185.609648,3.883467,1.051466,3.279776,-3.788751,-0.810164,-3.193073,3.989621,-0.185656,0.425822,-0.074856,-117.924482,188.495812,1161.834910,17.827745,0
0.077083,42.496121,-168.530558,142.301090,3.005242,-0.684194,3.971684,-2.702474,0.800224,-3.776466,2.891973,-0.189302,0.422377,-0.074856,-215.432831,188.495667,1161.272327,17.884083,0
0.078125,96.023867,-194.287365,63.558258,1.507755,-2.522600,4.333729,-1.302047,2.581081,-4.258400,1.468815,-0.116379,0.403568,-0.045123,-291.223873,188.495779,1159.997427,18.823062,0
0.079167,149.834111,-163.315774,-0.784844,0.269232,-3.399604,3.682048,0.215714,3.484204,-3.615822,0.000237,-0.105440,0.407702,-0.059989,-314.033238,188.420303,1158.706249,19.033752,0
0.080208,186.637968,-116.112578,-62.721915,-0.958032,-4.214227,2.591890,1.831882,4.242247,-2.630818,-1.703011,-0.101794,0.402465,-0.026539,-297.584826,188.495700,1157.898821,19.913205,0
0.081250,185.281977,-38.701217,-121.025635,-2.038925,-4.210558,1.228187,3.046847,4.253128,-1.278022,-2.955844,-0.047102,0.403223,-0.048839,-219.193112,188.495727,1157.070173,20.562227,0
0.082292,158.794952,26.072514,-168.806008,-2.939669,-3.748204,-0.244129,3.909813,3.828769,0.172006,-3.890738,-0.017932,0.405428,-0.041406,-127.539091,188.495852,1156.454238,20.766339,0
0.083333,98.894048,83.282458,-183.302953,-3.277448,-2.372152,-2.050331,4.205038,2.562946,1.888365,-4.167043,-0.017932,0.404050,-0.048839,-7.649192,188.495584,1156.045438,21.485129,0
0.084375,22.811651,137.109840,-185.563164,-3.322485,-1.062150,-3.249103,3.981727,1.213702,3.198886,-4.015643,-0.017932,0.425616,-0.059989,118.106294,188.495779,1155.896052,21.634712,0
0.085417,-43.146013,168.821367,-141.622719,-2.500556,0.655163,-3.892738,2.906804,-0.353162,3.833009,-2.929349,-0.047102,0.410940,-0.063706,215.873585,188.495732,1155.084439,21.621870,0
0.086458,-96.221763,193.849983,-63.730503,-0.980551,2.497239,-4.266851,1.472313,-2.163035,4.268440,-1.487266,-0.058040,0.414592,-0.059989,291.056677,188.420350,1154.849957,21.401528,0
0.087500,-150.371005,163.031077,-0.128654,0.246713,3.451302,-3.647352,-0.011383,-3.004499,3.668137,-0.033828,-0.076271,0.412111,-0.067423,313.775976,188.420406,1154.373491,21.613565,0
0.088541,-186.474266,116.779227,62.622579,1.462718,4.240238,-2.573285,-1.654046,-3.795185,2.670450,1.711054,-0.127317,0.410802,-0.056273,297.946771,188.495732,1153.831553,22.174938,0
0.089583,-184.982676,40.330956,121.995647,2.599907,4.177857,-1.117060,-2.922000,-3.824201,1.309200,2.937393,-0.171072,0.420793,-0.052556,220.759698,188.495779,1153.520094,21.663456,0
0.090625,-159.399645,-24.630694,169.119830,3.523169,3.803571,0.290893,-3.743332,-3.410723,-0.174648,3.891211,-0.196595,0.420310,-0.048839,129.274552,188.420224,1153.325809,20.859266,0
0.091667,-99.950738,-82.874199,183.556016,3.770874,2.379815,2.097095,-4.053696,-2.123138,-1.874098,4.159946,-0.192949,0.423686,-0.056273,8.371404,188.495821,1153.344572,20.893208,0
0.092708,-23.958740,-137.406281,185.573193,3.872208,1.036788,3.299889,-3.747116,-0.777521,-3.222666,3.932846,-0.222118,0.422033,-0.045123,-118.070840,188.495673,1152.868814,20.127748,0
0.093750,42.676919,-168.906398,142.009450,3.027760,-0.742906,3.935480,-2.687334,0.821986,-3.835651,2.861693,-0.163779,0.411629,-0.048839,-216.029523,188.495577,1153.362056,19.583093,0
0.094792,96.283765,-193.970250,63.218011,1.552792,-2.518931,4.261320,-1.230133,2.617351,-4.254172,1.419610,-0.120025,0.407150,-0.059989,-291.021223,188.420182,1153.239546,18.853706,0
0.095833,150.173109,-163.139598,-1.161546,0.246713,-3.428960,3.690094,0.143800,3.451561,-3.628504,-0.011118,-0.141902,0.405772,-0.041406,-314.855096,188.495636,1153.075720,19.167660,0
0.096875,186.287670,-116.159558,-63.013555,-0.901736,-4.195880,2.559709,1.786463,4.231366,-2.571633,-1.744646,-0.039809,0.407564,-0.052556,-297.100718,188.495783,1152.653129,18.248028,0
0.097917,185.146378,-38.301886,-121.353730,-2.016406,-4.173863,1.244278,3.077127,4.176961,-1.223065,-2.921779,-0.025225,0.428096,-0.045123,-219.024237,188.495832,1151.336960,17.909840,0
0.098958,158.523754,26.389629,-168.745250,-2.962187,-3.704171,-0.211947,3.909813,3.756229,0.201598,-3.886953,-0.036163,0.426925,-0.037689,-127.257633,188.345026,1150.574075,17.225274,0
0.100000,98.724549,83.446888,-183.205739,-3.266189,-2.401508,-2.046309,4.182328,2.508541,1.875683,-4.129193,0.007591,0.401018,-0.041406,-7.615417,188.495826,1149.688700,16.907182,0
0.101042,22.721251,137.368230,-185.307979,-3.322485,-1.043803,-3.237034,3.921168,1.213702,3.177749,-3.996718,-0.065333,0.376490,-0.071140,118.286427,188.495796,1149.277596,17.071475,0
0.102083,-43.157313,168.527742,-141.938662,-2.421741,0.655163,-3.852511,2.827321,-0.356789,3.790734,-2.921779,-0.039809,0.403223,-0.059989,215.704710,188.495636,1148.743863,17.022665,0
0.103125,-96.413861,193.697298,-63.864172,-0.958032,2.482561,-4.258806,1.419324,-2.112257,4.264213,-1.513761,-0.068979,0.408873,-0.063706,291.090452,188.344905,1148.486097,17.796257,0
0.104167,-150.348405,162.995842,-0.007137,0.246713,3.418276,-3.582989,-0.000028,-2.960975,3.613180,-0.056538,-0.105440,0.413283,-0.056273,313.629618,188.495707,1147.507023,18.062546,0
0.105208,-186.598565,116.379897,62.731944,1.473977,4.207213,-2.496854,-1.691895,-3.773423,2.632403,1.718624,-0.105440,0.404877,-0.048839,297.620280,188.495721,1146.994599,17.796585,0
0.106250,-184.880977,39.884646,121.910585,2.599907,4.185196,-1.201537,-2.865226,-3.722645,1.266925,2.888188,-0.171072,0.375801,-0.093440,220.016648,188.495731,1145.237565,17.597664,0
0.107292,-158.913748,-24.759890,169.472228,3.556947,3.741190,0.278825,-3.678988,-3.378080,-0.115463,3.819296,-0.185656,0.420862,-0.033973,128.722894,188.344807,1144.066101,18.528752,0
0.108333,-99.984638,-83.214805,182.911977,3.849689,2.332112,2.064914,-4.015847,-2.079614,-1.899463,4.050181,-0.222118,0.421619,-0.056273,8.056171,188.495712,1142.531375,17.959235,0
0.109375,-23.348544,-137.840847,185.318008,3.883467,1.040458,3.219435,-3.716837,-0.770267,-3.205756,3.917706,-0.211179,0.417072,-0.078573,-118.960248,188.495725,1142.188743,18.184228,0
0.110417,43.219316,-168.401363,141.863630,3.050279,-0.709881,3.883184,-2.611635,0.829240,-3.704599,2.793563,-0.178364,0.406944,-0.078573,-215.871906,188.495781,1140.062905,18.090761,0
