1-Time,2-VGERA,3-VGERB,4-VGERC,5-VN,6-IGERAN,7-IGERBN,8-IGERCN,9-IGERAT,10-IGERBT,11-IGERCT,12-IN,13-IFD,14-IFAULT,15-VFAULT,16-Speed (rad/s),17-Active Power,18-Reactive Power,19-FAULT 
0.000000,125.200972,-192.192210,39.011932,3.685818,-1.415546,6.340303,-4.113639,1.341778,-6.235053,4.175458,-0.212459,0.603037,-0.065566,65.419377,188.495387,1624.655142,891.609721,0
0.001042,171.115414,-164.333645,-37.141477,2.238138,-3.719676,6.495078,-2.102431,3.613392,-6.453281,2.126138,-0.164970,0.595132,-0.046895,77.000817,188.495265,1623.903118,891.936702,0
0.002083,180.132702,-98.637689,-100.393372,1.073208,-5.416709,5.407686,0.662514,5.403482,-5.387321,-0.453301,-0.099216,0.582786,-0.073035,76.978197,188.495311,1623.359499,891.328076,0
0.003125,186.994915,-13.817662,-148.220076,0.123168,-6.353983,3.812315,2.897605,6.318744,-3.817758,-2.680513,-0.066339,0.601665,-0.031958,69.830277,188.570707,1622.876358,891.501515,0
0.004167,147.715836,59.694639,-174.466288,-0.408402,-6.130315,1.431165,4.856574,6.182741,-1.597707,-4.498573,0.003068,0.610288,-0.046895,47.300757,188.495356,1622.750726,892.570478,0
0.005208,66.707697,113.478823,-200.207766,-0.860802,-5.164639,-1.386529,6.311808,5.182937,1.272830,-6.067583,-0.004238,0.614207,-0.058098,8.202088,188.495955,1622.885881,892.413567,0
0.006250,-2.719748,163.034692,-170.896213,-0.329232,-3.425003,-3.354947,6.401361,3.488416,3.270456,-6.124509,0.028639,0.589057,-0.039427,-17.675191,188.495788,1623.271145,891.974338,0
0.007292,-71.727521,191.895971,-122.207766,0.598188,-0.829750,-5.394799,5.684938,0.915391,5.335229,-5.533906,-0.015197,0.612182,-0.017021,-40.962481,188.495685,1622.985833,892.103270,0
0.008333,-125.139356,192.463774,-38.606440,2.158968,1.577339,-6.236139,4.017016,-1.510604,6.212338,-3.939991,-0.044421,0.602383,-0.024490,-60.698430,188.495718,1622.686665,891.639861,0
0.009375,-171.257963,164.858908,36.451326,3.606648,3.885020,-6.359165,1.923717,-3.852057,6.455746,-1.976059,-0.095563,0.607675,-0.054364,-71.284590,188.514836,1622.934824,891.847731,0
0.010417,-180.876404,99.936130,100.331061,4.782888,5.560751,-5.188433,-0.815108,-5.520847,5.364606,0.642516,-0.124787,0.594349,-0.031958,-72.619170,188.512116,1623.402403,891.248338,0
0.011458,-187.523109,14.536220,148.145455,5.732928,6.473173,-3.604968,-3.053930,-6.469191,3.790846,2.887517,-0.190541,0.592846,-0.039427,-64.102740,188.572716,1623.480091,891.608804,0
0.012500,-147.302602,-60.268738,174.527084,6.230568,6.228203,-1.267472,-4.975586,-6.303782,1.520435,4.726924,-0.238030,0.595916,-0.043161,-40.170781,188.495211,1623.725634,891.156832,0
0.013542,-65.738681,-112.965641,200.317804,6.773448,5.287380,1.502600,-6.490522,-5.311329,-1.312332,6.246125,-0.248989,0.584354,-0.028224,-3.187081,188.495170,1623.635770,890.197090,0
0.014583,2.248267,-162.714804,170.969319,6.185328,3.593897,3.498797,-6.542761,-3.657242,-3.247008,6.359976,-0.252642,0.621589,-0.054364,24.669448,188.495208,1623.295760,889.640923,0
0.015625,70.790997,-191.672731,122.982576,5.280528,1.005744,5.502932,-5.803950,-1.113623,-5.353747,5.744468,-0.274560,0.615514,-0.069301,43.738107,188.646069,1623.502065,889.754696,0
0.016667,124.860697,-192.216372,39.479735,3.663198,-1.454599,6.352209,-4.124833,1.360157,-6.226660,4.150553,-0.208806,0.604735,-0.046895,65.939637,188.495202,1623.580012,889.008225,0
0.017708,170.729769,-164.381969,-36.685985,2.238138,-3.698375,6.499047,-2.053923,3.650149,-6.465871,2.186622,-0.212459,0.598333,-0.046895,75.903747,188.495349,1623.979247,889.350203,0
0.018750,180.030620,-98.843064,-100.110228,1.073208,-5.409609,5.360063,0.625201,5.374076,-5.391518,-0.453301,-0.128440,0.606238,-0.039427,76.729377,188.495164,1623.684462,889.224643,0
0.019792,186.904175,-13.986795,-147.986175,0.179718,-6.378835,3.788504,2.890142,6.315068,-3.826151,-2.705418,-0.059033,0.600750,-0.046895,69.287397,188.723656,1623.860384,888.987355,0
0.020833,148.146851,59.561749,-174.072349,-0.431022,-6.155167,1.447039,4.815529,6.168038,-1.580921,-4.445205,-0.044421,0.608916,-0.043161,45.219717,188.573957,1623.229330,888.633423,0
0.021875,67.467645,113.345934,-199.986175,-0.906042,-5.196592,-1.319064,6.308077,5.230722,1.222470,-6.053352,-0.015197,0.613685,-0.046895,7.433008,188.486605,1623.067452,889.355679,0
0.022917,-2.118596,162.478970,-171.290152,-0.340542,-3.446305,-3.279544,6.397630,3.539877,3.186522,-6.085372,0.050557,0.610549,-0.061832,-18.987151,188.495618,1621.947903,889.824704,0
0.023958,-71.137711,192.125509,-122.121591,0.620808,-0.890104,-5.370988,5.681207,0.966852,5.280672,-5.491212,0.017680,0.612182,-0.043161,-41.109511,188.721835,1620.842508,889.896658,0
0.025000,-124.810424,192.644987,-39.025000,2.181588,1.516984,-6.192484,4.061792,-1.466495,6.170371,-3.989800,-0.026156,0.603298,-0.005818,-60.359130,188.495550,1620.282447,890.483417,0
0.026042,-171.439443,164.460238,35.528030,3.595338,3.814014,-6.394882,1.975956,-3.727081,6.480926,-2.008080,-0.091910,0.603102,-0.035692,-73.297770,188.495689,1619.115336,891.391173,0
0.027083,-180.263909,101.059654,100.109470,4.748958,5.489746,-5.247962,-0.729287,-5.469387,5.389786,0.553570,-0.146705,0.596962,-0.076769,-71.691750,188.495528,1618.280370,892.134909,0
0.028125,-187.262231,15.200669,148.059281,5.665068,6.402167,-3.684340,-2.979303,-6.425082,3.837010,2.834150,-0.201500,0.595655,-0.073035,-64.453350,188.721780,1617.387362,892.624817,0
0.029167,-148.516250,-60.015039,173.456061,6.185328,6.192701,-1.342875,-4.856182,-6.270700,1.591779,4.620189,-0.197847,0.615710,-0.050629,-41.335711,188.570915,1615.812118,893.030876,0
0.030208,-66.328491,-113.134774,200.133145,6.762138,5.315782,1.371636,-6.415895,-5.359114,-1.232595,6.196315,-0.274560,0.614665,-0.073035,-2.960881,188.495560,1614.985468,894.141861,0
0.031250,2.055444,-161.953707,171.634091,6.241878,3.625849,3.415457,-6.505447,-3.749136,-3.179861,6.306608,-0.263601,0.613619,-0.020755,23.119978,188.495584,1613.884348,894.963745,0
0.032292,70.099105,-191.914349,123.019508,5.303148,1.090951,5.455309,-5.856189,-1.205517,-5.257224,5.723121,-0.238030,0.613358,-0.039427,44.756007,188.646415,1612.306287,895.696854,0
0.033333,124.543107,-192.445909,40.304546,3.697128,-1.309037,6.316492,-4.191998,1.312372,-6.184693,4.211036,-0.205153,0.603298,-0.009553,65.091387,188.571022,1611.874781,896.331413,0
0.034375,171.217497,-164.116189,-35.565720,2.260758,-3.627369,6.499047,-2.124819,3.576634,-6.440691,2.193737,-0.157664,0.597484,-0.017021,77.238327,188.465132,1610.970556,896.342009,0
0.035417,179.849140,-99.785375,-99.987122,1.039278,-5.345704,5.407686,0.572961,5.307913,-5.437681,-0.335892,-0.121134,0.590952,-0.058098,76.718067,188.634427,1610.004592,897.781833,0
0.036458,186.790750,-14.155927,-147.604546,0.179718,-6.300728,3.852001,2.808052,6.318744,-3.838741,-2.627145,-0.059033,0.587359,-0.039427,69.999927,188.515983,1609.238579,898.318274,0
0.037500,148.850086,59.392616,-173.518372,-0.385782,-6.105463,1.538317,4.718513,6.160687,-1.631281,-4.438089,-0.029809,0.610418,-0.058098,48.001977,188.588245,1609.061719,898.605458,0
0.038542,68.227592,113.188882,-199.567614,-0.906042,-5.224994,-1.267472,6.270763,5.234398,1.163716,-6.003542,0.021333,0.611006,-0.024490,8.914618,188.495948,1608.132992,898.839622,0
0.039583,-1.381333,162.213190,-171.721023,-0.340542,-3.474707,-3.220015,6.337928,3.576634,3.131965,-6.092488,-0.000585,0.600097,-0.043161,-17.279341,188.495124,1607.911471,899.299803,0
0.040625,-70.763409,191.775162,-122.626326,0.586878,-0.946909,-5.236056,5.662550,1.025664,5.284869,-5.509001,0.003068,0.616102,-0.039427,-40.713661,188.646065,1607.931221,899.796193,0
0.041667,-124.538204,192.995334,-39.418940,2.136348,1.453079,-6.105176,4.054329,-1.407683,6.161978,-3.972011,-0.055380,0.600358,-0.043161,-60.110310,188.570691,1607.515173,899.876300,0
0.042708,-171.178566,164.496481,35.084849,3.538788,3.735908,-6.335354,2.005807,-3.668269,6.401189,-2.004522,-0.051727,0.602057,-0.028224,-71.522100,188.495180,1606.123662,899.266712,0
0.043750,-180.502101,101.458324,99.875568,4.805508,5.489746,-5.232087,-0.684510,-5.403223,5.423360,0.535781,-0.157664,0.593630,-0.058098,-72.121530,188.495242,1605.647950,899.704822,0
0.044792,-187.262231,15.708067,147.751516,5.687688,6.430569,-3.692277,-2.941989,-6.369945,3.874780,2.791455,-0.172276,0.602188,-0.065566,-64.521210,188.646022,1604.754852,899.964767,0
0.045833,-148.947265,-59.580126,173.517614,6.207948,6.231754,-1.366687,-4.830062,-6.219240,1.612763,4.559705,-0.223418,0.591148,-0.061832,-40.939861,188.570580,1603.769667,899.784470,0
0.046875,-67.043069,-112.929399,199.739205,6.705588,5.305131,1.375605,-6.352461,-5.318681,-1.173841,6.192757,-0.245336,0.583309,-0.043161,-3.729961,188.518782,1603.173090,899.617117,0
0.047917,1.839937,-161.651684,171.831061,6.174018,3.611648,3.347991,-6.475596,-3.734433,-3.112713,6.310166,-0.241683,0.614795,-0.028224,24.511108,188.512338,1602.554258,899.693993,0
0.048958,69.804200,-191.491517,123.511932,5.280528,1.087401,5.411655,-5.848726,-1.216544,-5.211060,5.723121,-0.238030,0.611398,-0.031958,43.534527,188.722023,1602.005219,899.587730,0
0.050000,124.316257,-192.385504,40.796970,3.697128,-1.316138,6.249026,-4.218118,1.205776,-6.121742,4.200363,-0.205153,0.605454,-0.024490,65.362827,188.495689,1600.445848,899.938470,0
0.051042,171.070044,-164.043703,-34.630114,2.238138,-3.535062,6.475235,-2.206909,3.481065,-6.419707,2.268452,-0.183235,0.597092,-0.017021,76.412697,188.495550,1599.140180,900.743144,0
0.052083,179.497522,-100.522310,-99.777841,1.027968,-5.274698,5.371969,0.487140,5.223370,-5.467058,-0.325218,-0.121134,0.588796,-0.028224,76.073397,188.495740,1598.384877,900.879867,0
0.053125,186.620612,-14.494193,-147.321402,0.157098,-6.261675,3.883750,2.763276,6.234202,-3.901692,-2.516852,-0.059033,0.593499,-0.031958,69.762417,188.721976,1596.454813,901.862291,0
0.054167,149.405868,59.404697,-172.816667,-0.374472,-6.069960,1.605783,4.610304,6.138632,-1.702625,-4.356259,-0.066339,0.602188,-0.065566,45.830457,188.571031,1595.096462,902.549427,0
0.055208,69.066937,113.213044,-198.952084,-0.883422,-5.196592,-1.168257,6.188673,5.238073,1.054602,-5.950174,-0.022503,0.614730,-0.035692,8.349118,188.495667,1593.716272,903.300138,0
0.056250,-0.723468,161.427931,-172.188826,-0.363162,-3.517310,-3.156518,6.304346,3.613392,3.060622,-6.064025,-0.022503,0.615187,-0.054364,-18.546061,188.495606,1592.841489,903.497045,0
0.057292,-70.071516,191.630192,-122.835606,0.552948,-1.064068,-5.184464,5.696132,1.095503,5.137985,-5.509001,0.010374,0.610876,-0.028224,-40.951171,188.723772,1590.843506,904.160813,0
0.058333,-123.903024,193.091981,-39.997538,2.125038,1.346571,-6.061521,4.091643,-1.308438,6.115814,-4.000474,-0.040768,0.603298,-0.005818,-59.737080,188.591357,1589.713915,904.792321,0
0.059375,-171.303333,163.856193,33.939962,3.550098,3.647151,-6.311542,2.080435,-3.572700,6.401189,-2.121931,-0.084604,0.601534,-0.024490,-73.693620,188.500320,1588.408125,906.311007,0
0.060417,-179.969004,102.714738,99.690909,4.816818,5.365486,-5.275742,-0.538987,-5.340735,5.435950,0.418372,-0.135746,0.595916,-0.039427,-71.307210,188.495246,1587.281102,907.238104,0
0.061458,-186.967326,16.638297,147.702273,5.698998,6.352463,-3.751805,-2.841242,-6.300106,3.904157,2.681162,-0.190541,0.595524,-0.028224,-64.747410,188.721463,1585.596431,907.761931,0
0.062500,-150.297022,-59.096890,172.495834,6.219258,6.192701,-1.473838,-4.699464,-6.270700,1.742860,4.470759,-0.227071,0.590298,-0.020755,-42.330991,188.570680,1584.872361,909.427644,0
0.063542,-68.211346,-113.183097,199.037501,6.671658,5.319332,1.268453,-6.307685,-5.348087,-1.039547,6.089579,-0.248989,0.586248,-0.058098,-3.458521,188.495119,1582.930134,910.627144,0
0.064583,1.726512,-160.854345,172.545076,6.185328,3.728808,3.213059,-6.427089,-3.826326,-3.003599,6.271030,-0.248989,0.602253,-0.065566,23.040808,188.495300,1581.540942,911.818380,0
0.065625,69.531980,-191.382789,123.585796,5.303148,1.218761,5.308471,-5.844995,-1.345195,-5.131323,5.730237,-0.252642,0.609439,-0.069301,44.654217,188.645995,1580.096716,913.292754,0
0.066667,123.851215,-192.772093,41.707955,3.753678,-1.159926,6.197434,-4.318865,1.124909,-6.109152,4.278635,-0.223418,0.610745,-0.046895,64.571127,188.570636,1579.880429,914.457590,0
0.067708,171.489717,-163.500063,-33.312879,2.272068,-3.485358,6.443486,-2.251686,3.345062,-6.407117,2.353840,-0.179582,0.600881,-0.035692,77.487147,188.495363,1578.200770,915.728991,0
0.068750,179.679002,-101.875371,-99.543940,1.095828,-5.178841,5.427529,0.382661,5.168234,-5.446075,-0.172231,-0.124787,0.588208,-0.017021,76.401387,188.570774,1577.012127,916.793657,0
0.069792,186.268995,-14.735811,-147.149053,0.168408,-6.222622,3.903593,2.655066,6.145984,-3.931069,-2.445695,-0.084604,0.599966,-0.031958,70.090407,188.646007,1575.294885,917.129731,0
0.070833,150.154473,59.223484,-172.422728,-0.374472,-6.087712,1.681186,4.539408,6.134956,-1.769772,-4.295775,-0.044421,0.606891,-0.050629,48.816297,188.570685,1574.546596,917.848873,0
0.071875,69.747487,113.309691,-198.361175,-0.883422,-5.232095,-1.112697,6.196136,5.256452,0.987455,-5.921711,0.024986,0.609896,-0.005818,9.683698,188.514845,1573.814097,918.463637,0
0.072917,-0.405878,161.270880,-172.570455,-0.351852,-3.588316,-3.116832,6.281957,3.653825,2.985081,-6.074699,0.039598,0.617016,-0.050629,-16.860871,188.513174,1573.327063,919.306403,0
0.073958,-69.776611,191.304007,-123.475758,0.530328,-1.081819,-5.113030,5.744640,1.154315,5.117001,-5.491212,0.032292,0.603951,-0.039427,-40.577941,188.571274,1572.842800,919.523455,0
0.075000,-123.789599,193.406084,-40.292993,2.136348,1.275565,-6.021835,4.147614,-1.238598,6.061257,-4.068073,-0.048074,0.602514,-0.039427,-59.363850,188.570993,1572.027554,920.645000,0
0.076042,-171.178566,163.687061,33.496780,3.516168,3.561944,-6.283762,2.132674,-3.543294,6.359222,-2.111257,-0.069992,0.599183,-0.035692,-71.770920,188.495693,1571.285874,920.154763,0
0.077083,-180.048401,103.028842,99.481629,4.760268,5.283829,-5.279710,-0.494210,-5.322357,5.444343,0.368562,-0.143052,0.599705,-0.046895,-71.522100,188.495765,1570.949065,920.642215,0
0.078125,-186.887929,17.194019,147.308334,5.642448,6.302759,-3.783554,-2.818854,-6.248646,3.895763,2.645584,-0.179582,0.596504,-0.017021,-64.973610,188.646502,1570.065858,920.262693,0
0.079167,-150.716695,-58.661978,172.532766,6.185328,6.178500,-1.481775,-4.643494,-6.252321,1.738663,4.467201,-0.216112,0.603298,-0.035692,-41.889901,188.495740,1570.098599,919.887316,0
0.080208,-69.175459,-113.086450,198.655872,6.671658,5.337084,1.224799,-6.274102,-5.318681,-0.989187,6.064674,-0.238030,0.602775,-0.028224,-4.487731,188.495705,1569.462294,919.720805,0
0.081250,1.658457,-160.673131,172.877463,6.185328,3.735908,3.181311,-6.393506,-3.815299,-2.970026,6.253240,-0.241683,0.621916,-0.017021,24.409318,188.495734,1569.026437,919.599407,0
0.082292,69.361842,-191.032443,124.053599,5.325768,1.279116,5.229100,-5.815144,-1.326816,-5.059979,5.701774,-0.230724,0.607152,-0.043161,43.477977,188.646511,1568.100191,919.013021,0
0.083333,123.783160,-192.735850,42.028030,3.753678,-1.092470,6.169654,-4.277820,1.040367,-6.037808,4.289309,-0.216112,0.611137,-0.069301,64.729467,188.495727,1566.669531,919.522259,0
0.084375,171.376292,-163.343011,-32.746591,2.294688,-3.382400,6.439518,-2.281537,3.289926,-6.344167,2.368072,-0.150358,0.601665,-0.024490,76.899027,188.495709,1565.430046,919.258101,0
0.085417,179.384097,-102.624387,-99.346970,1.061898,-5.129137,5.391812,0.293109,5.120449,-5.420895,-0.115305,-0.146705,0.597876,-0.046895,75.519207,188.495732,1564.524025,919.311492,0
0.086458,185.962747,-15.267371,-146.853599,0.168408,-6.126765,3.943279,2.565513,6.072469,-3.956249,-2.360307,-0.121134,0.606172,-0.046895,70.192197,188.721940,1562.897300,919.634905,0
0.087500,150.551461,59.356374,-171.807197,-0.351852,-6.034458,1.689123,4.475974,6.094523,-1.845312,-4.213945,-0.051727,0.595916,-0.031958,46.407267,188.495808,1561.327700,920.311225,0
0.088542,70.756970,113.418419,-197.499432,-0.815562,-5.264047,-1.009514,6.099120,5.256452,0.928702,-5.814976,0.028639,0.612313,-0.054364,9.106888,188.495676,1559.650068,920.419199,0
0.089583,0.206617,160.388974,-173.112122,-0.397092,-3.662872,-2.969994,6.252106,3.723664,2.880164,-5.985752,0.003068,0.615840,-0.054364,-18.138901,188.495763,1557.817967,920.844195,0
0.090625,-69.288884,190.929499,-123.721970,0.586878,-1.159926,-5.017784,5.696132,1.246209,4.965920,-5.530348,-0.051727,0.604670,-0.087972,-40.973791,188.646491,1555.899853,922.165440,0
0.091667,-123.506036,193.538974,-40.945455,2.125038,1.172607,-5.986118,4.162539,-1.117299,6.019290,-4.096536,-0.037115,0.598464,-0.020755,-59.148960,188.495725,1554.712549,923.134370,0
0.092708,-171.257963,163.083015,32.548864,3.516168,3.487389,-6.275825,2.199839,-3.421994,6.317255,-2.221551,-0.069992,0.598137,-0.020755,-73.998990,188.495750,1552.730247,924.443666,0
0.093750,-179.878264,104.116123,99.370834,4.782888,5.205723,-5.271773,-0.386001,-5.193705,5.448540,0.276058,-0.128440,0.594740,-0.035692,-70.979220,188.495749,1550.992845,925.208109,0
0.094792,-186.207379,17.785983,147.135985,5.642448,6.242405,-3.807366,-2.684525,-6.208212,3.988091,2.528175,-0.175929,0.598072,-0.020755,-65.007540,188.646489,1549.431139,926.711522,0
0.095833,-152.100480,-58.178742,171.831061,6.151398,6.125245,-1.620676,-4.527821,-6.241294,1.818401,4.321330,-0.183235,0.606891,-0.035692,-43.348891,188.495645,1547.786894,927.551728,0
0.096875,-70.615956,-113.400554,197.597160,6.671658,5.372586,1.129553,-6.225595,-5.421602,-0.842303,5.997075,-0.259948,0.618584,-0.005818,-4.159741,188.495743,1546.514231,929.655676,0
0.097917,1.148044,-159.984520,173.850001,6.230568,3.789162,3.014630,-6.378581,-3.907193,-2.802158,6.210546,-0.241683,0.628513,-0.035692,22.950328,188.495772,1544.693261,931.110719,0
0.098958,69.271102,-190.488802,124.312122,5.291838,1.382074,5.133854,-5.844995,-1.455468,-4.967652,5.708890,-0.252642,0.607479,-0.039427,44.688147,188.571085,1543.024392,932.549819,0
0.100000,123.408857,-193.424462,42.717424,3.742368,-1.003713,6.098220,-4.333790,0.930094,-6.033612,4.378255,-0.223418,0.606368,-0.024490,64.220517,188.495705,1542.777539,934.263728,0
0.101042,171.330922,-162.847694,-31.380114,2.317308,-3.272341,6.399832,-2.400940,3.153923,-6.344167,2.481923,-0.186888,0.605192,-0.039427,77.634177,188.495712,1541.120587,935.804780,0
0.102083,179.656317,-103.868721,-99.125379,1.050588,-5.065232,5.467215,0.229675,5.032231,-5.475452,-0.012128,-0.102869,0.596896,-0.035692,76.197807,188.495747,1540.307171,937.231814,0
0.103125,185.520390,-15.641879,-146.718182,0.145788,-6.105463,3.975027,2.483423,6.039387,-4.006609,-2.271360,-0.051727,0.581022,-0.073035,70.271367,188.571076,1539.078306,938.151763,0
0.104167,151.232011,59.199322,-171.647160,-0.329232,-6.080611,1.824055,4.408810,6.109226,-1.933443,-4.114325,-0.059033,0.600881,-0.050629,49.404417,188.495662,1538.014291,939.476975,0
0.105208,71.482890,113.623794,-196.933145,-0.781632,-5.267598,-0.953954,6.069269,5.252776,0.865751,-5.797187,0.014027,0.617800,-0.046895,10.430158,188.495727,1537.369172,939.872082,0
0.106250,0.422124,160.316488,-173.629167,-0.363162,-3.680623,-2.906497,6.237181,3.782476,2.834000,-6.024889,-0.004238,0.608851,-0.020755,-16.306681,188.495729,1537.547707,940.992349,0
0.107292,-69.198144,190.518748,-124.448296,0.541638,-1.238032,-5.017784,5.718520,1.308697,4.944937,-5.519675,-0.011544,0.607544,-0.031958,-40.589251,188.571107,1537.095287,941.372997,0
0.108333,-123.415296,193.913482,-41.450190,2.091108,1.158406,-5.978181,4.188659,-1.135677,5.956340,-4.149904,-0.066339,0.602514,-0.031958,-58.753110,188.495624,1536.936670,941.505973,0
0.109375,-170.985743,163.010530,32.081061,3.516168,3.437685,-6.252013,2.267003,-3.319073,6.296272,-2.242898,-0.084604,0.598333,-0.028224,-71.917950,188.495721,1535.572112,941.856577,0
0.110417,-179.889606,104.418145,98.976894,4.794198,5.180871,-5.279710,-0.333762,-5.171651,5.419163,0.229806,-0.132093,0.592911,-0.058098,-71.148870,188.495622,1534.958845,941.832063,0
