1-Time,2-VGERA,3-VGERB,4-VGERC,5-VN,6-IGERAN,7-IGERBN,8-IGERCN,9-IGERAT,10-IGERBT,11-IGERCT,12-IN,13-IFD,14-IFAULT,15-VFAULT,16-Speed (rad/s),17-Active Power,18-Reactive Power,19-FAULT 
0.000000,73.989013,76.740488,-199.646951,-3.558930,0.181857,-5.428820,5.067205,0.138868,5.563095,-5.010213,-0.072118,0.344176,-0.003573,-47.717570,188.269496,1510.658457,-907.235379,0
0.001042,17.127788,151.661907,-172.658088,-3.018484,2.585362,-6.450853,3.598077,-2.291791,6.468985,-3.483268,-0.093995,0.338388,0.022444,-53.515607,188.495673,1510.078477,-906.923620,0
0.002083,-33.202079,189.222449,-112.179218,-1.847517,4.431107,-5.813104,1.143087,-4.232521,5.774469,-0.882512,-0.017425,0.333290,-0.003573,-39.431443,188.495716,1509.098186,-907.563585,0
0.003125,-101.374529,195.071464,-50.302906,-0.699068,6.313546,-4.819688,-1.617327,-6.051718,4.700342,1.748707,0.008098,0.316340,0.000144,-20.979049,188.495745,1508.363190,-907.584501,0
0.004167,-159.591744,148.984045,4.671257,0.348047,6.684163,-2.898266,-3.658642,-6.439104,2.819542,3.823980,0.062790,0.323506,0.007577,-7.108793,188.269378,1507.687414,-907.694064,0
0.005208,-205.412941,86.124751,57.117872,1.406421,6.170437,-0.478091,-5.452525,-5.952972,0.343443,5.510854,0.091960,0.330878,-0.018440,1.481309,188.495673,1507.955002,-907.741373,0
0.006250,-179.242314,32.191664,130.550424,2.870130,4.831079,1.868497,-6.241215,-4.604716,-2.003243,6.318117,0.121129,0.342591,-0.022156,21.082052,188.495682,1507.612936,-907.777193,0
0.007292,-132.686622,-19.192755,191.576119,4.007319,3.198164,3.826712,-6.318537,-2.910850,-3.862474,6.241960,0.113837,0.355682,0.007577,40.300012,188.495839,1507.388440,-908.546225,0
0.008333,-74.921403,-76.672834,199.438251,4.232505,0.435051,5.425172,-5.100707,-0.062421,-5.506017,5.000603,0.073729,0.339008,0.018727,49.317930,188.269519,1507.328059,-908.200616,0
0.009375,-17.698582,-152.181504,172.862545,3.692059,-1.961115,6.492174,-3.616115,2.379633,-6.394652,3.462235,0.059144,0.340249,0.011294,52.470261,188.495649,1506.548813,-907.937365,0
0.010417,33.252782,-189.025601,113.307202,2.532351,-3.828877,5.825809,-1.149526,4.305171,-5.764843,0.930021,-0.013779,0.337217,-0.018440,39.343055,188.495685,1506.645318,-907.481401,0
0.011458,101.786829,-195.039046,51.515951,1.372643,-5.634257,4.844657,1.568361,6.135761,-4.720913,-1.731661,-0.039302,0.319441,0.000144,21.498610,188.495778,1507.011817,-907.288851,0
0.012500,159.642447,-149.303977,-4.090099,0.269232,-6.008544,3.000909,3.629006,6.530744,-2.818544,-3.848821,-0.053887,0.327640,-0.007290,7.358155,188.269462,1506.892486,-906.510410,0
0.013542,205.350644,-86.491663,-56.949870,-0.789143,-5.568207,0.560294,5.345566,6.044612,-0.359700,-5.482385,-0.108580,0.332394,0.003860,0.186602,188.420341,1506.890826,-906.018920,0
0.014583,179.338216,-32.687771,-130.661911,-2.196555,-4.283891,-1.851704,6.219311,4.726738,1.969731,-6.308687,-0.137749,0.343831,-0.025873,-20.506199,188.420220,1507.171050,-905.143922,0
0.015625,133.042422,19.084233,-191.140781,-3.401300,-2.636298,-3.756774,6.319830,3.029075,3.828963,-6.228722,-0.123164,0.345761,0.000144,-38.744685,188.495714,1506.763609,-904.961753,0
0.016667,74.881707,76.775723,-199.391766,-3.513893,0.137823,-5.432908,5.059473,0.154060,5.554467,-5.017828,-0.093995,0.337355,0.003860,-48.100353,188.269469,1506.828638,-905.018896,0
0.017708,17.545886,151.626672,-172.779605,-3.086040,2.570684,-6.454941,3.636738,-2.284195,6.447416,-3.471845,-0.079410,0.333979,0.026161,-53.312957,188.495627,1506.469057,-905.049051,0
0.018750,-33.202079,189.281174,-112.653134,-1.892554,4.361387,-5.833545,1.135355,-4.224925,5.804665,-0.912975,-0.046595,0.338733,0.003860,-38.542035,188.420256,1507.071038,-904.975160,0
0.019792,-101.329329,195.059719,-50.861883,-0.744105,6.295199,-4.827864,-1.605729,-6.013739,4.777990,1.718244,0.033621,0.322679,-0.007290,-20.235999,188.495810,1507.721285,-904.373772,0
0.020833,-159.704743,148.749145,4.379617,0.348047,6.680494,-2.930971,-3.724366,-6.442902,2.832484,3.804941,0.088314,0.323644,0.015011,-7.480317,188.269456,1507.809764,-904.104114,0
0.021875,-205.379041,85.842870,57.166478,1.440199,6.155759,-0.437210,-5.452525,-5.960568,0.347757,5.488007,0.081021,0.328880,0.003860,0.929651,188.495595,1507.807887,-903.707124,0
0.022917,-178.948516,31.510454,130.854216,2.847611,4.845757,1.905290,-6.260545,-4.578130,-1.973047,6.340964,0.099252,0.334805,0.011294,21.104569,188.420133,1507.904378,-903.286555,0
0.023958,-132.155525,-20.038395,191.102204,4.018579,3.238528,3.822624,-6.341734,-2.918446,-3.776199,6.253383,0.110191,0.339835,-0.011006,39.534446,188.495691,1507.872959,-901.819760,0
0.025000,-73.294214,-76.825519,199.584071,4.221246,0.424042,5.470141,-5.058180,-0.032037,-5.531900,5.004411,0.088314,0.330809,0.026161,48.788789,188.269487,1507.981074,-901.717361,0
0.026042,-16.263491,-151.688214,172.874696,3.647022,-2.008818,6.512615,-3.600650,2.364441,-6.411907,3.477467,0.066437,0.332738,0.007577,52.459003,188.420332,1508.338472,-901.056609,0
0.027083,33.693479,-189.366206,112.189248,2.532351,-3.850893,5.829897,-1.161125,4.343150,-5.769157,0.952868,0.026329,0.327226,-0.018440,37.778148,188.420341,1508.870238,-900.753885,0
0.028125,101.300932,-195.215221,50.240026,1.350125,-5.641596,4.848745,1.564495,6.143357,-4.707971,-1.731661,-0.032010,0.317305,0.011294,21.273444,188.495638,1508.777310,-900.477259,0
0.029167,159.405148,-148.751961,-4.782744,0.291750,-6.026891,2.984557,3.675400,6.576318,-2.801289,-3.845013,-0.083057,0.321232,0.003860,7.099213,188.344862,1509.036356,-900.379890,0
0.030208,205.248945,-85.364142,-56.816202,-0.755365,-5.564537,0.482620,5.361031,6.059803,-0.325190,-5.490001,-0.097641,0.325159,0.015011,-0.342540,188.495725,1508.901257,-900.377571,0
0.031250,179.112218,-31.207900,-129.993569,-2.219074,-4.232519,-1.835351,6.199980,4.673568,2.017183,-6.282032,-0.097641,0.339008,-0.022156,-20.179707,188.420253,1507.816979,-900.287848,0
0.032292,132.161028,20.070814,-191.031416,-3.367522,-2.621620,-3.752685,6.273437,2.998691,3.807394,-6.262993,-0.101287,0.352375,-0.003573,-39.848001,188.495787,1507.939167,-899.772599,0
0.033333,73.785614,76.716998,-199.634800,-3.525153,0.115807,-5.371586,5.032410,0.146464,5.537212,-5.006405,-0.115872,0.345554,0.007577,-47.627503,188.344851,1507.701064,-899.311248,0
0.034375,16.800090,151.626672,-172.560875,-3.086040,2.559676,-6.422236,3.574880,-2.269004,6.468985,-3.448998,-0.046595,0.341282,0.011294,-53.470573,188.420244,1507.739880,-899.033501,0
0.035417,-33.484577,188.940569,-112.325038,-1.881295,4.401751,-5.792664,1.139221,-4.202138,5.765842,-0.909167,-0.017425,0.337286,-0.007290,-39.498993,188.417044,1507.141744,-898.464623,0
0.036458,-101.261529,195.130189,-50.072024,-0.687809,6.254835,-4.795159,-1.594131,-6.002345,4.696029,1.718244,0.055498,0.315238,-0.007290,-20.967790,188.495466,1506.217192,-898.244469,0
0.037500,-159.184947,149.113240,5.145172,0.359306,6.651138,-2.926883,-3.681839,-6.374540,2.797974,3.804941,0.099252,0.322128,0.029877,-6.951176,188.269284,1505.241394,-897.964092,0
0.038542,-205.356441,85.925086,57.227237,1.440199,6.148420,-0.469915,-5.379069,-5.899802,0.377953,5.465160,0.113837,0.329225,-0.003573,1.515084,188.420075,1504.653915,-897.378506,0
0.039583,-179.377913,31.721864,130.270935,2.825093,4.827410,1.848056,-6.210286,-4.540151,-1.968733,6.238152,0.132068,0.339008,0.011294,21.048277,188.420206,1503.234088,-896.864985,0
0.040625,-132.392824,-19.580340,191.296631,4.007319,3.154130,3.769478,-6.334002,-2.891860,-3.793454,6.245768,0.146652,0.354993,0.011294,40.254979,188.495376,1502.945979,-897.456930,0
0.041667,-74.412907,-76.672834,199.365341,4.164950,0.438720,5.392467,-5.042716,-0.020644,-5.484448,4.943486,0.121129,0.341144,-0.014723,49.205347,188.269283,1501.774962,-897.571087,0
0.042708,-17.201385,-152.064054,172.643815,3.669540,-1.942768,6.406324,-3.616115,2.368239,-6.398966,3.408926,0.073729,0.338457,0.000144,52.492778,188.420148,1500.886861,-898.132040,0
0.043750,33.501380,-188.755465,113.319353,2.566129,-3.773835,5.817632,-1.164991,4.240606,-5.717392,0.941444,0.004452,0.335701,0.000144,39.331796,188.420012,1499.689046,-897.406551,0
0.044792,101.662530,-195.168241,51.212159,1.350125,-5.608571,4.824216,1.545164,6.109176,-4.703658,-1.712622,-0.024718,0.319372,-0.011006,21.453577,188.495437,1499.498710,-897.203847,0
0.045833,159.359948,-149.550622,-4.357435,0.280491,-6.004874,2.976380,3.613542,6.515552,-2.822858,-3.822166,-0.104934,0.326469,-0.018440,7.268088,188.269360,1499.108991,-896.881068,0
0.046875,205.203745,-86.714818,-57.034932,-0.800402,-5.568207,0.531677,5.345566,6.014228,-0.389896,-5.463346,-0.115872,0.333496,-0.033307,0.130310,188.420106,1498.983710,-896.407101,0
0.047917,179.462516,-32.676026,-130.455333,-2.196555,-4.287561,-1.761765,6.134256,4.719143,1.974045,-6.274416,-0.104934,0.341833,0.044744,-20.517457,188.420017,1499.635200,-896.335527,0
0.048958,133.189321,19.189938,-191.019264,-3.367522,-2.658315,-3.724069,6.304366,3.013883,3.820335,-6.262993,-0.163272,0.353064,-0.003573,-38.710910,188.495569,1499.741536,-897.007956,0
0.050000,75.378903,76.670018,-199.318856,-3.558930,0.115807,-5.412467,5.040142,0.176847,5.528585,-4.994981,-0.075764,0.347896,0.018727,-47.931478,188.344726,1499.630642,-897.203070,0
0.051042,17.952683,151.685397,-172.755302,-3.052262,2.548667,-6.459029,3.594211,-2.272802,6.447416,-3.521347,-0.079410,0.336115,-0.014723,-53.256665,188.420070,1500.094161,-897.249697,0
0.052083,-33.405478,188.940569,-112.956925,-1.915073,4.416429,-5.817192,1.143087,-4.217329,5.765842,-0.966285,0.000805,0.338595,-0.003573,-38.575810,188.420168,1500.609342,-897.197929,0
0.053125,-101.544028,195.024484,-51.141371,-0.732846,6.258504,-4.840129,-1.574800,-6.036526,4.747794,1.649703,0.048206,0.319441,0.000144,-20.269774,188.495575,1501.677324,-896.992027,0
0.054167,-159.546544,149.066260,4.331010,0.370565,6.632790,-2.914618,-3.681839,-6.450498,2.849739,3.789710,0.055498,0.326606,0.007577,-7.514092,188.344713,1502.869626,-897.163156,0
0.055208,-205.322542,86.453611,57.275843,1.417680,6.148420,-0.465827,-5.409998,-5.960568,0.356385,5.488007,0.139360,0.330120,0.015011,0.918393,188.344713,1503.548090,-897.876693,0
0.056250,-179.219714,32.074214,130.842064,2.881389,4.816401,1.864408,-6.241215,-4.604716,-1.968733,6.310501,0.121129,0.342522,-0.003573,21.082052,188.420133,1505.015973,-898.304622,0
0.057292,-132.630122,-19.791750,190.992839,4.007319,3.212842,3.802183,-6.353332,-2.937435,-3.845219,6.268615,0.121129,0.349481,-0.003573,39.523188,188.495470,1505.749503,-898.651410,0
0.058333,-73.847911,-76.743304,199.389644,4.198728,0.442390,5.453789,-5.100707,-0.028239,-5.527586,5.038682,0.095606,0.333427,-0.033307,48.687464,188.344813,1507.190706,-898.712324,0
0.059375,-16.512089,-151.629489,172.777483,3.725837,-1.964784,6.496262,-3.619981,2.360643,-6.446417,3.492698,0.073729,0.348654,0.000144,52.425228,188.269292,1508.489050,-898.324647,0
0.060417,33.783878,-189.119561,112.651011,2.509832,-3.817868,5.887131,-1.180455,4.305171,-5.721705,0.933828,0.004452,0.342936,0.011294,37.856956,188.420207,1508.849722,-898.805119,0
0.061458,101.142733,-195.191731,50.434452,1.316347,-5.619579,4.791511,1.518101,6.090187,-4.725226,-1.701198,-0.021072,0.317374,0.011294,21.397285,188.495486,1508.894015,-898.259993,0
0.062500,159.258249,-148.928136,-4.770592,0.291750,-6.001205,2.955940,3.613542,6.526946,-2.805603,-3.814550,-0.075764,0.323024,0.026161,7.166763,188.420008,1508.785759,-897.991627,0
0.063542,205.260245,-85.328907,-56.828354,-0.789143,-5.535182,0.515325,5.368763,6.018026,-0.372641,-5.486193,-0.108580,0.326813,-0.011006,-0.342540,188.344731,1508.737306,-897.914136,0
0.064583,179.168717,-31.149175,-129.957114,-2.207814,-4.225180,-1.827175,6.165185,4.665972,1.961104,-6.282032,-0.126811,0.331498,-0.011006,-20.179707,188.420034,1508.151416,-897.382135,0
0.065625,132.104528,20.129539,-190.922051,-3.401300,-2.658315,-3.781302,6.288901,2.991096,3.863473,-6.251569,-0.123164,0.350721,-0.022156,-39.836742,188.495517,1507.921868,-897.294219,0
0.066667,73.616115,76.752233,-199.561889,-3.570190,0.170849,-5.416555,5.024678,0.188241,5.524271,-5.014021,-0.119518,0.342591,-0.011006,-47.559953,188.420128,1508.262560,-896.459642,0
0.067708,16.675791,151.638417,-172.548723,-3.052262,2.522981,-6.389531,3.555550,-2.280397,6.425847,-3.490884,-0.072118,0.358300,0.000144,-53.448057,188.344777,1507.848422,-895.998822,0
0.068750,-33.586277,188.846609,-112.203522,-1.892554,4.383404,-5.768135,1.127622,-4.213531,5.739959,-0.977708,-0.028364,0.319647,0.003860,-39.487734,188.420074,1507.610967,-895.430452,0
0.069792,-101.171130,195.165424,-49.877598,-0.687809,6.258504,-4.786983,-1.578666,-6.021335,4.708970,1.630663,0.011744,0.313171,0.003860,-20.990307,188.495553,1507.171639,-894.767700,0
0.070833,-159.004148,149.042770,5.412509,0.370565,6.618113,-2.922795,-3.650910,-6.374540,2.785032,3.770671,0.091960,0.319579,0.011294,-6.939918,188.344746,1505.818215,-894.168866,0
0.071875,-205.277342,85.502265,57.360905,1.395162,6.163098,-0.482180,-5.429328,-5.922589,0.373640,5.446121,0.095606,0.327089,0.003860,1.571376,188.344766,1505.280272,-893.123254,0
0.072917,-179.264914,31.263809,130.246632,2.870130,4.790715,1.856232,-6.187089,-4.540151,-1.951478,6.241960,0.146652,0.336666,-0.029590,21.025761,188.420166,1503.902337,-892.340879,0
0.073958,-132.223325,-19.744770,191.345237,4.029838,3.201833,3.822624,-6.306939,-2.914648,-3.823650,6.203881,0.117483,0.349826,0.007577,40.288754,188.495535,1503.002829,-891.898334,0
0.075000,-74.085209,-76.637599,199.377492,4.164950,0.424042,5.429260,-5.019519,-0.035835,-5.497390,4.962525,0.132068,0.351341,-0.007290,49.216605,188.344851,1501.934108,-891.681236,0
0.076042,-16.907587,-152.040564,172.753180,3.680800,-1.979462,6.483998,-3.589052,2.345452,-6.386025,3.405118,0.059144,0.335563,0.022444,52.515295,188.344668,1500.561097,-891.674773,0
0.077083,33.670879,-188.919896,112.966955,2.532351,-3.784843,5.850337,-1.164991,4.263394,-5.751902,0.907173,0.022683,0.333496,-0.007290,39.388088,188.420110,1500.468151,-891.655812,0
0.078125,101.662530,-195.215221,50.823306,1.361384,-5.623249,4.803776,1.541298,6.116772,-4.712285,-1.762124,-0.050241,0.316685,-0.025873,21.374769,188.495446,1500.426031,-892.656430,0
0.079167,159.393848,-149.221761,-4.636924,0.291750,-6.019552,2.935499,3.613542,6.538339,-2.745210,-3.841205,-0.090349,0.325091,-0.011006,7.178021,188.344665,1500.046509,-893.540221,0
0.080208,205.429744,-86.186292,-57.107842,-0.777883,-5.553529,0.535765,5.353299,6.033218,-0.381269,-5.497616,-0.086703,0.330740,0.003860,0.085277,188.344695,1500.515492,-893.898404,0
0.081250,179.349516,-32.217971,-130.528243,-2.230333,-4.225180,-1.814911,6.172917,4.696355,1.948163,-6.297263,-0.130457,0.341971,-0.003573,-20.528716,188.420200,1501.161484,-894.189695,0
0.082292,132.985923,19.448328,-191.055719,-3.356263,-2.665654,-3.732245,6.304366,2.994893,3.841904,-6.255377,-0.123164,0.355544,0.003860,-38.688393,188.495564,1501.223947,-894.473102,0
0.083333,75.107705,76.834448,-199.367463,-3.536412,0.159840,-5.408379,5.067205,0.161656,5.524271,-5.048291,-0.097641,0.341213,-0.003573,-48.077836,188.344643,1501.465153,-895.263428,0
0.084375,17.873583,151.603182,-172.694543,-3.063521,2.603709,-6.503999,3.617408,-2.295589,6.456043,-3.509923,-0.079410,0.339008,0.026161,-53.324215,188.344728,1501.774466,-896.044799,0
0.085417,-33.292479,189.081509,-112.665285,-1.892554,4.394412,-5.837633,1.158551,-4.209734,5.821920,-0.924398,-0.035656,0.336735,0.003860,-38.530777,188.420081,1502.280675,-896.965927,0
0.086458,-101.792626,194.871799,-51.129220,-0.699068,6.265843,-4.840129,-1.586398,-6.017537,4.769363,1.680165,0.029975,0.320405,-0.022156,-20.202224,188.495569,1502.750130,-897.665847,0
0.087500,-159.964641,148.948810,4.148735,0.359306,6.669485,-2.971852,-3.666375,-6.477083,2.836797,3.827788,0.073729,0.329362,-0.011006,-7.491576,188.420160,1504.366050,-898.948627,0
0.088542,-205.412941,86.688511,57.227237,1.406421,6.170437,-0.486268,-5.440927,-5.975760,0.334816,5.510854,0.099252,0.330465,-0.014723,0.974684,188.269265,1505.072189,-900.572697,0
0.089583,-178.937216,32.520525,131.145856,2.847611,4.864105,1.872585,-6.287608,-4.619907,-1.964419,6.340964,0.132068,0.344589,-0.033307,21.149602,188.420108,1506.874534,-901.575932,0
0.090625,-132.754421,-19.568595,191.114356,4.007319,3.209172,3.806271,-6.384261,-2.926041,-3.888357,6.283846,0.150299,0.357267,-0.011006,39.534446,188.495311,1507.934682,-902.769397,0
0.091667,-74.379007,-77.001694,199.389644,4.209987,0.409364,5.511023,-5.100707,-0.051027,-5.549155,5.038682,0.102898,0.344245,-0.029590,48.822564,188.420075,1509.358591,-903.139383,0
0.092708,-16.918887,-151.758684,172.911151,3.658281,-1.957446,6.512615,-3.647044,2.387229,-6.511124,3.496506,0.044560,0.335839,-0.011006,52.335161,188.269315,1511.357442,-904.054438,0
0.093750,33.523980,-189.366206,112.699618,2.543610,-3.843555,5.903483,-1.192054,4.331756,-5.833863,0.941444,0.008098,0.336872,-0.011006,37.811923,188.420126,1512.860510,-904.709369,0
0.094792,101.493031,-195.109516,51.005581,1.372643,-5.670952,4.934596,1.549030,6.173740,-4.794247,-1.708814,-0.039302,0.322610,-0.022156,21.498610,188.495617,1514.286818,-904.550011,0
0.095833,159.698946,-148.681491,-4.284525,0.291750,-6.118628,2.996821,3.663801,6.614298,-2.900505,-3.845013,-0.068472,0.327778,-0.018440,7.403188,188.495164,1516.485077,-903.998331,0
0.096875,205.395844,-85.622532,-56.949870,-0.789143,-5.645266,0.535765,5.438353,6.082591,-0.407151,-5.512848,-0.115872,0.335908,-0.025873,-0.252473,188.269261,1517.205088,-903.793875,0
0.097917,179.010519,-31.360585,-130.467484,-2.252852,-4.298569,-1.863968,6.242508,4.772313,1.956790,-6.373420,-0.104934,0.356440,-0.048173,-20.359841,188.420269,1518.650969,-903.849048,0
0.098958,132.115828,19.941619,-191.128629,-3.412560,-2.661984,-3.789479,6.412617,3.078447,3.876414,-6.312495,-0.115872,0.365535,-0.011006,-39.870517,188.495734,1520.098777,-903.413192,0
0.100000,73.435316,76.951898,-199.707710,-3.536412,0.148832,-5.469701,5.086536,0.211029,5.584664,-5.101601,-0.075764,0.322541,-0.007290,-47.728828,188.495689,1521.488272,-902.855456,0
0.101042,16.494992,151.779357,-172.536572,-3.063521,2.522981,-6.503999,3.648337,-2.253812,6.503495,-3.559425,-0.079410,0.341833,-0.022156,-53.515607,188.269333,1522.741064,-901.862141,0
0.102083,-33.495877,189.422114,-111.705303,-1.870035,4.456793,-5.870338,1.146953,-4.217329,5.847803,-0.996747,-0.050241,0.338182,0.029877,-39.330118,188.420110,1523.752993,-900.984632,0
0.103125,-101.397128,195.153679,-49.962659,-0.676550,6.339233,-4.876922,-1.567068,-6.070707,4.782304,1.699205,0.008098,0.319027,0.003860,-20.911499,188.495450,1524.249162,-901.325988,0
0.104167,-159.467445,148.432029,4.999352,0.359306,6.713519,-2.947323,-3.705036,-6.507466,2.841111,3.854443,0.077375,0.322955,0.015011,-7.063759,188.495541,1524.515464,-901.330875,0
0.105208,-205.650240,85.232130,57.324450,1.428940,6.203462,-0.486268,-5.448659,-6.006143,0.386581,5.522278,0.073729,0.327364,-0.037023,1.537601,188.269415,1525.335102,-900.454894,0
0.106250,-178.892016,31.052398,130.769154,2.847611,4.849427,1.876673,-6.310805,-4.631301,-1.955792,6.340964,0.121129,0.340800,-0.033307,21.104569,188.420039,1525.494932,-899.785658,0
0.107292,-131.963426,-19.709535,191.539664,4.063616,3.220181,3.826712,-6.384261,-2.929839,-3.866788,6.260999,0.124775,0.342040,0.000144,40.300012,188.495427,1525.302629,-899.130647,0
0.108333,-73.588012,-76.731559,199.535464,4.187468,0.431381,5.539639,-5.089109,-0.024442,-5.575037,5.061529,0.081021,0.317305,-0.014723,49.407997,188.495539,1525.520689,-899.392453,0
0.109375,-16.591189,-152.111034,172.765331,3.692059,-1.979462,6.549408,-3.623847,2.383431,-6.476614,3.519353,0.095606,0.338182,-0.014723,52.605361,188.269360,1525.601508,-898.823932,0
0.110417,33.648279,-189.530636,112.201400,2.532351,-3.847224,5.919836,-1.172723,4.327958,-5.790726,0.949060,-0.006487,0.339077,-0.037023,39.185438,188.420169,1525.237597,-898.392863,0
