1-Time,2-VGERA,3-VGERB,4-VGERC,5-VN,6-IGERAN,7-IGERBN,8-IGERCN,9-IGERAT,10-IGERBT,11-IGERCT,12-IN,13-IFD,14-IFAULT,15-VFAULT,16-Speed (rad/s),17-Active Power,18-Reactive Power,19-FAULT 
0.000000,101.914819,77.236111,-194.852652,-0.826872,-3.336246,-2.716005,5.711058,3.561931,2.544428,-5.455633,-0.000585,0.470558,-0.043161,164.121745,188.777164,1643.752061,-28.435113,0
0.001042,28.971198,136.649997,-195.357387,-0.792942,-1.415546,-4.370905,5.270756,1.595405,4.432940,-5.174563,-0.000585,0.447498,-0.058098,134.580025,188.721237,1643.512323,-28.597518,0
0.002083,-34.365325,180.829863,-149.389584,0.021378,0.973792,-5.450359,3.979702,-0.712966,5.435950,-3.883065,-0.015197,0.450829,-0.028224,87.078027,188.797630,1644.986956,-29.292745,0
0.003125,-86.892445,205.523231,-73.691667,1.435128,3.373780,-5.724192,1.789388,-3.183070,5.864012,-1.897787,-0.069992,0.451548,-0.043161,20.575228,188.571368,1645.844805,-29.527199,0
0.004167,-150.830120,173.073923,-8.777841,2.713158,4.903950,-5.085250,-0.333762,-4.657046,5.133788,0.208459,-0.121134,0.446975,-0.058098,-43.903081,188.726444,1647.351065,-30.162059,0
0.005209,-189.814294,124.955682,53.907765,3.866778,5.766667,-3.585125,-2.453180,-5.660526,3.740486,2.282683,-0.208806,0.448347,-0.061832,-100.283429,188.801643,1647.555498,-31.433223,0
0.006250,-191.969369,44.545185,113.897349,5.043018,5.862525,-1.497650,-4.393492,-5.649498,1.671516,4.182574,-0.186888,0.436197,-0.043161,-142.639378,188.800293,1649.152051,-32.997359,0
0.007291,-165.892960,-22.733369,168.704167,6.106158,5.234126,0.474736,-5.456932,-5.145921,-0.288339,5.267717,-0.238030,0.431559,-0.039427,-164.309338,188.652956,1649.107807,-33.062726,0
0.008334,-101.218023,-76.952466,195.762879,6.637728,3.395081,2.847949,-5.893503,-3.333776,-2.638487,5.616386,-0.245336,0.456317,-0.054364,-160.463938,188.723389,1650.166020,-33.632183,0
0.009375,-30.361422,-136.885831,194.962690,6.649038,1.410476,4.566346,-5.389768,-1.312113,-4.438868,5.299737,-0.270907,0.450242,-0.024490,-130.322789,188.800039,1650.549930,-33.737051,0
0.010416,33.791761,-182.008008,148.785607,5.755548,-0.918507,5.633895,-4.080057,0.952149,-5.496435,4.001123,-0.172276,0.460498,-0.039427,-81.949920,188.799548,1652.268249,-34.501727,0
0.011458,87.192253,-205.046292,72.804546,4.273938,-3.300743,5.848199,-1.874817,3.411226,-5.848957,1.990940,-0.164970,0.450242,-0.073035,-14.395291,188.721862,1652.556346,-34.937878,0
0.012500,150.903078,-172.826521,7.681439,3.041148,-4.862866,5.161634,0.218481,4.932986,-5.101946,-0.090400,-0.132093,0.442860,-0.046895,48.895467,188.724665,1653.398343,-36.566735,0
0.013541,189.081935,-123.874698,-54.351705,1.921458,-5.675880,3.705164,2.304317,5.873978,-3.746414,-2.143278,-0.113828,0.449262,-0.054364,106.813976,188.798321,1653.130901,-37.520330,0
0.014583,191.724738,-44.249459,-114.279735,0.767838,-5.771737,1.681186,4.211047,5.903384,-1.727805,-4.014705,-0.015197,0.453508,-0.050629,146.738275,188.722601,1654.040989,-37.513381,0
0.015625,165.591617,22.545859,-168.975758,-0.283992,-5.143338,-0.322949,5.319264,5.322616,0.282411,-5.135427,-0.033462,0.464286,-0.024490,170.206525,188.723433,1653.807461,-38.261185,0
0.016666,101.064131,77.465649,-195.812879,-0.826872,-3.307844,-2.763628,5.718520,3.484741,2.632559,-5.501885,-0.051727,0.470166,-0.013287,164.517595,188.722000,1654.512644,-39.665226,0
0.017708,29.277446,137.459418,-194.594129,-0.804252,-1.294836,-4.422496,5.184935,1.507187,4.424547,-5.117638,-0.040768,0.461347,-0.017021,135.077665,188.797037,1653.563861,-40.639245,0
0.018750,-35.091245,182.569513,-147.727652,0.077928,1.005744,-5.505919,3.890149,-0.757075,5.461130,-3.829697,-0.055380,0.430905,-0.039427,87.847107,188.721503,1653.692966,-40.774716,0
0.019791,-87.652392,205.148723,-71.377273,1.582158,3.409282,-5.676569,1.778194,-3.238206,5.801062,-1.798167,-0.066339,0.443840,-0.050629,20.699638,188.722107,1652.470369,-41.444667,0
0.020833,-151.646780,172.530282,-7.214394,2.792328,4.964304,-5.013815,-0.400926,-4.697479,5.062444,0.240479,-0.117481,0.449523,-0.009553,-45.350761,188.722069,1652.158668,-41.679853,0
0.021875,-189.678184,124.520770,54.658712,3.934638,5.770218,-3.557345,-2.460642,-5.653174,3.719502,2.279126,-0.197847,0.450111,-0.031958,-99.955439,188.797978,1651.854259,-41.465215,0
0.022917,-192.037424,44.714318,115.202273,5.054328,5.830572,-1.489713,-4.389761,-5.612741,1.637943,4.161226,-0.234377,0.445081,-0.005818,-142.130428,188.723275,1651.514107,-41.477913,0
0.023959,-165.314493,-23.784408,169.332008,6.094848,5.127617,0.454893,-5.400962,-5.076081,-0.351290,5.239254,-0.263601,0.460302,-0.054364,-164.015278,188.723011,1650.631796,-41.949427,0
0.025000,-99.108318,-77.906858,196.169129,6.637728,3.302774,2.947164,-5.863652,-3.238206,-2.659471,5.605712,-0.248989,0.453900,-0.054364,-158.122768,188.723139,1649.816839,-42.147088,0
0.026042,-27.707277,-137.816061,194.285607,6.569868,1.332370,4.526660,-5.326334,-1.253301,-4.472442,5.235696,-0.256295,0.453377,-0.054364,-129.632879,188.797686,1649.062839,-42.048943,0
0.027084,35.277628,-183.022804,147.012879,5.721618,-0.939808,5.618021,-3.964384,1.018312,-5.467058,3.965545,-0.230724,0.453116,-0.031958,-82.458870,188.797200,1648.555342,-41.882043,0
0.028125,88.156366,-204.454327,71.696591,4.296558,-3.297193,5.800576,-1.844966,3.447983,-5.769220,1.923341,-0.168623,0.452071,-0.005818,-14.994721,188.797220,1647.311667,-42.371567,0
0.029168,152.638481,-172.186233,6.967424,3.007218,-4.862866,5.153697,0.285646,4.944013,-5.114536,-0.133095,-0.139399,0.445799,-0.024490,50.546727,188.721717,1647.843141,-42.157534,0
0.030223,188.503468,-121.784701,-56.789205,1.819668,-5.658128,3.566263,2.375213,5.811490,-3.637300,-2.214435,-0.091910,0.447629,-0.031958,106.395506,188.797097,1646.204574,-42.514363,0
0.031256,191.622655,-41.337961,-116.606440,0.688668,-5.725583,1.546254,4.337914,5.859275,-1.614494,-4.039610,-0.033462,0.448543,-0.009553,147.213295,188.721739,1645.720396,-42.569463,0
0.032292,164.468709,25.251982,-169.037311,-0.272682,-5.033279,-0.374541,5.274487,5.267479,0.324378,-5.096291,-0.026156,0.453573,-0.046895,166.790905,188.796247,1644.549753,-42.015607,0
0.033333,97.808834,78.649577,-196.391478,-0.792942,-3.265241,-2.839031,5.748371,3.466362,2.632559,-5.469865,-0.022503,0.442925,-0.043161,164.042575,188.796124,1643.741515,-40.811802,0
0.034375,28.778376,138.353405,-193.670834,-0.736392,-1.280635,-4.434402,5.177472,1.485133,4.386777,-5.085617,-0.007891,0.467030,-0.028224,133.019246,188.796044,1642.884998,-40.379221,0
0.035417,-34.977820,184.321245,-146.188826,0.111858,1.112252,-5.533700,3.837910,-0.823239,5.503097,-3.754983,-0.091910,0.456643,-0.035692,85.291047,188.645444,1643.057519,-41.341877,0
0.036458,-88.695902,204.230574,-70.540152,1.536918,3.462537,-5.632914,1.684910,-3.216152,5.750702,-1.734126,-0.121134,0.443448,-0.043161,17.419738,188.796865,1641.747024,-41.240452,0
0.037500,-153.178017,172.071208,-5.884849,2.747088,5.003357,-4.950318,-0.456897,-4.697479,5.062444,0.308078,-0.143052,0.440051,-0.035692,-47.103811,188.797583,1642.024542,-41.182781,0
0.038542,-188.702729,122.503259,56.037500,3.979878,5.734715,-3.466067,-2.509150,-5.605389,3.618782,2.328935,-0.172276,0.448347,-0.009553,-101.357879,188.797467,1640.276646,-41.652652,0
0.039583,-192.207562,42.684726,116.654925,5.110878,5.791519,-1.446058,-4.434537,-5.660526,1.600173,4.171900,-0.219765,0.453312,-0.073035,-143.170948,188.646179,1640.995783,-41.050347,0
0.040625,-165.076300,-24.267644,169.332008,6.072228,5.109866,0.514422,-5.430813,-5.039324,-0.355486,5.232138,-0.238030,0.464940,-0.054364,-164.592088,188.797318,1640.501828,-41.079232,0
0.041667,-98.529850,-78.220961,197.104735,6.637728,3.281472,2.974944,-5.848726,-3.205125,-2.751798,5.619944,-0.252642,0.469512,-0.039427,-160.124638,188.797278,1641.226309,-42.125143,0
0.042708,-28.217689,-138.504672,193.362311,6.547248,1.296867,4.574283,-5.221856,-1.179786,-4.480835,5.193002,-0.227071,0.465658,-0.028224,-127.925069,188.798176,1640.578680,-43.092724,0
0.043750,35.946836,-185.028234,145.400190,5.665068,-1.074719,5.657707,-3.964384,1.132261,-5.492238,3.883714,-0.219765,0.443905,-0.024490,-79.540890,188.723016,1640.723589,-44.277046,0
0.044792,88.927656,-203.826120,69.640720,4.262628,-3.343347,5.745016,-1.803921,3.503119,-5.731450,1.855742,-0.139399,0.441749,-0.031958,-11.907091,188.798270,1639.950386,-44.660758,0
0.045833,153.602594,-171.872129,5.256250,3.052458,-4.855765,5.114011,0.296840,4.947689,-5.055782,-0.129537,-0.143052,0.447041,-0.039427,51.519387,188.798563,1639.583386,-44.122878,0
0.046875,188.276618,-122.787416,-56.370644,1.864908,-5.594223,3.578169,2.326705,5.800463,-3.666677,-2.182414,-0.099216,0.447237,-0.035692,107.820566,188.797516,1639.642885,-43.887172,0
0.047917,192.008300,-42.751427,-117.332766,0.711288,-5.707832,1.581971,4.229704,5.870302,-1.622888,-4.011148,-0.037115,0.453900,-0.054364,148.706215,188.721728,1640.051066,-43.847931,0
0.048958,164.196489,25.698975,-169.271213,-0.272682,-4.987126,-0.386446,5.252099,5.179261,0.332771,-5.050039,-0.040768,0.463960,-0.058098,169.708885,188.797188,1638.697744,-44.030670,0
0.050000,95.994033,79.446917,-197.056251,-0.792942,-3.187134,-2.819188,5.677475,3.374468,2.687116,-5.448518,-0.022503,0.464678,-0.050629,163.601485,188.796956,1638.118909,-44.691727,0
0.051042,26.203628,139.102421,-192.870645,-0.713772,-1.223831,-4.362967,5.128964,1.441024,4.390973,-5.039365,-0.004238,0.451679,-0.076769,133.143656,188.796988,1637.278403,-44.194820,0
0.052083,-36.588455,185.432688,-144.810038,0.145788,1.066099,-5.490045,3.830447,-0.819563,5.452737,-3.733635,-0.044421,0.450764,-0.035692,86.478597,188.721518,1636.660932,-43.091106,0
0.053125,-89.807467,203.481558,-69.567614,1.593468,3.398632,-5.617040,1.655059,-3.212476,5.746505,-1.748357,-0.113828,0.449980,-0.046895,18.663838,188.708599,1636.499387,-42.220569,0
0.054167,-154.607172,171.600053,-5.244697,2.747088,4.985606,-4.970161,-0.490479,-4.701155,5.037264,0.340099,-0.135746,0.446387,-0.058098,-48.008610,188.784320,1636.537772,-42.168519,0
0.055208,-188.691386,122.285803,57.010038,3.934638,5.674360,-3.414476,-2.542733,-5.553929,3.610388,2.339609,-0.168623,0.447106,-0.031958,-101.493599,188.795526,1636.008321,-41.880704,0
0.056250,-192.162192,41.041723,117.738258,5.065638,5.784419,-1.414310,-4.412149,-5.605389,1.562402,4.154111,-0.208806,0.445995,-0.061832,-144.087058,188.720333,1635.181844,-41.458664,0
0.057292,-163.885338,-26.732148,169.479735,6.083538,5.077913,0.542202,-5.378574,-4.984188,-0.359683,5.189444,-0.227071,0.457362,-0.028224,-163.811698,188.721587,1633.944277,-40.509596,0
0.058333,-95.614827,-79.513618,197.277084,6.660348,3.231769,2.970976,-5.830069,-3.124258,-2.701438,5.573692,-0.263601,0.456121,-0.031958,-157.941808,188.797469,1632.235254,-39.444205,0
0.059375,-27.401029,-139.483226,192.525190,6.535938,1.311068,4.542535,-5.236782,-1.216544,-4.401098,5.157424,-0.238030,0.466246,-0.043161,-128.286989,188.797269,1631.118109,-37.915810,0
0.060417,36.071603,-185.692683,144.612311,5.653758,-1.046317,5.606115,-3.953190,1.088152,-5.454468,3.858810,-0.172276,0.457950,-0.024490,-80.660580,188.797387,1630.410444,-37.158741,0
0.061458,90.039221,-203.270399,69.209849,4.217388,-3.339796,5.709298,-1.777802,3.499444,-5.697876,1.834395,-0.183235,0.446126,-0.054364,-12.212461,188.721650,1629.845416,-36.892119,0
0.062500,154.578049,-171.256003,4.086742,2.984598,-4.859316,5.062419,0.337885,4.925635,-5.038995,-0.197136,-0.135746,0.440835,-0.046895,53.498637,188.797231,1629.521313,-36.941188,0
0.063542,188.095138,-120.842391,-57.614015,1.876218,-5.583572,3.506734,2.341631,5.785760,-3.603727,-2.217993,-0.080951,0.445277,-0.035692,106.802666,188.721605,1628.686205,-36.987924,0
0.064583,191.815478,-40.323165,-118.391478,0.666048,-5.682980,1.570065,4.240898,5.837221,-1.597707,-3.989800,-0.026156,0.440704,-0.069301,148.412155,188.797860,1627.990266,-36.075453,0
0.065625,163.686076,26.617124,-169.628220,-0.227442,-4.972924,-0.370572,5.203591,5.190289,0.349558,-5.057154,-0.029809,0.463437,-0.084238,166.971865,188.798279,1628.184137,-35.771451,0
0.066667,95.687786,80.135528,-197.388637,-0.826872,-3.133880,-2.878717,5.703595,3.425929,2.691313,-5.444960,0.017680,0.466312,-0.043161,163.352665,188.797873,1628.667654,-35.005549,0
0.067708,26.543903,140.141379,-192.070455,-0.759012,-1.234481,-4.410590,5.080456,1.389563,4.386777,-5.039365,-0.015197,0.463045,-0.017021,130.757246,188.646619,1628.570296,-35.337083,0
0.068750,-37.257662,186.737425,-143.517425,0.145788,1.154856,-5.466234,3.770745,-0.874699,5.448540,-3.676710,-0.040768,0.446649,-0.035692,83.379657,188.797438,1628.324765,-35.705748,0
0.069792,-90.635470,203.179536,-67.622538,1.638708,3.427034,-5.565448,1.614014,-3.230855,5.708735,-1.659411,-0.080951,0.440247,-0.065566,14.931538,188.797141,1627.360302,-35.997637,0
0.070833,-155.559943,171.285949,-3.201136,2.860188,4.978505,-4.926506,-0.460628,-4.704831,5.024674,0.318752,-0.121134,0.443317,-0.065566,-49.501530,188.797286,1627.497712,-34.883401,0
0.071875,-187.976809,121.283087,58.376515,4.002498,5.656609,-3.390664,-2.516613,-5.553929,3.581012,2.314704,-0.161317,0.447237,-0.039427,-102.477569,188.646404,1626.891166,-34.231125,0
0.072917,-192.411727,41.597445,119.387879,5.144808,5.812821,-1.382561,-4.419612,-5.590686,1.621156,4.179016,-0.230724,0.453573,-0.050629,-144.923998,188.797396,1627.688241,-33.630951,0
0.073958,-163.579090,-27.130818,169.627463,6.072228,4.974955,0.581888,-5.307678,-4.929051,-0.393257,5.193002,-0.259948,0.466050,-0.039427,-164.241478,188.768528,1627.195763,-34.190852,0
0.075000,-93.902110,-80.323039,198.089584,6.637728,3.199816,3.058284,-5.863652,-3.124258,-2.722421,5.577249,-0.281866,0.449131,0.001650,-159.061498,188.780333,1627.415232,-33.654342,0
0.076042,-25.245954,-139.906057,191.626516,6.524628,1.243613,4.530629,-5.184542,-1.132002,-4.401098,5.079151,-0.259948,0.454880,-0.039427,-125.923199,188.673952,1626.006781,-33.942800,0
0.077083,37.591498,-187.190715,143.085796,5.631138,-1.046317,5.598178,-3.897220,1.139612,-5.433485,3.837462,-0.223418,0.425222,-0.050629,-78.149760,188.728296,1625.950525,-33.542304,0
0.078125,91.037361,-202.243522,68.089584,4.251318,-3.307844,5.681518,-1.744219,3.440632,-5.706270,1.823721,-0.179582,0.444624,-0.017021,-10.278451,188.796586,1625.313954,-32.368721,0
0.079167,156.222711,-171.195599,3.495833,2.973288,-4.869966,5.042576,0.334154,4.929310,-5.018012,-0.207809,-0.106522,0.445408,-0.035692,54.098067,188.796401,1625.609672,-32.085372,0
0.080208,187.562040,-120.612853,-58.734280,1.763118,-5.491265,3.443237,2.386407,5.726948,-3.557563,-2.171741,-0.066339,0.447367,-0.050629,109.313486,188.645122,1624.315602,-31.492515,0
0.081250,192.189780,-39.320450,-119.708712,0.643428,-5.665229,1.530380,4.222241,5.822518,-1.564134,-4.004032,-0.033462,0.426267,-0.061832,150.300925,188.721257,1624.511577,-31.418727,0
0.082292,162.472429,29.154114,-169.542046,-0.238752,-4.894818,-0.386446,5.181203,5.127801,0.320181,-5.010902,-0.029809,0.457885,-0.013287,169.505305,188.796463,1623.045494,-30.113031,0
0.083333,92.613968,81.343619,-197.844129,-0.860802,-3.130330,-2.823157,5.677475,3.330359,2.720690,-5.409381,-0.011544,0.475522,-0.028224,163.284805,188.793117,1621.889925,-30.040181,0
0.084375,25.579790,140.793747,-191.184091,-0.759012,-1.191878,-4.319313,5.028217,1.389563,4.323826,-4.897051,-0.004238,0.459191,-0.069301,131.990036,188.720077,1619.524049,-29.521193,0
0.085417,-37.405115,187.438118,-142.889584,0.134478,1.130004,-5.406705,3.733432,-0.852645,5.410770,-3.676710,-0.044421,0.456251,-0.073035,85.042227,188.721079,1619.138139,-28.855697,0
0.086458,-91.826432,202.285549,-67.425568,1.616088,3.391531,-5.521794,1.606551,-3.172043,5.616408,-1.687874,-0.091910,0.443644,-0.039427,15.983368,188.796508,1617.690288,-27.639976,0
0.087500,-156.421973,170.766470,-2.265530,2.837568,4.918151,-4.902695,-0.479285,-4.634991,4.940740,0.365004,-0.128440,0.442272,-0.035692,-50.870040,188.711628,1616.205123,-27.644226,0
0.088542,-187.715931,119.567599,59.496780,4.036428,5.638857,-3.323198,-2.468105,-5.487765,3.551635,2.336051,-0.168623,0.443644,-0.020755,-102.884729,188.651214,1614.990463,-27.219753,0
0.089583,-192.184877,38.842999,120.261932,5.190048,5.748916,-1.430184,-4.371104,-5.561280,1.583386,4.122090,-0.227071,0.448151,-0.035692,-145.930588,188.723023,1613.921697,-26.074475,0
0.090625,-162.932568,-28.206019,170.021402,6.106158,4.964304,0.498548,-5.244244,-4.918024,-0.359683,5.114729,-0.230724,0.470950,-0.046895,-164.015278,188.797773,1612.884541,-24.796409,0
0.091667,-94.117617,-81.120378,197.843372,6.626418,3.203366,2.974944,-5.811413,-3.164691,-2.747601,5.559460,-0.256295,0.466050,-0.043161,-157.625128,188.722790,1613.172283,-24.465235,0
0.092708,-25.722339,-141.065824,191.023296,6.479388,1.250713,4.451257,-5.106184,-1.194489,-4.354935,5.061362,-0.234377,0.465462,-0.017021,-126.341669,188.647726,1612.841177,-23.292625,0
0.093750,38.487556,-187.637709,142.371781,5.574588,-1.071169,5.554524,-3.859906,1.124909,-5.395714,3.798326,-0.194194,0.456643,-0.046895,-78.636090,188.722844,1612.068171,-22.767189,0
0.094792,91.967446,-202.291845,66.464584,4.160838,-3.282992,5.598178,-1.755413,3.436956,-5.643319,1.773911,-0.139399,0.443709,-0.043161,-9.769501,188.798168,1611.051853,-22.553781,0
0.095833,156.517616,-170.458663,1.698485,3.007218,-4.838014,5.034639,0.364005,4.907256,-5.009619,-0.175789,-0.124787,0.445734,-0.031958,55.511817,188.647894,1610.651233,-21.282563,0
0.096875,187.414587,-119.815514,-59.817614,1.819668,-5.494815,3.498797,2.334168,5.693866,-3.561760,-2.143278,-0.095563,0.454553,-0.054364,107.888426,188.723777,1610.108897,-20.310754,0
0.097917,191.906218,-39.719120,-121.075190,0.620808,-5.661678,1.578003,4.196122,5.767381,-1.555740,-3.982685,-0.033462,0.456251,-0.035692,149.950315,188.722619,1609.557080,-20.153484,0
0.098958,162.449744,29.057466,-170.046781,-0.306612,-4.852215,-0.390415,5.128964,5.098395,0.311788,-4.939746,-0.029809,0.464744,-0.069301,166.621255,188.798317,1608.637804,-19.859822,0
0.100000,91.842678,82.418819,-198.065720,-0.849492,-3.109028,-2.846968,5.658819,3.345062,2.674526,-5.395150,-0.051727,0.450699,-0.054364,162.380005,188.572318,1608.384832,-18.661934,0
0.101042,23.560825,141.530683,-190.470076,-0.702462,-1.174127,-4.311376,5.005829,1.444699,4.298646,-4.914841,-0.044421,0.437634,-0.013287,128.936336,188.798473,1608.291608,-16.778180,0
0.102083,-39.390052,188.368347,-141.436932,0.224958,1.144205,-5.374956,3.729700,-0.852645,5.414966,-3.673152,-0.073645,0.444558,-0.039427,82.214727,188.723054,1608.415926,-15.648996,0
0.103125,-92.937997,201.766070,-66.157576,1.695258,3.359579,-5.490045,1.602819,-3.131610,5.587031,-1.677200,-0.102869,0.447498,-0.024490,13.359448,188.668642,1607.631493,-14.650955,0
0.104167,-158.021265,170.597338,-1.514583,2.814948,4.932352,-4.902695,-0.445703,-4.649694,4.949133,0.332983,-0.117481,0.445734,-0.084238,-51.673050,188.591227,1608.316044,-13.698098,0
0.105208,-187.341629,119.507195,60.481629,3.968568,5.589153,-3.354947,-2.516613,-5.484090,3.530651,2.325378,-0.154011,0.451417,-0.031958,-103.687739,188.797994,1608.068382,-13.477460,0
0.106250,-192.411727,38.347681,121.702273,5.167428,5.734715,-1.386529,-4.382298,-5.524523,1.516239,4.146995,-0.216112,0.445146,-0.028224,-146.439538,188.721596,1608.019352,-14.080211,0
0.107292,-161.752948,-30.477229,169.984470,6.083538,4.935902,0.538234,-5.277827,-4.855536,-0.334503,5.096940,-0.252642,0.446387,-0.013287,-164.173618,188.796959,1606.887233,-13.085235,0
0.108333,-90.930375,-82.328469,198.705114,6.649038,3.224668,3.018599,-5.792756,-3.087501,-2.768585,5.541671,-0.208806,0.455729,-0.028224,-158.710888,188.570816,1606.137188,-12.747127,0
0.109375,-24.225129,-141.766516,190.013826,6.502008,1.247163,4.463163,-5.106184,-1.165083,-4.312968,5.029341,-0.205153,0.454684,-0.035692,-124.837439,188.721693,1605.082566,-12.075669,0
0.110417,38.725748,-188.797476,141.411553,5.574588,-1.081819,5.538649,-3.852443,1.146964,-5.387321,3.787653,-0.208806,0.451548,-0.028224,-76.634220,188.721650,1605.131041,-11.943093,0
