1-Time,2-VGERA,3-VGERB,4-VGERC,5-VN,6-IGERAN,7-IGERBN,8-IGERCN,9-IGERAT,10-IGERBT,11-IGERCT,12-IN,13-IFD,14-IFAULT,15-VFAULT,16-Speed (rad/s),17-Active Power,18-Reactive Power,19-FAULT 
0.000000,71.932426,91.081145,-201.481854,-3.491375,-2.728035,-3.466516,5.852029,2.839179,3.462293,-5.863169,-0.163272,0.485490,-0.003573,-44.756630,188.571364,1643.161354,-49.451528,0
0.001042,9.150041,152.143452,-171.151281,-2.928410,-0.603410,-4.913715,5.044009,0.685767,4.933286,-5.097793,-0.126811,0.483009,-0.014723,-48.798369,188.571370,1643.271897,-48.986353,0
0.002083,-53.869643,189.128489,-123.322301,-2.061443,1.612952,-5.764047,3.578747,-1.554998,5.593291,-3.502307,-0.101287,0.467162,-0.055607,-42.876490,188.646891,1643.181899,-48.348591,0
0.003125,-108.708180,190.843261,-45.600209,-0.496401,3.763263,-5.555552,1.212677,-3.810953,5.442309,-1.217602,-0.057533,0.455243,-0.029590,-22.465147,188.722326,1643.338146,-48.587704,0
0.004167,-162.857422,161.633421,22.898764,0.843456,5.293433,-4.852393,-0.894362,-5.307328,4.678774,0.876711,0.015390,0.457379,-0.022156,-3.641229,188.571498,1643.266163,-48.219678,0
0.005208,-187.988456,93.700282,77.435467,1.856793,5.763125,-3.000469,-3.036196,-5.831439,2.785032,3.176647,0.022683,0.458481,0.007577,7.459479,188.571230,1643.216892,-47.812848,0
0.006250,-188.372654,22.854381,136.018676,3.016501,5.755786,-1.103576,-4.717961,-5.789662,0.878350,4.642666,0.073729,0.450282,-0.037023,24.076767,188.646581,1643.553342,-47.094111,0
0.007292,-142.800055,-41.238139,178.841167,3.894726,4.698978,1.014077,-5.622635,-4.714855,-1.269903,5.632705,0.088314,0.471090,-0.066757,39.005305,188.715577,1643.747596,-47.036814,0
0.008333,-71.011629,-91.013491,201.807827,4.300061,2.794522,3.348400,-5.916460,-2.766529,-3.569138,5.716478,0.084667,0.492242,-0.029590,46.492091,188.571044,1643.577512,-47.528025,0
0.009375,-8.263144,-152.087544,171.610922,3.759615,0.724939,4.807864,-5.112306,-0.673883,-4.996993,5.008219,0.055498,0.495549,-0.025873,49.543097,188.571236,1644.392175,-47.178277,0
0.010417,54.700040,-189.013856,123.356634,2.847611,-1.414364,5.633666,-3.712768,1.532700,-5.656999,3.382271,0.022683,0.475155,-0.051890,41.786111,188.646435,1643.681935,-46.266475,0
0.011458,109.154380,-191.022252,45.452267,1.327606,-3.542658,5.412907,-1.366029,3.796252,-5.540527,1.097566,0.000805,0.457379,-0.033307,24.797299,188.721880,1644.093480,-46.171552,0
0.012500,163.111524,-161.424827,-22.803673,-0.012251,-5.124201,4.722013,0.729411,5.231860,-4.707971,-0.973900,-0.050241,0.459514,-0.040740,3.215091,188.571067,1643.134026,-45.725734,0
0.013542,188.039159,-93.609139,-77.073039,-1.070625,-5.538851,2.919147,2.882844,5.786354,-2.883250,-3.224335,-0.079410,0.460203,-0.014723,-6.883626,188.571098,1642.727166,-45.207675,0
0.014583,188.468556,-22.551828,-135.619793,-2.241592,-5.524173,1.022253,4.576207,5.725588,-0.980881,-4.709393,-0.119518,0.447939,-0.029590,-23.669788,188.646386,1641.275919,-44.248126,0
0.015625,143.596553,41.752103,-177.980521,-3.074780,-4.507729,-1.070871,5.484747,4.722940,1.102665,-5.703240,-0.134103,0.455725,-0.044457,-38.418193,188.721822,1640.355137,-43.703397,0
0.016667,71.525629,91.456985,-201.165910,-3.480115,-2.731704,-3.425635,5.728313,2.854371,3.345821,-5.821283,-0.155980,0.482389,-0.040740,-45.544713,188.570980,1639.059715,-42.205921,0
0.017708,8.890143,151.814592,-171.187736,-2.939669,-0.647444,-4.844217,5.001481,0.697161,4.847010,-5.067330,-0.141395,0.487419,-0.037023,-48.449361,188.570991,1637.802695,-41.663303,0
0.018750,-54.152141,189.234194,-122.860538,-2.027666,1.561579,-5.690460,3.543951,-1.528412,5.537212,-3.494692,-0.104934,0.470745,-0.018440,-43.383115,188.646440,1636.972784,-41.075848,0
0.019792,-108.866379,190.655341,-45.320721,-0.507660,3.675195,-5.486054,1.297732,-3.731197,5.347407,-1.217602,-0.072118,0.455449,-0.022156,-23.771113,188.721857,1635.235989,-40.444173,0
0.020833,-163.343319,161.504225,23.020281,0.809678,5.242060,-4.868746,-0.813173,-5.216179,4.631322,0.834824,0.000805,0.455725,-0.011006,-3.562420,188.571017,1633.924212,-39.627292,0
0.021875,-187.310461,94.158338,77.824320,1.890571,5.667719,-3.000469,-2.978204,-5.717502,2.780719,3.070028,0.029975,0.456827,-0.014723,8.168754,188.630532,1631.911287,-38.493348,0
0.022917,-188.474353,23.324182,136.249558,3.027760,5.719092,-1.111752,-4.679300,-5.671927,0.930115,4.627435,0.051852,0.464613,-0.029590,24.560875,188.703428,1630.717098,-38.329543,0
0.023958,-143.670149,-41.578744,177.735365,3.894726,4.684300,0.948667,-5.556910,-4.665482,-1.196570,5.556548,0.055498,0.466473,-0.022156,38.442389,188.791381,1629.131547,-37.761889,0
0.025000,-71.836524,-91.377587,201.795675,4.300061,2.860572,3.274814,-5.854602,-2.789317,-3.452667,5.678399,0.099252,0.474190,0.000144,47.313949,188.565914,1628.249169,-36.603425,0
0.026042,-8.941139,-151.594254,171.416496,3.748356,0.805668,4.701572,-5.065912,-0.696671,-4.897777,4.905407,0.066437,0.478944,-0.025873,49.588130,188.490429,1626.035998,-36.570919,0
0.027083,54.361042,-189.413186,123.380937,2.802574,-1.392347,5.515111,-3.654776,1.525104,-5.583665,3.374655,0.048206,0.474466,-0.051890,42.799360,188.715825,1625.217307,-36.505580,0
0.028125,109.380379,-190.341042,46.132761,1.305087,-3.447251,5.343409,-1.377628,3.697506,-5.467193,1.108989,0.000805,0.457447,-0.022156,24.313191,188.714867,1623.550141,-35.805139,0
0.029167,163.936418,-161.319122,-22.475578,-0.023510,-5.003108,4.730189,0.663687,5.209072,-4.699344,-0.935822,-0.042949,0.459514,-0.044457,3.226349,188.553953,1623.409445,-35.240493,0
0.030208,187.293364,-94.642700,-77.668471,-1.070625,-5.421428,2.890530,2.801655,5.721790,-2.883250,-3.121523,-0.083057,0.461581,-0.029590,-6.613426,188.628632,1622.137767,-34.259534,0
0.031250,188.660655,-23.597134,-135.972192,-2.241592,-5.494817,1.075399,4.487286,5.710396,-1.041274,-4.663699,-0.155980,0.467645,-0.014723,-23.332038,188.707355,1621.916788,-33.579006,0
0.032292,144.003350,41.376262,-177.652425,-3.086040,-4.511399,-0.976844,5.403558,4.722940,1.111293,-5.634699,-0.170565,0.486041,-0.040740,-38.722168,188.711793,1621.136471,-33.680709,0
0.033333,72.655621,91.644905,-201.153758,-3.513893,-2.717026,-3.376577,5.716715,2.816392,3.367390,-5.760358,-0.145042,0.478875,-0.029590,-44.722855,188.563779,1620.598114,-34.650292,0
0.034375,9.839336,152.202177,-170.786731,-2.973447,-0.651113,-4.770630,4.978284,0.738937,4.790931,-5.006405,-0.112226,0.479151,-0.037023,-48.606977,188.569199,1619.480798,-34.339351,0
0.035417,-54.027842,188.964059,-123.431666,-2.050184,1.513876,-5.633226,3.516889,-1.471444,5.515643,-3.468037,-0.079410,0.475499,-0.051890,-42.853973,188.722311,1618.840394,-34.132452,0
0.036458,-109.533075,190.115070,-46.098428,-0.518919,3.667856,-5.486054,1.266803,-3.704612,5.351720,-1.213794,-0.050241,0.461306,0.000144,-22.453889,188.647016,1618.706128,-33.967053,0
0.037500,-163.603217,161.480735,22.777248,0.787160,5.205365,-4.791071,-0.793843,-5.174402,4.618381,0.823401,-0.035656,0.463235,-0.022156,-3.641229,188.571645,1618.200801,-33.731951,0
0.038542,-187.446060,94.968743,78.237477,1.879312,5.649372,-3.004557,-2.916346,-5.728896,2.759150,3.031949,0.019036,0.463373,-0.033307,7.617096,188.496156,1618.266995,-33.663924,0
0.039583,-188.338754,24.181568,136.529046,3.027760,5.642033,-1.136281,-4.636772,-5.660534,0.947370,4.547470,0.051852,0.472468,-0.022156,24.144317,188.722384,1617.537612,-33.121247,0
0.040625,-143.907448,-40.815318,178.403707,3.872208,4.654945,0.915962,-5.529847,-4.676876,-1.209511,5.514662,0.077375,0.478186,-0.018440,39.016563,188.571692,1617.438711,-33.293863,0
0.041667,-72.717918,-91.553762,201.285305,4.300061,2.845894,3.233933,-5.800476,-2.774125,-3.444039,5.655552,0.099252,0.483423,-0.007290,46.447058,188.571665,1617.045510,-33.592583,0
0.042708,-9.754734,-152.228484,171.270676,3.737096,0.813006,4.652515,-5.069778,-0.742246,-4.889149,4.932062,0.077375,0.481769,-0.022156,49.171572,188.496239,1617.465449,-33.016919,0
0.043750,54.417542,-188.825935,124.097886,2.836352,-1.348313,5.515111,-3.654776,1.490923,-5.540527,3.355616,0.073729,0.477497,-0.048173,41.831145,188.722299,1616.654577,-32.941625,0
0.044792,109.900175,-190.258827,46.776799,1.338865,-3.425235,5.359762,-1.416289,3.670921,-5.432683,1.173722,-0.002841,0.462133,-0.051890,25.090016,188.647072,1616.435411,-32.128233,0
0.045833,163.981618,-161.366102,-22.208241,-0.012251,-4.973752,4.717925,0.644357,5.159700,-4.669148,-0.912975,-0.079410,0.467645,-0.007290,3.575357,188.571782,1615.623757,-31.893086,0
0.046875,187.474163,-95.077265,-77.972263,-1.081884,-5.439775,2.935499,2.743663,5.706598,-2.939329,-3.094868,-0.090349,0.463580,-0.014723,-6.883626,188.571549,1615.865187,-31.077001,0
0.047917,188.344257,-23.808544,-136.348893,-2.230333,-5.491148,1.079487,4.498885,5.661023,-1.049902,-4.652276,-0.112226,0.474810,-0.037023,-23.838663,188.722434,1615.244712,-31.028967,0
0.048958,144.251948,41.540692,-177.737487,-3.108558,-4.518738,-0.948227,5.361031,4.665972,1.029331,-5.596620,-0.174211,0.473432,-0.037023,-38.485743,188.646922,1614.227467,-30.374165,0
0.050000,72.700821,92.009001,-200.801360,-3.558930,-2.709687,-3.327520,5.685786,2.858169,3.298370,-5.767973,-0.145042,0.479633,-0.051890,-45.488421,188.571599,1614.039694,-29.158725,0
0.051042,9.590738,152.072982,-170.896096,-2.905891,-0.702486,-4.697044,4.966686,0.742735,4.726225,-5.036868,-0.166919,0.481356,-0.014723,-48.167903,188.496295,1613.713193,-28.490215,0
0.052083,-54.332939,189.022784,-123.370908,-2.038925,1.477181,-5.600521,3.605809,-1.433465,5.502702,-3.502307,-0.079410,0.478531,-0.033307,-43.326823,188.720108,1613.728430,-27.603672,0
0.053125,-109.566974,189.974130,-45.952608,-0.507660,3.609145,-5.445172,1.317063,-3.586877,5.295642,-1.267104,-0.053887,0.464131,-0.007290,-23.996280,188.646502,1612.340117,-26.023686,0
0.054167,-163.976115,161.304560,22.898764,0.798419,5.135645,-4.811512,-0.751315,-5.087050,4.648577,0.720589,-0.050241,0.463097,-0.025873,-3.888912,188.571337,1611.701668,-24.001154,0
0.055208,-186.745464,94.980488,78.614179,1.879312,5.550296,-3.012734,-2.877685,-5.649140,2.823856,2.971024,0.037267,0.465440,-0.025873,8.258821,188.571156,1610.679690,-22.570375,0
0.056250,-188.270954,23.347672,136.905748,3.039020,5.675058,-1.160810,-4.590379,-5.671927,1.012076,4.509392,0.040913,0.469781,-0.011006,24.831074,188.722040,1610.636215,-21.119675,0
0.057292,-143.726649,-42.095524,177.577393,3.860949,4.618250,0.903697,-5.471856,-4.673078,-1.114608,5.484199,0.073729,0.472054,-0.037023,38.498680,188.646654,1609.786679,-19.544339,0
0.058333,-71.305427,-92.105777,201.455428,4.345098,2.838555,3.225757,-5.858468,-2.850083,-3.405215,5.647937,0.059144,0.470056,-0.025873,47.268915,188.571301,1609.757263,-17.796605,0
0.059375,-8.398743,-151.746939,171.173462,3.759615,0.853371,4.595281,-5.065912,-0.784023,-4.776992,4.928254,0.091960,0.476119,-0.018440,49.362964,188.646533,1608.419300,-16.200714,0
0.060417,55.152037,-189.307481,123.441696,2.847611,-1.315288,5.494670,-3.712768,1.414965,-5.544841,3.431773,0.026329,0.473363,-0.040740,42.788102,188.721998,1608.874767,-14.204377,0
0.061458,109.753276,-189.941711,45.841120,1.327606,-3.403218,5.306616,-1.458816,3.598760,-5.428370,1.192762,-0.013779,0.462959,-0.040740,24.459550,188.571274,1608.128934,-13.054715,0
0.062500,163.981618,-161.048987,-23.022403,0.021527,-4.951735,4.705660,0.605695,5.159700,-4.712285,-0.874896,-0.042949,0.463786,-0.044457,3.338933,188.571237,1608.459842,-11.966464,0
0.063542,186.739667,-94.125919,-78.543391,-1.093144,-5.399411,2.910970,2.774592,5.691406,-2.904819,-3.041558,-0.086703,0.467438,-0.018440,-6.748526,188.646656,1607.436116,-11.309616,0
0.064583,188.332957,-22.375652,-136.130163,-2.207814,-5.447114,1.075399,4.464090,5.691406,-1.097353,-4.625621,-0.093995,0.485765,-0.048173,-23.467138,188.722061,1607.476388,-10.003647,0
0.065625,143.359254,42.914859,-177.372937,-3.052262,-4.533415,-0.935962,5.368763,4.692557,1.007763,-5.581389,-0.170565,0.470401,-0.044457,-38.722168,188.571161,1607.204542,-8.866485,0
0.066667,70.938033,92.431821,-201.105152,-3.491375,-2.709687,-3.335696,5.678053,2.888552,3.289742,-5.737511,-0.152334,0.474604,-0.048173,-44.700339,188.571333,1606.818072,-7.839007,0
0.067708,7.986149,152.190432,-170.628759,-2.905891,-0.698816,-4.721573,4.951221,0.799704,4.726225,-5.002597,-0.115872,0.475224,-0.040740,-48.471877,188.646583,1606.383644,-6.715610,0
0.068750,-55.316033,188.975804,-122.775476,-2.038925,1.477181,-5.588257,3.532353,-1.395485,5.463878,-3.525154,-0.101287,0.473226,-0.063040,-42.797682,188.721976,1605.922561,-5.493272,0
0.069792,-109.646074,190.079835,-44.676682,-0.507660,3.620153,-5.412467,1.309330,-3.628654,5.317210,-1.267104,-0.093995,0.455863,-0.070474,-22.318789,188.571379,1606.428227,-5.348073,0
0.070833,-163.365919,161.046170,24.223296,0.843456,5.172340,-4.778807,-0.759047,-5.128827,4.618381,0.781515,-0.035656,0.455587,-0.029590,-3.337254,188.571236,1606.437015,-6.075872,0
0.071875,-186.982763,93.547597,79.003032,1.901830,5.609007,-3.029086,-2.908614,-5.645342,2.797974,3.024334,0.051852,0.458894,-0.018440,7.954846,188.646581,1606.409872,-6.332991,0
0.072917,-188.056256,21.903036,136.553350,3.050279,5.664050,-1.181250,-4.594245,-5.664331,0.951684,4.505584,0.026329,0.478531,-0.037023,24.346966,188.722061,1605.901122,-6.584046,0
0.073958,-142.833955,-42.764990,177.929792,3.905986,4.665953,0.915962,-5.506651,-4.669280,-1.127549,5.453737,0.091960,0.459308,-0.033307,38.949013,188.571143,1605.470922,-6.196159,0
0.075000,-70.548332,-92.293698,201.370366,4.288802,2.860572,3.246197,-5.812075,-2.834892,-3.418157,5.606050,0.059144,0.449179,0.011294,46.458316,188.571389,1604.853210,-6.223470,0
0.076042,-7.449549,-152.240229,171.064097,3.737096,0.860710,4.603457,-5.015653,-0.734650,-4.785619,4.897792,0.059144,0.449042,-0.029590,49.261639,188.646629,1604.642273,-6.558440,0
0.077083,55.762233,-188.884661,123.004236,2.813834,-1.315288,5.461965,-3.658642,1.449146,-5.531900,3.359424,0.037267,0.471916,-0.018440,41.786111,188.722011,1603.887168,-7.247283,0
0.078125,110.103574,-190.282317,44.820380,1.271309,-3.384870,5.261646,-1.400824,3.594963,-5.393859,1.207993,0.011744,0.455243,-0.025873,24.763524,188.571245,1603.625436,-6.697763,0
0.079167,163.766919,-160.825831,-23.933778,-0.012251,-4.907702,4.672955,0.605695,5.110327,-4.720913,-0.886320,-0.072118,0.460066,-0.003573,2.956150,188.571404,1603.127963,-6.189544,0
0.080208,186.976966,-93.479944,-78.810728,-1.081884,-5.333361,2.902794,2.732065,5.638236,-2.913447,-3.049174,-0.104934,0.459859,-0.044457,-7.378992,188.646630,1602.624852,-5.855372,0
0.081250,188.061759,-21.764912,-136.421803,-2.252852,-5.403080,1.075399,4.371303,5.623044,-1.093039,-4.564695,-0.145042,0.454140,-0.018440,-23.985021,188.722273,1601.263300,-5.394158,0
0.082292,143.675652,43.102779,-177.275724,-3.041003,-4.449018,-0.948227,5.279842,4.631791,0.981880,-5.493809,-0.159626,0.472261,-0.037023,-38.350643,188.571214,1599.748762,-5.263318,0
0.083333,71.107532,92.666721,-200.667692,-3.525153,-2.702348,-3.307079,5.631660,2.835381,3.246605,-5.695624,-0.170565,0.460548,-0.051890,-45.488421,188.570977,1598.613591,-5.406427,0
0.084375,8.302547,151.932042,-170.568001,-2.939669,-0.691477,-4.664339,4.935757,0.811098,4.657205,-5.014021,-0.119518,0.454209,-0.037023,-48.167903,188.646440,1597.983720,-4.928257,0
0.085417,-55.304733,189.069764,-122.508139,-2.016406,1.480851,-5.547376,3.536219,-1.384092,5.394858,-3.509923,-0.101287,0.473501,-0.033307,-43.270531,188.721860,1597.007422,-4.720703,0
0.086458,-109.725173,189.833190,-44.700985,-0.530179,3.513738,-5.347057,1.297732,-3.541302,5.261131,-1.278528,-0.057533,0.458894,-0.022156,-23.782371,188.571013,1595.682785,-3.932930,0
0.087500,-163.908315,160.963955,23.992415,0.843456,5.054917,-4.778807,-0.693323,-5.049071,4.566616,0.758668,0.000805,0.457999,0.003860,-3.494870,188.571091,1594.471448,-3.560584,0
0.088542,-186.304767,94.393238,79.404038,1.901830,5.509932,-3.012734,-2.835157,-5.576980,2.789346,2.940561,0.026329,0.461237,-0.044457,8.641604,188.721860,1593.155957,-2.867480,0
0.089583,-187.886757,22.490286,137.039416,3.016501,5.590660,-1.177162,-4.551717,-5.607363,0.968939,4.433235,0.059144,0.467989,-0.040740,24.932399,188.721847,1592.023491,-2.409793,0
0.090625,-143.794448,-42.823715,177.176388,3.849689,4.603572,0.858728,-5.359738,-4.604716,-1.105981,5.366156,0.059144,0.482114,-0.033307,38.397356,188.571075,1590.434588,-2.598476,0
0.091667,-71.486226,-92.540343,201.261001,4.322580,2.867911,3.152170,-5.742484,-2.831094,-3.297371,5.594627,0.091960,0.482389,-0.025873,47.212624,188.495651,1589.653500,-1.707742,0
0.092708,-8.466543,-151.782174,170.991187,3.725837,0.890065,4.538047,-5.038849,-0.795416,-4.707971,4.844482,0.037267,0.480391,-0.055607,49.374222,188.721737,1588.276759,-1.244207,0
0.093750,55.434535,-189.295736,123.259421,2.825093,-1.256576,5.433348,-3.654776,1.392177,-5.458566,3.382271,0.044560,0.474879,-0.048173,42.709294,188.721771,1587.563359,-0.420160,0
0.094792,110.431272,-189.742046,45.804665,1.305087,-3.333498,5.298440,-1.462682,3.556983,-5.333467,1.166107,-0.032010,0.462270,-0.044457,24.335708,188.570948,1586.412397,-0.914832,0
0.095833,164.524014,-161.013752,-23.204678,-0.000992,-4.837982,4.689308,0.594097,5.041965,-4.682089,-0.817779,-0.053887,0.464269,-0.055607,3.136283,188.495669,1585.511119,-0.164552,0
0.096875,186.491069,-94.865855,-79.163126,-1.126922,-5.318683,2.976380,2.712734,5.585065,-2.943643,-2.999672,-0.090349,0.466680,-0.029590,-7.007468,188.721862,1584.965085,0.379017,0
0.097917,188.219958,-22.915923,-136.847112,-2.264111,-5.447114,1.140809,4.367436,5.668619,-1.088726,-4.557080,-0.126811,0.472261,-0.070474,-23.692305,188.721873,1585.635416,0.236379,0
0.098958,144.184149,42.621233,-177.239269,-3.086040,-4.493051,-0.903257,5.283708,4.669770,0.999135,-5.516656,-0.145042,0.487626,-0.040740,-38.722168,188.571183,1586.368002,-0.030925,0
0.100000,72.316624,92.831151,-200.679843,-3.513893,-2.750052,-3.278462,5.623927,2.831583,3.237977,-5.672777,-0.163272,0.482803,-0.025873,-44.689080,188.495598,1586.278068,-0.341676,0
0.101042,9.319540,152.566273,-170.288512,-2.928410,-0.764867,-4.643898,4.912560,0.833885,4.678774,-4.998789,-0.134103,0.484663,-0.040740,-48.325519,188.724741,1586.500156,-0.492289,0
0.102083,-55.090034,188.858354,-123.249391,-2.005147,1.418470,-5.510582,3.567148,-1.376496,5.360348,-3.517539,-0.093995,0.474810,-0.014723,-42.808940,188.651029,1586.198131,-0.566317,0
0.103125,-110.651767,189.457349,-45.527299,-0.507660,3.513738,-5.404291,1.324795,-3.552696,5.278386,-1.301375,-0.057533,0.465991,-0.048173,-22.408856,188.570888,1586.708530,-0.356239,0
0.104167,-164.043914,161.093150,23.712926,0.820937,5.087942,-4.795159,-0.704922,-5.030081,4.627008,0.709166,-0.010133,0.463097,-0.033307,-3.562420,188.570685,1587.105232,0.630729,0
0.105208,-186.734165,94.992233,79.610616,1.913090,5.546626,-2.992293,-2.819693,-5.592171,2.806601,2.940561,0.029975,0.465371,-0.063040,7.988621,188.721476,1587.693039,0.696884,0
0.106250,-187.898057,23.476867,137.282450,3.016501,5.634694,-1.213955,-4.489859,-5.649140,1.042273,4.437043,0.081021,0.474121,-0.022156,24.482066,188.645975,1588.475832,1.378049,0
0.107292,-143.704049,-42.013309,178.002702,3.838430,4.643936,0.858728,-5.433194,-4.646493,-1.105981,5.442313,0.066437,0.479978,-0.063040,39.027822,188.570607,1589.903154,1.241137,0
0.108333,-71.949523,-92.704773,200.762783,4.266283,2.849564,3.193051,-5.788878,-2.846285,-3.310313,5.613666,0.110191,0.482734,-0.037023,46.368249,188.570636,1590.235551,1.222051,0
0.109375,-8.658641,-152.651304,170.711699,3.714578,0.864379,4.554400,-5.042716,-0.787821,-4.759737,4.859713,0.077375,0.484112,-0.033307,48.923889,188.721686,1591.074624,1.034073,0
0.110417,55.649234,-188.767210,123.794094,2.836352,-1.230890,5.376114,-3.712768,1.380784,-5.467193,3.386079,0.022683,0.478462,-0.055607,41.763595,188.646330,1591.114751,1.066244,0
0.111463,111.595164,-189.918221,45.294295,1.293828,-3.362854,5.290263,-1.427887,3.553186,-5.355036,1.173722,-0.010133,0.461926,-0.014723,24.819816,188.577333,1591.628667,1.737113,0
