1-Time,2-VGERA,3-VGERB,4-VGERC,5-VN,6-IGERAN,7-IGERBN,8-IGERCN,9-IGERAT,10-IGERBT,11-IGERCT,12-IN,13-IFD,14-IFAULT,15-VFAULT,16-Speed (rad/s),17-Active Power,18-Reactive Power,19-FAULT 
0.000000,100.114440,102.144944,-175.562338,-3.142336,-4.830643,1.133730,3.756588,4.815188,-1.049099,-3.876121,-0.050241,0.564105,-0.044457,61.533213,188.345133,986.846988,990.258838,0
0.001042,17.568485,146.611553,-175.513731,-3.097299,-4.023359,-0.738958,4.630333,4.048197,0.833707,-4.751925,-0.093995,0.560384,-0.040740,-3.539904,188.420636,985.375824,989.970062,0
0.002083,-60.344500,166.460620,-145.219614,-2.534334,-2.801424,-2.528415,4.931891,2.743943,2.579823,-4.991819,-0.090349,0.576162,-0.033307,-61.351401,188.495946,984.894460,990.062190,0
0.003125,-119.861206,179.250936,-66.683359,-1.014329,-0.889629,-4.213835,4.529814,0.832026,4.246570,-4.557725,-0.086703,0.578643,0.011294,-101.892628,188.269707,983.480187,989.678268,0
0.004167,-156.495564,165.039474,11.306069,0.438121,0.813006,-4.979556,3.540085,-0.846460,4.934434,-3.502953,-0.061180,0.574577,-0.029590,-126.075509,188.194298,982.313717,990.173687,0
0.005209,-174.903143,115.722176,82.113860,1.777978,2.746819,-5.037818,1.641817,-2.821367,4.991756,-1.557146,-0.021072,0.569203,-0.014723,-141.319280,188.420640,981.611382,991.764657,0
0.006250,-185.174775,37.112824,133.539735,2.802574,4.159566,-4.534273,-0.136601,-4.092274,4.440583,0.167807,0.000805,0.570857,0.011294,-141.217956,188.420477,981.042587,993.205432,0
0.007292,-150.698703,-31.266625,172.570905,3.556947,4.790715,-3.285814,-1.934350,-4.807390,3.135406,2.041265,0.055498,0.577885,-0.029590,-109.041664,188.269792,980.516115,994.487185,0
0.008333,-101.171130,-101.771921,175.949069,3.624503,4.889791,-1.279957,-3.770760,-4.818506,1.133546,3.728139,0.070083,0.574026,-0.003573,-63.591807,188.194244,979.745327,996.044883,0
0.009375,-19.212772,-146.731819,175.147059,3.624503,4.100854,0.596893,-4.694764,-4.044105,-0.784536,4.619174,0.099252,0.587531,-0.040740,2.821050,188.420524,978.323070,996.580041,0
0.010417,59.355609,-166.839277,145.752165,3.084057,2.776174,2.473743,-5.073645,-2.802841,-2.535062,4.855260,0.106545,0.588840,-0.037023,60.328572,188.269695,977.583981,998.375581,0
0.011458,120.386506,-178.795697,67.993618,1.552792,0.875388,4.125870,-4.690898,-0.879807,-4.272359,4.497323,0.066437,0.589115,-0.014723,105.283062,188.269675,976.391414,1000.483114,0
0.012500,156.986964,-165.183230,-10.226693,0.089083,-0.845595,4.958176,-3.643178,0.846847,-5.004316,3.457782,0.091960,0.585670,-0.037023,127.653353,188.194314,976.356476,1001.980886,0
0.013542,174.773047,-116.370968,-81.800039,-1.273292,-2.709687,5.003953,-1.768106,2.806933,-5.004316,1.511975,0.029975,0.571064,-0.029590,141.140826,188.420524,975.596733,1003.028846,0
0.014583,185.123778,-37.702891,-133.833497,-2.297889,-4.199493,4.546184,-0.001287,4.163061,-4.567788,-0.174899,0.022683,0.578643,0.000144,143.369974,188.269733,975.886281,1005.908982,0
0.015625,150.625106,31.064143,-172.852515,-3.029743,-4.826973,3.260272,1.819659,4.826303,-3.218516,-2.090244,-0.035656,0.568652,-0.025873,109.324801,188.269787,975.049056,1007.421343,0
0.016667,101.007134,101.921789,-175.696006,-3.086040,-4.988430,1.266899,3.741124,4.911524,-1.176972,-3.822812,-0.042949,0.584844,-0.040740,63.435869,188.194414,974.529541,1009.546872,0
0.017708,18.811477,146.928668,-174.918299,-3.153596,-4.203163,-0.651566,4.641931,4.203818,0.727882,-4.786196,-0.108580,0.579538,-0.025873,-1.220689,188.345111,974.294895,1012.056385,0
0.018750,-60.197601,166.554580,-145.316827,-2.590631,-2.944534,-2.490962,5.009213,2.892154,2.509273,-5.045129,-0.093995,0.585464,-0.029590,-60.720934,188.194430,973.546727,1014.356018,0
0.019792,-120.618301,178.698920,-67.351701,-1.059366,-1.007052,-4.188866,4.614868,0.920952,4.224523,-4.645306,-0.057533,0.586979,-0.044457,-103.603893,188.269814,973.029306,1016.128702,0
0.020833,-156.721563,165.074709,11.160249,0.426862,0.776312,-4.979556,3.632872,-0.739007,4.974119,-3.590533,-0.072118,0.584361,-0.044457,-126.593392,188.194495,972.355823,1018.048677,0
0.021875,-174.609345,115.487276,82.393349,1.777978,2.699116,-5.050302,1.668880,-2.736146,5.022622,-1.652342,-0.006487,0.570306,0.000144,-140.655039,188.345252,970.970439,1019.495287,0
0.022917,-185.016576,36.208458,133.989347,2.813834,4.185252,-4.559242,-0.090207,-4.103390,4.511133,0.087842,0.011744,0.553563,-0.040740,-141.825905,188.194374,970.322646,1021.229798,0
0.023958,-150.212806,-32.499851,172.741028,3.556947,4.790715,-3.335752,-1.895689,-4.811095,3.205956,1.961300,0.062790,0.566792,-0.025873,-108.917822,188.271558,968.991886,1022.734304,0
0.025000,-99.781239,-102.781992,175.681732,3.601985,4.853096,-1.325733,-3.759162,-4.862969,1.177639,3.724331,0.048206,0.583948,-0.033307,-64.672606,188.194334,968.372131,1023.957824,0
0.026042,-17.167485,-147.107660,175.244272,3.635763,4.100854,0.567762,-4.698630,-4.151558,-0.705167,4.661060,0.084667,0.556112,-0.018440,3.440258,188.269639,967.749318,1026.416651,0
0.027083,61.479995,-166.392966,145.326857,3.084057,2.867911,2.378028,-5.027251,-2.832483,-2.504196,4.855260,0.102898,0.553770,-0.003573,60.981555,188.194309,966.731605,1027.258446,0
0.028125,120.827203,-179.112812,66.778451,1.541533,0.959785,4.067609,-4.671567,-0.920565,-4.223856,4.516362,0.091960,0.581536,-0.022156,104.472463,188.269682,965.674673,1028.109180,0
0.029167,156.388068,-165.147995,-12.073747,0.066564,-0.794223,4.920722,-3.735965,0.757920,-4.964632,3.518707,0.091960,0.576300,0.000144,126.662621,188.194360,963.922996,1029.333288,0
0.030209,174.490548,-115.208212,-82.820780,-1.329589,-2.691340,4.974822,-1.795169,2.721712,-5.008726,1.534822,0.011744,0.562038,-0.022156,140.577910,188.194394,962.322939,1030.013442,0
0.031250,184.829980,-35.318654,-133.651222,-2.275370,-4.082070,4.492085,-0.059278,4.066724,-4.470781,-0.167284,-0.021072,0.549291,-0.037023,142.829575,188.194258,960.176253,1028.966289,0
0.032292,150.150509,33.213480,-172.257083,-3.029743,-4.724228,3.306049,1.777132,4.785545,-3.209697,-2.017895,-0.068472,0.526623,-0.014723,109.268509,188.269657,958.387648,1029.229264,0
0.033333,99.379945,102.790920,-175.683855,-3.086040,-4.830643,1.287707,3.659935,4.855945,-1.225475,-3.754271,-0.079410,0.535167,-0.033307,61.488179,188.194273,956.406336,1029.474079,0
0.034375,17.026089,146.811218,-174.833238,-3.097299,-4.148121,-0.580820,4.556877,4.155650,0.661741,-4.706231,-0.079410,0.578643,-0.011006,-3.765070,188.194240,954.374314,1029.230676,0
0.035417,-61.372793,166.519345,-144.976580,-2.523075,-2.900500,-2.353631,4.939623,2.888449,2.412267,-4.949933,-0.072118,0.555423,-0.018440,-61.970608,188.194322,952.213413,1028.927999,0
0.036458,-121.036399,178.182140,-66.573994,-1.025588,-1.036408,-4.043212,4.603270,1.013584,4.136336,-4.611035,-0.064826,0.573751,-0.007290,-102.658194,188.269554,950.015392,1029.363053,0
0.037500,-156.427765,165.145179,12.436175,0.483158,0.680905,-4.946264,3.652203,-0.683428,4.925615,-3.624804,-0.083057,0.572028,-0.003573,-125.951667,188.194309,948.698609,1029.994973,0
0.038542,-173.784450,115.510766,83.207511,1.800497,2.592701,-5.041979,1.761667,-2.680567,5.004984,-1.709459,-0.028364,0.563071,-0.007290,-140.553714,188.194343,947.444456,1030.539675,0
0.039583,-184.880977,35.950068,133.855678,2.813834,4.053151,-4.617503,0.010312,-4.010758,4.519952,-0.049240,0.022683,0.559488,-0.003573,-141.094114,188.194340,945.155042,1031.424676,0
0.040625,-149.986807,-32.558576,172.267113,3.534429,4.732003,-3.435629,-1.771973,-4.733285,3.232412,1.877527,0.026329,0.575887,-0.014723,-108.411198,188.269722,943.338543,1031.376131,0
0.041667,-100.029838,-102.617561,175.803249,3.624503,4.842088,-1.371510,-3.689571,-4.833327,1.212914,3.644366,0.091960,0.591871,-0.029590,-62.702400,188.194342,942.136406,1031.355971,0
0.042708,-18.105379,-147.037190,174.515172,3.613244,4.115532,0.467886,-4.659969,-4.070042,-0.678711,4.558248,0.081021,0.581330,-0.025873,3.687941,188.195109,940.708078,1029.839604,0
0.043751,60.609901,-166.862767,145.217492,3.072797,2.882589,2.303120,-4.973125,-2.865830,-2.464512,4.832413,0.088314,0.580985,-0.018440,61.251755,188.194304,940.167828,1030.037057,0
0.044791,121.414799,-177.879586,67.811343,1.575311,1.022166,4.013509,-4.706363,-1.016902,-4.148896,4.497323,0.073729,0.583810,-0.025873,105.879753,188.269527,938.480961,1030.375919,0
0.045833,157.066064,-165.054035,-11.344647,0.044046,-0.772206,4.879107,-3.763028,0.713457,-4.977860,3.511092,0.044560,0.583672,-0.048173,127.552028,188.194188,938.320039,1030.651122,0
0.046875,174.162851,-116.206538,-82.747869,-1.284552,-2.639967,4.983145,-1.887956,2.699480,-5.030773,1.565284,0.029975,0.570788,-0.018440,140.544135,188.269565,938.336890,1031.065193,0
0.047917,184.807380,-37.362285,-134.100834,-2.297889,-4.126104,4.600284,-0.090207,4.055608,-4.572197,-0.102550,-0.002841,0.581743,-0.018440,143.234874,188.194071,938.496578,1032.493685,0
0.048958,150.274808,31.381259,-172.779605,-3.063521,-4.797617,3.393441,1.723006,4.804072,-3.302294,-1.995048,-0.061180,0.575129,-0.025873,108.840693,188.269568,938.711374,1033.463757,0
0.050000,101.097533,102.203670,-175.538035,-3.142336,-4.955405,1.337645,3.636738,4.904114,-1.313662,-3.780925,-0.064826,0.580434,-0.014723,62.872953,188.194217,939.305966,1034.521263,0
0.051041,19.093975,147.269273,-174.164896,-3.108558,-4.225180,-0.584981,4.583939,4.163061,0.674970,-4.763349,-0.079410,0.585877,-0.014723,-1.952480,188.269525,940.413590,1034.522168,0
0.052083,-60.141101,166.742500,-144.964429,-2.556853,-2.966551,-2.436862,4.958954,2.895859,2.456361,-4.999435,-0.072118,0.586222,-0.022156,-61.373917,188.194099,941.532423,1034.662412,0
0.053125,-121.239797,178.158650,-67.606887,-1.014329,-1.087780,-4.130604,4.668994,0.998763,4.233342,-4.633882,-0.086703,0.585670,-0.018440,-104.110518,188.269518,943.108715,1034.878149,0
0.054167,-157.263959,164.534438,11.075188,0.438121,0.695583,-5.004525,3.706329,-0.698249,4.965300,-3.662882,-0.093995,0.582088,-0.011006,-126.762267,188.194098,943.783852,1035.373077,0
0.055210,-174.744944,115.581236,82.684989,1.811756,2.673429,-5.079433,1.738470,-2.717620,5.035850,-1.675189,-0.002841,0.572235,0.003860,-140.655039,188.269655,944.823138,1035.335724,0
0.056250,-184.530679,36.842688,134.524020,2.836352,4.119202,-4.650795,-0.032216,-4.066337,4.519952,0.019301,0.008098,0.571959,0.000144,-141.510672,188.269570,946.197574,1034.960509,0
0.057292,-150.325805,-31.889111,173.117730,3.579466,4.812732,-3.377367,-1.918885,-4.814801,3.236821,1.942261,0.044560,0.572166,-0.025873,-108.872789,188.269478,947.988526,1035.421668,0
0.058333,-100.323636,-102.922932,175.377941,3.613244,4.882452,-1.342380,-3.728233,-4.903727,1.168821,3.720523,0.055498,0.574991,-0.007290,-65.010356,188.194119,949.515196,1035.719157,0
0.059375,-17.924580,-147.553970,174.709599,3.635763,4.163235,0.546955,-4.752756,-4.177495,-0.713986,4.691523,0.099252,0.568170,-0.040740,3.158799,188.269496,951.451090,1037.579667,0
0.060416,61.220097,-166.463436,145.083823,3.072797,2.812869,2.402997,-5.073645,-2.843599,-2.530652,4.881915,0.095606,0.592491,0.022444,60.981555,188.269474,952.445465,1037.616742,0
0.061458,121.154901,-179.242007,66.814906,1.541533,0.915752,4.121708,-4.733425,-0.916860,-4.267949,4.550632,0.106545,0.590907,0.007577,104.843987,188.269436,954.827230,1037.814664,0
0.062500,157.066064,-164.513765,-11.745652,0.077824,-0.823578,4.962337,-3.751429,0.746805,-5.021954,3.488245,0.088314,0.583466,-0.040740,127.056662,188.194121,955.349158,1037.666907,0
0.063542,175.112044,-115.102507,-82.966600,-1.284552,-2.739043,4.999791,-1.806768,2.751354,-5.057229,1.565284,0.008098,0.574646,-0.003573,140.915660,188.269523,955.908254,1038.200960,0
0.064583,184.513582,-35.506574,-134.295261,-2.331667,-4.177477,4.587800,-0.001287,4.122303,-4.532512,-0.174899,0.029975,0.573957,-0.018440,142.480567,188.344934,956.574537,1037.696296,0
0.065625,150.207009,33.319185,-172.779605,-3.029743,-4.837982,3.293564,1.815793,4.874472,-3.244972,-2.048357,-0.024718,0.549429,-0.007290,109.426126,188.269550,957.506819,1037.828714,0
0.066666,99.221746,103.519111,-175.331456,-3.108558,-4.922380,1.254415,3.694730,4.896703,-1.265159,-3.845659,-0.079410,0.578918,-0.007290,61.837187,188.194099,957.786572,1037.768251,0
0.067708,16.257694,147.363233,-174.906148,-3.119818,-4.162799,-0.647404,4.645797,4.170471,0.723473,-4.816658,-0.075764,0.602482,-0.029590,-3.596195,188.344860,958.300718,1038.370146,0
0.068750,-62.457586,166.366660,-144.502665,-2.511815,-2.863805,-2.445185,4.993749,2.843986,2.482817,-5.018474,-0.083057,0.543435,-0.033307,-62.173258,188.420077,958.300256,1038.368854,0
0.069791,-121.330197,179.462346,-65.249462,-0.980551,-0.966688,-4.134766,4.641931,0.939479,4.259798,-4.649113,-0.086703,0.582019,-0.014723,-102.894619,188.269635,958.750375,1038.632195,0
0.070833,-156.868462,164.452223,13.238185,0.449381,0.798329,-5.037818,3.625140,-0.772355,4.969709,-3.617188,-0.072118,0.574440,-0.037023,-126.447034,188.194179,959.052564,1038.074025,0
0.071875,-174.937043,114.007405,83.693578,1.823015,2.691777,-5.012848,1.653416,-2.802841,5.044669,-1.614263,-0.006487,0.560177,-0.011006,-141.454380,188.420321,959.808778,1037.808879,0
0.072917,-184.406380,34.387981,134.305290,2.802574,4.177913,-4.546757,-0.090207,-4.084863,4.444993,0.103073,0.019036,0.548327,-0.033307,-140.497423,188.420379,959.814325,1036.667443,0
0.073958,-149.885108,-34.261603,172.631663,3.556947,4.809062,-3.323267,-1.938216,-4.814801,3.179499,1.976531,0.026329,0.542815,-0.037023,-108.253581,188.269384,959.636097,1036.320694,0
0.075000,-98.730346,-104.026963,175.511609,3.613244,4.922816,-1.309087,-3.759162,-4.829622,1.115908,3.682445,0.088314,0.531791,-0.025873,-61.858025,188.269563,958.547000,1035.499803,0
0.076041,-15.947093,-147.530480,175.025542,3.613244,4.067829,0.551116,-4.721827,-4.107095,-0.780127,4.672483,0.091960,0.571201,-0.011006,5.061456,188.420309,958.448333,1034.511820,0
0.077083,62.282290,-166.416456,144.694970,3.005242,2.827547,2.423805,-5.034983,-2.788020,-2.574746,4.855260,0.102898,0.559971,-0.014723,62.107387,188.495626,958.591779,1033.810100,0
0.078125,121.324400,-179.747043,65.162278,1.496495,0.868049,4.113385,-4.629040,-0.876102,-4.325271,4.424974,0.059144,0.577402,-0.011006,105.744653,188.269447,958.660086,1032.535705,0
0.079167,157.066064,-164.243629,-12.778544,0.055305,-0.805231,4.908238,-3.635446,0.820910,-5.008726,3.431127,0.066437,0.575749,-0.025873,127.529512,188.269351,959.005845,1031.585170,0
0.080208,175.428442,-114.491767,-83.367605,-1.318330,-2.797755,4.991468,-1.690784,2.795817,-5.021954,1.405355,0.029975,0.568583,-0.003573,141.602417,188.420325,959.870869,1029.715231,0
0.081250,184.287584,-35.165968,-134.368171,-2.309148,-4.206832,4.525377,0.076036,4.137124,-4.475190,-0.254864,0.011744,0.572235,-0.037023,142.581892,188.495691,960.420855,1028.519406,0
0.082291,150.105310,33.800731,-173.119852,-3.041003,-4.841651,3.243626,1.924044,4.844830,-3.134738,-2.170208,-0.057533,0.569065,-0.025873,108.514201,188.344894,961.618690,1026.762634,0
0.083333,99.617243,103.683541,-175.295001,-3.108558,-4.848990,1.167023,3.756588,4.830009,-1.071146,-3.845659,-0.050241,0.573613,-0.011006,61.398113,188.344871,962.523937,1024.215180,0
0.084375,17.048689,147.715584,-175.039816,-3.097299,-4.049045,-0.755604,4.641931,4.085250,0.842526,-4.816658,-0.126811,0.574440,-0.007290,-3.584937,188.420245,963.788723,1022.425639,0
0.085416,-61.745691,166.260955,-144.101660,-2.523075,-2.812433,-2.540900,4.966686,2.718007,2.566595,-4.957549,-0.090349,0.588633,0.011294,-62.218292,188.495738,964.626132,1020.071098,0
0.086458,-121.013799,180.237517,-64.568969,-0.980551,-0.867612,-4.255450,4.572341,0.820910,4.308302,-4.569149,-0.090349,0.580434,-0.022156,-103.840318,188.420303,965.737881,1018.347829,0
0.087500,-157.682057,163.583092,12.363265,0.449381,0.853371,-5.017010,3.528487,-0.842755,4.952072,-3.491529,-0.090349,0.579332,-0.018440,-126.886108,188.420396,966.291006,1016.347417,0
0.088541,-176.383433,113.995660,83.183208,1.834274,2.827547,-5.033656,1.560629,-2.821367,4.960890,-1.530491,-0.021072,0.563967,-0.025873,-141.634514,188.420247,966.650264,1014.864832,0
0.089583,-184.010883,35.550737,134.827812,2.813834,4.221947,-4.505142,-0.233254,-4.121916,4.325939,0.217308,0.008098,0.561418,-0.025873,-140.880206,188.495656,967.963528,1012.635573,0
0.090625,-150.337105,-32.957907,173.555190,3.579466,4.823740,-3.190099,-2.069664,-4.844443,3.078084,2.136461,0.040913,0.574302,-0.037023,-108.670139,188.495790,970.689782,1010.985460,0
0.091666,-99.973338,-103.839042,174.989087,3.613244,4.842088,-1.205049,-3.851949,-4.807390,1.001264,3.785256,0.066437,0.578091,-0.018440,-63.850749,188.420211,972.735121,1009.435340,0
0.092708,-17.427383,-147.976790,175.402244,3.635763,4.031134,0.730062,-4.799150,-4.055221,-0.930046,4.733409,0.106545,0.574991,-0.018440,4.217082,188.495759,975.233340,1008.051646,0
0.093750,61.717294,-166.052361,144.245358,3.016501,2.728471,2.515358,-5.081377,-2.687978,-2.645296,4.820989,0.099252,0.586497,-0.025873,61.510696,188.495618,975.964629,1006.215577,0
0.094791,120.556005,-181.203424,64.943548,1.496495,0.746956,4.242393,-4.648371,-0.705660,-4.404640,4.432589,0.102898,0.582156,0.003860,104.506238,188.495649,978.504976,1004.959233,0
0.095833,157.687559,-163.210068,-11.514770,0.089083,-0.981366,4.995630,-3.577454,0.913542,-5.039592,3.335931,0.051852,0.584568,-0.014723,127.315603,188.495734,979.763917,1003.322203,0
0.096875,176.953932,-114.268611,-82.638504,-1.318330,-2.893161,4.999791,-1.590265,2.955144,-5.039592,1.348237,0.029975,0.568652,-0.025873,141.883875,188.495754,982.280284,1002.850924,0
0.097916,183.767787,-35.436104,-134.854238,-2.297889,-4.291230,4.458792,0.137894,4.218640,-4.470781,-0.350060,-0.010133,0.569134,-0.025873,141.816326,188.495427,983.948322,1002.318034,0
0.098958,150.478207,33.659791,-173.520857,-3.097299,-4.948066,3.177041,2.028430,4.933756,-3.112691,-2.280636,-0.050241,0.578298,-0.040740,109.549967,188.495627,986.211501,1002.353606,0
0.100000,99.379945,104.059381,-174.954754,-3.097299,-4.915041,1.112923,3.814580,4.867061,-1.066737,-3.956086,-0.090349,0.587668,-0.003573,61.792154,188.571071,987.564876,1002.792049,0
0.101041,16.155995,147.797799,-175.452973,-3.131077,-4.045376,-0.797219,4.757915,4.088955,0.908667,-4.904239,-0.068472,0.564794,-0.014723,-3.629970,188.571076,989.025892,1003.039973,0
0.102083,-62.434986,166.073034,-143.882930,-2.511815,-2.753721,-2.653261,4.997615,2.714301,2.681239,-5.010858,-0.104934,0.586773,-0.025873,-61.970608,188.495636,990.532297,1003.291269,0
0.103125,-120.731301,181.482488,-63.584683,-0.946773,-0.783214,-4.342842,4.568475,0.780152,4.392080,-4.565341,-0.112226,0.581812,-0.003573,-102.556869,188.571049,991.831014,1003.319264,0
0.104167,-157.489958,163.230742,12.958697,0.471899,0.930430,-5.054464,3.497558,-0.968734,5.040259,-3.499145,-0.057533,0.578918,-0.022156,-127.167566,188.646475,993.733659,1003.291766,0
0.105208,-176.903230,113.185254,83.462696,1.800497,2.882589,-5.046141,1.479440,-2.951052,5.044669,-1.480989,-0.010133,0.564036,-0.037023,-142.523921,188.564179,995.846597,1003.637991,0
0.106250,-183.773584,33.659791,134.852116,2.836352,4.240294,-4.525949,-0.271915,-4.188611,4.378852,0.251579,-0.002841,0.568583,-0.003573,-139.743115,188.495318,996.445715,1004.469212,0
0.107291,-150.020707,-35.377379,173.178488,3.601985,4.886121,-3.177614,-2.131522,-4.859264,3.020762,2.197386,0.055498,0.567894,0.041027,-108.636364,188.646303,996.758329,1004.196989,0
0.108333,-97.894152,-104.943073,175.074149,3.624503,4.919147,-1.130142,-3.929271,-4.851853,0.983626,3.853797,0.088314,0.532962,-0.011006,-61.542792,188.721697,997.232522,1005.015735,0
0.109375,-14.218205,-147.953300,175.791098,3.669540,4.042143,0.771677,-4.841677,-4.058926,-0.907999,4.771487,0.091960,0.555699,-0.007290,5.545564,188.570798,996.736381,1005.993834,0
0.110416,63.739980,-166.099341,143.662078,3.005242,2.618387,2.598589,-5.054314,-2.647220,-2.742303,4.870491,0.059144,0.590080,0.011294,62.557720,188.495521,997.843480,1006.271934,0
