1-Time,2-VGERA,3-VGERB,4-VGERC,5-VN,6-IGERAN,7-IGERBN,8-IGERCN,9-IGERAT,10-IGERBT,11-IGERCT,12-IN,13-IFD,14-IFAULT,15-VFAULT,16-Speed (rad/s),17-FAULT 
0.000000,146.207283,-158.796219,-1.132436,2.995908,-3.893640,3.954541,0.302260,4.047130,-3.902204,-0.174353,-0.128440,0.393148,-0.031958,-85.682220,188.420557,0
0.001042,181.641255,-112.658525,-59.053345,1.842288,-4.596595,2.880166,1.990892,4.892553,-3.023920,-1.925525,-0.099216,0.399419,-0.050629,-107.646239,188.420482,0
0.002083,183.002355,-37.230439,-115.012435,0.699978,-4.522039,1.432427,3.370006,4.701414,-1.505053,-3.273166,-0.033462,0.406539,-0.017021,-116.739479,188.495901,0
0.003125,159.126391,27.471254,-159.058798,-0.136962,-3.772930,-0.076270,4.016466,4.010373,0.098419,-4.053579,-0.037115,0.407192,-0.046895,-108.290909,188.496016,0
0.004167,93.044983,80.357341,-178.877889,-0.578052,-2.445126,-1.969761,4.557142,2.701806,1.911391,-4.495179,-0.033462,0.392952,-0.035692,-67.665390,188.420473,0
0.005208,23.254578,135.303464,-178.546980,-0.589362,-0.971761,-3.101284,3.996876,1.172694,3.103923,-4.133524,-0.069992,0.408630,-0.039427,-24.585601,188.420542,0
0.006252,-39.764355,170.667409,-130.777890,0.371988,0.973792,-3.882301,2.821495,-0.657830,3.873428,-2.892476,-0.073645,0.394127,-0.039427,17.600698,188.495910,0
0.007292,-91.871802,191.469033,-58.237890,1.785738,2.734730,-4.213757,1.328760,-2.525111,4.260196,-1.434435,-0.099216,0.389816,-0.061832,51.813447,188.496015,0
0.008333,-146.814875,159.029391,0.876655,2.961978,3.984428,-3.798484,-0.355953,-3.705027,3.853284,0.191109,-0.157664,0.397328,-0.043161,90.323996,188.420562,0
0.009375,-181.590981,113.744126,59.033927,4.126908,4.690933,-2.743159,-2.079846,-4.487961,2.902482,1.911826,-0.146705,0.402032,-0.058098,112.808276,188.420524,0
0.010417,-183.269671,38.588343,115.087563,5.257908,4.584425,-1.223032,-3.474633,-4.377689,1.391672,3.267081,-0.190541,0.405951,-0.039427,122.025926,188.496016,0
0.011458,-159.620558,-26.361975,158.980289,6.117468,3.860168,0.327573,-4.128928,-3.686648,-0.147339,4.055109,-0.219765,0.410851,-0.028224,113.113646,188.495837,0
0.012500,-93.800027,-79.567723,178.834835,6.513318,2.539464,2.213444,-4.661768,-2.370729,-1.988512,4.523357,-0.263601,0.411830,-0.043161,73.064937,188.420520,0
0.013542,-23.873512,-134.999256,178.787562,6.535938,1.041247,3.264960,-4.152436,-0.904105,-3.185073,4.138860,-0.223418,0.404057,-0.043161,30.561958,188.420513,0
0.014583,39.281531,-169.972505,131.727562,5.585898,-0.826199,4.026928,-2.933957,0.908040,-3.833714,2.920654,-0.168623,0.395565,-0.046895,-12.902371,188.495957,0
0.015625,91.717911,-191.212182,59.022109,4.149528,-2.615540,4.346955,-1.421633,2.837809,-4.301058,1.500682,-0.164970,0.389751,-0.084238,-46.775821,188.495873,0
0.016667,146.161913,-159.281630,-0.033345,3.007218,-3.851036,3.924063,0.243491,4.036103,-3.869974,-0.155318,-0.113828,0.393866,-0.017021,-84.879210,188.345138,0
0.017708,181.369035,-113.416239,-58.686981,1.830978,-4.578844,2.922074,1.947794,4.863147,-2.959459,-1.887456,-0.084604,0.397524,-0.035692,-108.720689,188.495864,0
0.018750,183.195177,-38.426207,-114.622435,0.722598,-4.482986,1.451476,3.334745,4.708765,-1.464765,-3.288393,-0.062686,0.400921,-0.065566,-117.768689,188.495921,0
0.019792,159.409954,26.535951,-159.011526,-0.136962,-3.758729,-0.061031,4.024302,4.006697,0.062160,-4.023124,-0.099216,0.410655,-0.061832,-110.304089,188.496004,0
0.020833,94.508166,79.931127,-178.416980,-0.532812,-2.484179,-1.965951,4.549306,2.712833,1.887218,-4.476145,-0.029809,0.408630,-0.061832,-69.599400,188.420672,0
0.021875,24.048553,135.161392,-178.842435,-0.555432,-0.954009,-3.086044,3.996876,1.224154,3.083779,-4.122104,-0.055380,0.407192,-0.043161,-24.008791,188.495928,0
0.022917,-39.356025,169.507159,-131.888799,0.338058,0.920537,-3.844203,2.837167,-0.610045,3.772708,-2.869635,-0.084604,0.396675,-0.046895,17.431048,188.495881,0
0.023958,-91.713007,191.717658,-58.675163,1.774428,2.688576,-4.179469,1.332678,-2.466299,4.236023,-1.472504,-0.124787,0.389620,-0.080503,52.141437,188.495796,0
0.025000,-145.975530,159.313534,0.711200,2.961978,3.952475,-3.821344,-0.305020,-3.616809,3.841198,0.153041,-0.121134,0.393213,-0.054364,89.588846,188.420533,0
0.026042,-182.135421,113.779643,58.632109,4.115598,4.669631,-2.750778,-2.060257,-4.524719,2.894424,1.904213,-0.186888,0.397263,-0.069301,113.441636,188.495942,0
0.027083,-183.167589,38.813290,114.224835,5.246598,4.559573,-1.249701,-3.411946,-4.344607,1.411816,3.183330,-0.190541,0.401509,-0.046895,123.337886,188.495980,0
0.028125,-159.745325,-25.971279,159.169380,6.106158,3.856618,0.300904,-4.109339,-3.671945,-0.123166,4.005619,-0.234377,0.398112,-0.046895,113.803556,188.495884,0
0.029167,-94.650715,-79.626919,177.830289,6.479388,2.486210,2.160106,-4.665686,-2.356026,-1.911965,4.462447,-0.227071,0.405951,-0.050629,72.544677,188.420461,0
0.030208,-23.623977,-134.892703,179.236653,6.490698,1.069649,3.234481,-4.085831,-0.889402,-3.140756,4.135054,-0.208806,0.408630,-0.046895,30.053008,188.495948,0
0.031250,39.769259,-168.658344,132.294835,5.619828,-0.808448,3.965971,-2.922203,0.952149,-3.813570,2.836902,-0.201500,0.395303,-0.031958,-13.162501,188.495930,0
0.032292,91.604486,-191.744950,58.584836,4.149528,-2.604889,4.331715,-1.472566,2.782672,-4.301058,1.508295,-0.161317,0.388836,-0.073035,-45.486481,188.495997,0
0.033333,145.265856,-159.305309,-0.352436,2.984598,-3.847486,3.927872,0.212148,3.947885,-3.914291,-0.159125,-0.124787,0.391972,-0.031958,-84.947070,188.420517,0
0.034375,181.743337,-113.214971,-58.426981,1.830978,-4.536240,2.933504,1.947794,4.874174,-3.007805,-1.860807,-0.077298,0.396806,-0.043161,-107.555759,188.420509,0
0.035417,182.764162,-37.786886,-114.007890,0.745218,-4.429732,1.390518,3.322991,4.690387,-1.456707,-3.238904,-0.044421,0.395956,-0.039427,-116.083499,188.495922,0
0.036458,159.217131,26.654344,-158.893344,-0.159582,-3.780031,-0.095319,3.981205,3.999346,0.050073,-4.000283,-0.044421,0.402424,-0.043161,-108.562349,188.495901,0
0.037500,94.122521,80.073198,-177.755162,-0.566742,-2.395422,-1.962141,4.486619,2.720185,1.859016,-4.434269,-0.026156,0.397851,-0.031958,-68.049930,188.345194,0
0.038542,23.209208,134.652303,-179.220616,-0.578052,-0.954009,-3.044136,3.973369,1.257236,3.111980,-4.087842,-0.033462,0.384133,-0.080503,-23.884381,188.495861,0
0.039583,-39.605560,168.986230,-132.113344,0.371988,0.906336,-3.760386,2.774480,-0.562260,3.748535,-2.846793,-0.106522,0.390404,-0.043161,18.177508,188.495796,0
0.040625,-91.316020,191.989961,-58.119709,1.785738,2.709878,-4.129941,1.305253,-2.418514,4.244080,-1.430628,-0.084604,0.385047,-0.039427,51.508077,188.495933,0
0.041667,-145.397062,159.420088,1.089382,2.984598,3.909872,-3.760386,-0.355953,-3.583727,3.804938,0.172075,-0.168623,0.385309,-0.039427,89.419196,188.345155,0
0.042708,-181.715749,113.495501,58.667563,4.115598,4.609277,-2.712680,-2.028913,-4.447528,2.846078,1.896599,-0.175929,0.393605,-0.050629,112.661246,188.495908,0
0.043750,-183.008794,38.067415,113.858472,5.201358,4.502768,-1.211603,-3.411946,-4.315201,1.367499,3.248047,-0.190541,0.404057,-0.024490,121.313396,188.495884,0
0.044792,-159.450420,-26.492207,158.661198,6.106158,3.785612,0.289475,-4.101503,-3.620484,-0.147339,4.013233,-0.201500,0.395303,-0.050629,113.238056,188.495944,0
0.045833,-93.913452,-79.532205,177.901198,6.513318,2.447157,2.141057,-4.618671,-2.352351,-1.932109,4.409150,-0.238030,0.393082,-0.065566,73.223277,188.345037,0
0.046875,-22.988797,-134.194185,179.390289,6.558558,1.019945,3.215432,-4.081913,-0.859996,-3.168958,4.070336,-0.197847,0.397394,-0.058098,29.792878,188.495892,0
0.047917,39.973424,-168.563630,132.436653,5.585898,-0.804898,3.912633,-2.906531,0.992582,-3.789397,2.874971,-0.201500,0.371068,-0.050629,-13.433941,188.495892,0
0.048958,91.275553,-191.756789,58.324836,4.160838,-2.594238,4.293617,-1.441222,2.808403,-4.224510,1.428351,-0.146705,0.385113,-0.061832,-46.560931,188.495868,0
0.050000,144.721416,-159.459219,-0.612436,3.018528,-3.801333,3.882154,0.235655,3.962588,-3.857887,-0.178159,-0.157664,0.384590,-0.028224,-84.166680,188.345064,0
0.051042,181.210240,-113.025543,-58.261527,1.830978,-4.529140,2.861117,1.904697,4.767577,-2.911113,-1.936945,-0.102869,0.391710,-0.080503,-108.618899,188.495864,0
0.052083,182.956985,-37.265957,-113.582435,0.722598,-4.404880,1.420997,3.268140,4.653629,-1.464765,-3.204642,-0.095563,0.404122,-0.043161,-117.248429,188.495901,0
0.053125,158.944911,26.914808,-158.775162,-0.182202,-3.716126,-0.099129,3.949861,3.977291,0.090362,-3.946986,-0.048074,0.381716,-0.073035,-110.338019,188.495971,0
0.054167,94.235946,79.883770,-177.506980,-0.555432,-2.416724,-1.924043,4.451357,2.668724,1.802612,-4.377166,-0.066339,0.419996,-0.073035,-70.266690,188.420499,0
0.055208,22.755508,134.604946,-179.315162,-0.566742,-0.932708,-3.028897,3.957697,1.257236,3.071692,-4.049773,-0.051727,0.374922,-0.054364,-23.850451,188.495977,0
0.056250,-40.059260,168.204837,-132.763344,0.338058,0.895686,-3.741337,2.809741,-0.547557,3.692131,-2.850600,-0.059033,0.393082,-0.058098,17.442358,188.495919,0
0.057292,-91.134540,192.155711,-58.462436,1.819668,2.667274,-4.114701,1.340514,-2.466299,4.191706,-1.445856,-0.113828,0.385700,-0.035692,51.892617,188.495893,0
0.058333,-144.591745,159.668713,0.545745,2.984598,3.881469,-3.748957,-0.312856,-3.546969,3.792852,0.111165,-0.146705,0.388444,-0.031958,89.170376,188.348501,0
0.059375,-181.999311,113.649411,58.112109,4.115598,4.666081,-2.727919,-2.024995,-4.469583,2.886366,1.873757,-0.219765,0.393278,-0.050629,113.385086,188.497992,0
0.060417,-183.133561,38.505468,113.409381,5.212668,4.531170,-1.276370,-3.364930,-4.274768,1.435989,3.209978,-0.234377,0.401640,-0.054364,122.851556,188.495626,0
0.061458,-159.393708,-25.651618,159.193017,6.094848,3.803363,0.247566,-4.074077,-3.627836,-0.135253,4.005619,-0.227071,0.388444,-0.039427,114.165476,188.495577,0
0.062500,-95.127100,-79.425651,176.920289,6.502008,2.532364,2.072480,-4.618671,-2.337648,-1.895849,4.401536,-0.201500,0.387922,-0.043161,73.653057,188.344677,0
0.063542,-23.317729,-134.348095,179.567562,6.581178,1.083850,3.204003,-4.144600,-0.900429,-3.112554,4.100792,-0.208806,0.400529,-0.046895,30.629818,188.495537,0
0.064583,39.950739,-167.592808,133.393926,5.653758,-0.740993,3.931682,-2.937875,0.889661,-3.781339,2.913040,-0.216112,0.399288,-0.058098,-12.653551,188.495492,0
0.065625,91.241526,-192.040932,59.459381,4.194768,-2.544534,4.320286,-1.507827,2.771645,-4.297029,1.519716,-0.164970,0.389489,-0.039427,-45.147181,188.496775,0
0.066667,144.279058,-159.601291,0.545745,3.029838,-3.769380,3.927872,0.172968,3.892749,-3.890118,-0.117249,-0.154011,0.391906,-0.046895,-84.675630,188.420300,0
0.067708,181.822735,-113.925329,-57.422436,1.853598,-4.525589,2.933504,1.904697,4.822714,-2.943344,-1.845580,-0.091910,0.399027,-0.046895,-107.680169,188.495631,0
0.068750,182.764162,-38.876100,-113.369708,0.733908,-4.440383,1.485764,3.225042,4.631575,-1.509082,-3.189414,-0.051727,0.410132,-0.046895,-115.619789,188.495792,0
0.069792,159.534721,25.423058,-159.117889,-0.125652,-3.780031,-0.041982,3.961615,4.047130,0.046044,-3.962214,-0.077298,0.415162,-0.065566,-109.059989,188.495803,0
0.070833,95.801211,79.564109,-176.904253,-0.510192,-2.462878,-1.882135,4.502290,2.687103,1.806641,-4.434269,-0.095563,0.408368,-0.039427,-69.565470,188.344874,0
0.071875,24.139293,134.462875,-179.527889,-0.578052,-1.010814,-3.013657,4.059563,1.275615,3.079750,-4.133524,-0.055380,0.414574,-0.061832,-25.049311,188.495676,0
0.072918,-39.253942,168.204837,-133.389708,0.315438,0.824680,-3.756576,2.864592,-0.496097,3.736448,-2.919124,-0.062686,0.394193,-0.031958,17.351878,188.495693,0
0.073961,-91.259307,192.108354,-59.691527,1.740498,2.674375,-4.164229,1.383611,-2.400135,4.280340,-1.521994,-0.102869,0.393278,-0.039427,51.349737,188.495642,0
0.075000,-145.011417,159.834463,-0.718800,2.939358,3.860168,-3.779435,-0.285431,-3.561672,3.893573,0.103551,-0.179582,0.394323,-0.084238,89.419196,188.344816,0
0.076042,-182.033339,114.939893,57.627563,4.115598,4.658980,-2.766018,-2.001488,-4.484286,2.950827,1.843302,-0.179582,0.398178,-0.031958,112.943996,188.495680,0
0.077083,-183.178931,40.245843,113.456653,5.190048,4.552472,-1.291609,-3.364930,-4.370337,1.460162,3.225205,-0.205153,0.406408,-0.054364,120.951476,188.495645,0
0.078125,-160.062915,-24.313779,159.181198,6.106158,3.888570,0.224707,-4.081913,-3.682972,-0.054676,4.001812,-0.197847,0.406539,-0.031958,113.735696,188.495689,0
0.079167,-96.408802,-78.786330,177.109380,6.456768,2.582068,2.076290,-4.591245,-2.374405,-1.875705,4.451026,-0.208806,0.406800,-0.050629,74.761437,188.344853,0
0.080208,-25.087159,-133.862685,179.650289,6.535938,1.158406,3.242101,-4.136764,-0.926160,-3.177016,4.165509,-0.245336,0.402620,-0.054364,31.127458,188.495790,0
0.081250,38.714406,-167.865112,133.949381,5.608518,-0.748093,3.965971,-3.008398,0.900688,-3.801484,2.939688,-0.164970,0.397002,-0.017021,-12.382111,188.420320,0
0.082292,90.957963,-191.815986,60.499381,4.217388,-2.548084,4.335525,-1.503909,2.778997,-4.333289,1.489261,-0.164970,0.392037,-0.035692,-46.199011,188.495694,0
0.083333,144.687388,-159.991987,1.384836,2.995908,-3.758729,3.943112,0.110281,3.918479,-3.910262,-0.037304,-0.179582,0.394977,-0.054364,-84.144060,188.344995,0
0.084375,181.777365,-114.789596,-57.067890,1.842288,-4.536240,2.929694,1.912533,4.822714,-2.979603,-1.815125,-0.084604,0.402228,-0.043161,-108.754619,188.495660,0
0.085417,183.104437,-40.071868,-113.109708,0.779148,-4.493637,1.489574,3.272058,4.694062,-1.517140,-3.155152,-0.048074,0.408238,-0.039427,-117.056159,188.495689,0
0.086458,159.886339,24.724540,-159.247889,-0.159582,-3.801333,-0.038172,3.981205,4.028752,0.009785,-4.023124,-0.037115,0.412288,-0.069301,-110.745179,188.495645,0
0.087500,97.037544,79.090538,-176.856980,-0.555432,-2.509031,-1.897374,4.506208,2.760618,1.794555,-4.453304,-0.022503,0.409348,-0.009553,-71.544720,188.344836,0
0.088542,25.194145,134.332642,-179.776071,-0.589362,-1.021465,-3.021277,4.071317,1.257236,3.087807,-4.152559,-0.069992,0.405363,-0.058098,-24.687391,188.495727,0
0.089583,-38.800242,167.624712,-134.098799,0.349368,0.845982,-3.768006,2.852838,-0.507124,3.740477,-2.938159,-0.055380,0.397394,-0.039427,16.967338,188.495707,0
0.090625,-90.862320,192.250426,-60.128799,1.763118,2.670825,-4.179469,1.364022,-2.418514,4.296455,-1.510573,-0.128440,0.389816,-0.043161,51.530697,188.495734,0
0.091667,-144.546375,160.094927,-0.990618,2.905428,3.892120,-3.745147,-0.308938,-3.561672,3.865371,0.111165,-0.139399,0.395173,-0.061832,88.932866,188.344945,0
0.092708,-182.441669,114.833340,57.273018,4.081668,4.680282,-2.785067,-1.974062,-4.473258,2.970972,1.828075,-0.183235,0.397720,-0.005818,113.385086,188.495683,0
0.093750,-183.110876,40.174807,112.865744,5.201358,4.524070,-1.242081,-3.392356,-4.296822,1.427932,3.141454,-0.194194,0.399027,-0.031958,122.591426,188.495613,0
0.094792,-159.892778,-23.852047,159.429380,6.128778,3.842416,0.262806,-4.113257,-3.682972,-0.107051,4.009426,-0.245336,0.406213,-0.058098,114.346436,188.495767,0
0.095833,-96.964585,-78.549544,176.601198,6.456768,2.528813,2.122008,-4.567737,-2.374405,-1.867647,4.435798,-0.216112,0.401052,-0.043161,74.082837,188.344979,0
0.096875,-24.951049,-133.850845,179.910289,6.558558,1.094501,3.276390,-4.152436,-0.918808,-3.148814,4.127440,-0.219765,0.400464,-0.058098,30.708988,188.495723,0
0.097917,38.839173,-167.131076,134.221199,5.619828,-0.769395,3.916443,-2.926121,0.874958,-3.757166,2.916847,-0.175929,0.392821,-0.031958,-12.551761,188.495743,0
0.098958,90.560976,-192.277718,60.003018,4.160838,-2.572936,4.308856,-1.456894,2.760618,-4.309116,1.470226,-0.190541,0.386092,-0.050629,-44.683471,188.495718,0
0.100000,143.893413,-159.968309,0.994836,3.007218,-3.783581,3.920253,0.188640,3.903776,-3.878031,-0.113442,-0.143052,0.389228,-0.046895,-84.166680,188.344941,0
0.101042,181.981530,-114.233150,-56.819709,1.853598,-4.553992,2.948743,1.908615,4.800659,-2.971546,-1.872228,-0.080951,0.393278,-0.039427,-107.600999,188.495647,0
0.102083,182.820875,-39.361510,-112.424253,0.733908,-4.411980,1.375279,3.291647,4.690387,-1.492967,-3.200835,-0.069992,0.396544,-0.061832,-115.461449,188.420318,0
0.103125,159.625461,24.760058,-159.046980,-0.136962,-3.719676,-0.110559,3.961615,3.966264,0.086333,-4.004090,-0.080951,0.401574,-0.061832,-109.127849,188.495683,0
0.104167,96.107458,79.007663,-176.738798,-0.521502,-2.398973,-1.931663,4.470947,2.690779,1.818728,-4.403814,-0.033462,0.394389,-0.050629,-69.384510,188.344834,0
0.105208,23.923785,133.882750,-179.917889,-0.611982,-0.950459,-3.070805,4.012548,1.242533,3.120038,-4.076421,-0.055380,0.395434,-0.054364,-24.370711,188.495776,0
0.106250,-38.902325,167.695748,-133.732435,0.315438,0.885035,-3.771816,2.774480,-0.521827,3.704218,-2.842987,-0.059033,0.375836,-0.050629,17.691178,188.420318,0
0.107292,-90.295195,192.534568,-59.644254,1.785738,2.720529,-4.133750,1.293499,-2.455272,4.223936,-1.442049,-0.143052,0.381520,-0.020755,50.716377,188.495589,0
0.108333,-144.081332,160.189641,-0.446982,2.916738,3.906321,-3.699429,-0.348118,-3.635187,3.788823,0.164461,-0.124787,0.386680,-0.043161,88.638807,188.344800,0
0.109375,-181.931256,114.383447,57.190290,4.059048,4.662531,-2.743159,-2.056339,-4.476934,2.878309,1.900406,-0.164970,0.390012,-0.054364,112.740416,188.495588,0
0.110417,-183.178931,39.440772,112.499381,5.201358,4.527620,-1.215413,-3.435453,-4.296822,1.399730,3.240433,-0.223418,0.393931,-0.043161,120.759206,188.420267,0
0.111458,-159.960833,-24.763672,158.779380,6.128778,3.789162,0.289475,-4.125010,-3.624160,-0.167483,4.020847,-0.245336,0.387334,-0.028224,113.747006,188.495743,0
0.112500,-95.875705,-78.277241,177.156653,6.513318,2.479110,2.148677,-4.544230,-2.322945,-1.956282,4.420571,-0.194194,0.404318,-0.054364,74.422137,188.344907,0
0.113542,-24.009622,-133.377274,180.087562,6.524628,1.016395,3.257340,-4.128928,-0.863672,-3.164929,4.108405,-0.227071,0.413594,-0.009553,30.290518,188.495680,0
0.114583,38.884543,-167.509933,134.043926,5.653758,-0.797797,3.943112,-2.902614,0.930094,-3.785368,2.882585,-0.212459,0.394650,-0.050629,-12.800581,188.420278,0
0.115625,90.186673,-192.194843,59.506654,4.194768,-2.611989,4.312666,-1.405961,2.845160,-4.301058,1.424544,-0.161317,0.380866,-0.043161,-45.757921,188.495817,0
0.116667,143.655221,-160.193255,0.663927,3.018528,-3.797782,3.878344,0.259163,3.973615,-3.878031,-0.143897,-0.124787,0.386223,-0.043161,-83.522010,188.344950,0
0.117708,181.618570,-113.937168,-56.772436,1.898838,-4.585944,2.895406,1.939959,4.811686,-2.935286,-1.895069,-0.084604,0.388444,-0.035692,-108.641519,188.495734,0
0.118750,183.115780,-38.734028,-112.069708,0.813078,-4.447483,1.390518,3.287729,4.716117,-1.428506,-3.212255,-0.099216,0.374073,-0.054364,-116.976989,188.420200,0
0.119792,159.546064,25.304665,-158.727889,-0.114342,-3.751629,-0.068650,4.000794,4.017724,0.086333,-3.981248,-0.059033,0.391841,-0.017021,-110.688629,188.495790,0
0.120833,95.880608,78.723520,-176.975162,-0.498882,-2.423825,-1.946902,4.498373,2.701806,1.854987,-4.419041,-0.059033,0.379560,-0.061832,-71.431620,188.420339,0
0.121875,23.867073,133.574928,-180.059707,-0.600672,-0.993063,-3.105093,4.043892,1.242533,3.091836,-4.148752,-0.051727,0.389881,-0.084238,-24.438571,188.495808,0
0.122917,-39.129175,167.447123,-134.169708,0.281508,0.849532,-3.775625,2.848920,-0.565936,3.728391,-2.892476,-0.091910,0.374465,-0.046895,16.899478,188.420345,0
0.123958,-90.057002,192.735836,-59.691527,1.774428,2.716978,-4.152800,1.352268,-2.458947,4.211850,-1.434435,-0.080951,0.382108,-0.035692,51.055677,188.495682,0
0.125000,-143.457494,160.414588,-0.813345,2.973288,3.916972,-3.729907,-0.348118,-3.591078,3.792852,0.164461,-0.154011,0.389163,-0.020755,88.503087,188.344932,0
0.126042,-182.078709,114.359768,56.670290,4.115598,4.669631,-2.777447,-2.032831,-4.521043,2.930683,1.927054,-0.183235,0.392560,-0.028224,113.328536,188.495738,0
0.127083,-183.224301,39.464450,112.192108,5.212668,4.531170,-1.276370,-3.396274,-4.344607,1.419874,3.221399,-0.194194,0.396544,-0.050629,122.681906,188.420303,0
