1-Time,2-VGERA,3-VGERB,4-VGERC,5-VN,6-IGERAN,7-IGERBN,8-IGERCN,9-IGERAT,10-IGERBT,11-IGERCT,12-IN,13-IFD,14-IFAULT,15-VFAULT,16-Speed (rad/s),17-Active Power,18-Reactive Power,19-FAULT 
0.000000,-116.326233,-65.403122,185.742046,6.354978,2.890942,1.712934,-4.296476,-2.786089,-1.568331,4.203921,-0.201500,0.400725,-0.039427,24.906958,188.495890,1178.945389,10.410679,0
0.001042,-41.567813,-122.787416,189.127463,6.468078,1.364322,3.185279,-4.154684,-1.227571,-2.999403,4.029586,-0.201500,0.397982,-0.013287,-0.857222,188.352270,1181.025504,10.137494,0
0.002083,26.657328,-165.565897,158.646402,5.868648,-0.243954,4.050430,-3.266618,0.397111,-3.956249,3.264649,-0.245336,0.396218,-0.050629,-19.371691,188.269722,1181.210201,9.130208,0
0.003125,79.842313,-187.939731,87.404925,4.534068,-2.146903,4.447289,-1.781533,2.253364,-4.371721,1.813048,-0.150358,0.385570,-0.028224,-38.949301,188.420519,1182.505134,7.820916,0
0.004167,135.046263,-182.165059,16.409659,3.210798,-3.268791,4.050430,-0.341224,3.492092,-4.052773,0.450392,-0.139399,0.386484,-0.050629,-52.589160,188.497446,1182.687117,6.993484,0
0.005208,171.489717,-135.593174,-48.110227,2.011938,-4.092455,3.034473,1.378937,4.282378,-3.070747,-1.225354,-0.106522,0.383675,-0.046895,-65.120640,188.495589,1184.697832,5.355928,0
0.006250,191.985615,-57.248512,-101.710606,0.960108,-4.372927,1.708966,2.804321,4.635250,-1.715215,-2.666281,-0.110175,0.366952,-0.043161,-62.406240,188.269546,1184.988897,4.000119,0
0.007291,162.359004,5.717160,-157.773107,-0.091722,-3.900740,0.173124,3.718506,4.087564,-0.254766,-3.505933,-0.062686,0.358460,-0.069301,-42.093481,188.420184,1186.316158,3.271915,0
0.008333,115.242257,65.952547,-185.841288,-0.589362,-2.800154,-1.580990,4.166271,3.124517,1.537222,-4.036052,-0.084604,0.358133,-0.017021,-17.347201,188.495622,1186.158268,3.339291,0
0.009375,40.461151,122.599906,-189.288258,-0.691152,-1.298386,-3.029523,4.031941,1.602757,2.943114,-3.858160,-0.066339,0.383610,-0.054364,4.628128,188.495712,1186.490512,3.822781,0
0.010416,-27.174179,165.777057,-158.647160,-0.125652,0.306339,-3.898643,3.151338,-0.040304,3.967107,-3.111012,-0.080951,0.392494,-0.024490,24.624208,188.269519,1186.763002,4.128454,0
0.011458,-79.973519,187.607250,-87.381061,1.242858,2.198638,-4.335187,1.725955,-1.907585,4.311236,-1.705663,-0.110175,0.390861,-0.035692,43.342257,188.420303,1186.990562,3.796561,0
0.012500,-135.166127,182.738646,-16.225758,2.577438,3.356028,-3.950235,0.293109,-3.157340,4.021664,-0.303871,-0.124787,0.386942,-0.058098,57.886917,188.495691,1186.382041,3.443389,0
0.013541,-171.280648,133.629771,48.010985,3.810228,4.161941,-2.902528,-1.490486,-3.874111,3.006065,1.339854,-0.154011,0.387660,-0.017021,69.287397,188.420267,1185.677976,3.353088,0
0.014583,-192.774687,58.401982,101.746781,4.828128,4.477916,-1.604802,-2.908407,-4.315201,1.717680,2.816360,-0.201500,0.395499,-0.009553,68.507007,188.344809,1185.360525,2.937860,0
0.015625,-162.807800,-4.587851,157.858523,5.868648,3.980877,-0.053085,-3.811398,-3.767514,0.223657,3.645339,-0.230724,0.404057,-0.017021,46.972767,188.420204,1185.499169,3.139419,0
0.016666,-116.382946,-64.956129,186.197538,6.411528,2.926445,1.689123,-4.318865,-2.797116,-1.547347,4.211036,-0.238030,0.404514,-0.065566,26.139748,188.495696,1185.652608,3.334653,0
0.017708,-42.180308,-122.207533,188.979735,6.445458,1.399825,3.157499,-4.165878,-1.256977,-3.024583,4.018913,-0.212459,0.401509,-0.054364,1.178578,188.420245,1185.740789,3.156939,0
0.018750,25.670530,-165.940405,159.040341,5.913888,-0.219102,4.006776,-3.281544,0.371380,-3.981429,3.307343,-0.219765,0.406213,-0.058098,-19.066321,188.269548,1186.528522,3.339784,0
0.019791,79.615463,-187.009502,88.820644,4.567998,-2.093649,4.447289,-1.822578,2.205580,-4.346541,1.866415,-0.190541,0.392821,-0.050629,-39.277291,188.420336,1186.182220,3.968764,0
0.020833,135.420565,-182.539567,17.554546,3.233418,-3.293643,4.094085,-0.423314,3.495768,-4.115723,0.468182,-0.113828,0.393735,-0.073035,-54.172560,188.495721,1187.111523,4.162427,0
0.021875,171.115414,-133.974333,-47.322349,2.034558,-4.078254,3.058284,1.367743,4.208863,-3.121107,-1.164870,-0.106522,0.392886,-0.031958,-64.340250,188.420325,1186.066295,5.566782,0
0.022916,192.348575,-59.012324,-101.809091,0.960108,-4.376478,1.748652,2.815515,4.660981,-1.761378,-2.652050,-0.095563,0.396610,-0.054364,-65.041470,188.269413,1186.774583,5.801365,0
0.023958,162.495114,4.291613,-158.216288,-0.114342,-3.879439,0.192967,3.729700,4.080212,-0.275749,-3.473913,-0.059033,0.401966,-0.035692,-43.642951,188.420361,1186.526057,5.845114,0
0.025000,116.546644,65.227693,-186.112122,-0.679842,-2.842757,-1.553210,4.222241,3.150247,1.528829,-4.043168,-0.051727,0.404971,-0.073035,-19.597891,188.495667,1186.994392,5.704242,0
0.026041,42.151184,122.491178,-189.115910,-0.702462,-1.301937,-3.057303,4.035673,1.580702,3.014458,-3.907970,-0.040768,0.402946,-0.076769,3.994768,188.420345,1188.157207,4.573817,0
0.027083,-26.073957,165.777057,-159.041099,-0.148272,0.324091,-3.966109,3.166263,-0.084413,3.992287,-3.125244,-0.051727,0.399157,-0.046895,24.431938,188.269420,1188.670392,3.692444,0
0.028125,-79.644587,187.860949,-87.651894,1.220238,2.266093,-4.370905,1.714761,-1.903909,4.357400,-1.741241,-0.121134,0.389163,-0.076769,43.285707,188.420213,1189.456284,3.943624,0
0.029166,-135.075387,182.762808,-16.681250,2.520888,3.434134,-3.981983,0.225944,-3.205125,4.122385,-0.261177,-0.128440,0.387464,-0.035692,57.762507,188.420249,1190.881347,3.407716,0
0.030208,-171.813746,133.521043,47.469318,3.731058,4.247148,-2.898560,-1.553920,-3.980708,3.035441,1.375432,-0.175929,0.387138,-0.043161,70.463637,188.495716,1192.466609,2.832196,0
0.031250,-192.649919,58.039555,101.365152,4.771578,4.524070,-1.565116,-3.009154,-4.377689,1.696696,2.862612,-0.230724,0.388509,-0.050629,68.133777,188.269487,1193.267611,2.267023,0
0.032291,-162.762430,-5.143573,158.129357,5.857338,4.019930,0.002475,-3.941996,-3.818975,0.152314,3.741401,-0.223418,0.400529,-0.024490,47.176347,188.420309,1194.794238,1.338127,0
0.033333,-116.065356,-65.294394,186.000569,6.388908,2.929995,1.708966,-4.367372,-2.797116,-1.543150,4.250173,-0.212459,0.370741,-0.050629,24.816478,188.420162,1195.154003,1.465489,0
0.034375,-41.046058,-122.364585,189.656819,6.513318,1.343021,3.224965,-4.184535,-1.179786,-3.091730,4.065165,-0.205153,0.362902,-0.054364,-0.811982,188.495662,1196.071342,0.480400,0
0.035416,26.759410,-165.457169,158.978788,5.925198,-0.268806,4.054399,-3.315126,0.474301,-4.010806,3.296670,-0.179582,0.358068,-0.061832,-19.202041,188.269416,1196.296756,-0.633708,0
0.036458,79.286530,-188.338401,87.638826,4.590618,-2.164654,4.467132,-1.856160,2.253364,-4.417885,1.837953,-0.172276,0.390273,-0.061832,-38.779651,188.495767,1197.392477,-1.202075,0
0.037500,134.558535,-182.575810,16.705114,3.278658,-3.343347,4.121865,-0.356150,3.561931,-4.128313,0.418372,-0.157664,0.387856,-0.046895,-52.589160,188.420334,1197.842021,-2.139578,0
0.038541,171.433004,-133.430693,-47.199243,2.045868,-4.120858,3.117813,1.390131,4.308109,-3.108517,-1.243143,-0.091910,0.387530,-0.020755,-65.109330,188.495718,1199.017789,-3.350148,0
0.039583,192.212465,-57.864638,-101.279735,1.016658,-4.422631,1.712934,2.852828,4.716117,-1.799149,-2.684071,-0.113828,0.372962,-0.039427,-62.519340,188.269494,1199.780888,-2.996883,0
0.040625,162.744649,4.726526,-157.785417,-0.080412,-3.925592,0.169155,3.770745,4.124321,-0.225389,-3.530838,-0.077298,0.394454,-0.061832,-42.387541,188.495803,1200.753257,-3.640107,0
0.041666,115.945492,65.070641,-186.038258,-0.611982,-2.871160,-1.592896,4.207316,3.135544,1.558206,-4.146346,-0.073645,0.392037,-0.046895,-17.957941,188.420242,1201.829192,-4.170417,0
0.042708,41.652114,122.261641,-189.399054,-0.725082,-1.330339,-3.065240,4.106569,1.588054,2.997671,-3.907970,-0.066339,0.397132,-0.050629,4.040008,188.495803,1201.699291,-3.888806,0
0.043750,-25.790394,165.849542,-159.078031,-0.159582,0.309890,-3.958172,3.225965,-0.047655,3.971304,-3.157264,-0.080951,0.399680,-0.058098,24.239668,188.269431,1201.751522,-3.231409,0
0.044791,-79.224914,187.655574,-88.353599,1.220238,2.212839,-4.378842,1.718492,-1.900233,4.361596,-1.694989,-0.106522,0.393474,-0.039427,43.285707,188.495734,1201.476763,-3.931359,0
0.045833,-135.222839,182.883617,-17.579924,2.543508,3.395081,-3.954203,0.259526,-3.212476,4.097205,-0.339450,-0.128440,0.391057,-0.013287,57.954777,188.420195,1201.483983,-3.404109,0
0.046875,-171.586896,134.354626,46.915341,3.719748,4.218746,-2.930309,-1.527800,-3.943950,3.039638,1.357643,-0.190541,0.389620,-0.065566,69.400497,188.495731,1201.124807,-3.364180,0
0.047916,-192.820057,59.815448,101.291288,4.771578,4.520520,-1.561147,-2.930795,-4.370337,1.696696,2.841265,-0.172276,0.395565,-0.065566,68.552247,188.269519,1201.123371,-3.633567,0
0.048958,-163.136733,-3.319356,157.796970,5.800788,3.984428,-0.017368,-3.897220,-3.774866,0.206871,3.677359,-0.234377,0.400987,-0.043161,47.006697,188.495709,1200.069861,-3.444476,0
0.050000,-117.040811,-64.219194,186.419129,6.377598,2.958397,1.720872,-4.344984,-2.848577,-1.555740,4.232383,-0.259948,0.402620,-0.080503,25.992718,188.420343,1200.468374,-3.563891,0
0.051041,-42.906228,-121.820944,189.299811,6.434148,1.414026,3.197185,-4.173341,-1.238598,-3.053960,4.058049,-0.216112,0.402620,-0.020755,1.099408,188.495541,1200.246283,-3.202698,0
0.052083,25.262200,-165.831677,159.261932,5.891268,-0.229753,4.094085,-3.344977,0.386083,-4.027593,3.321575,-0.216112,0.397067,-0.091706,-18.987151,188.269434,1200.674722,-2.526924,0
0.053125,79.116393,-187.444414,88.599053,4.579308,-2.157554,4.475069,-1.822578,2.231310,-4.388508,1.855742,-0.186888,0.389816,-0.039427,-38.971921,188.495564,1200.171393,-2.396235,0
0.054166,134.876125,-182.877833,17.320644,3.210798,-3.297193,4.125833,-0.356150,3.528850,-4.124116,0.432603,-0.121134,0.388379,-0.050629,-54.025530,188.420311,1200.013774,-2.142464,0
0.055208,171.058702,-133.744796,-47.223864,2.011938,-4.127958,3.070190,1.442371,4.286054,-3.066550,-1.204006,-0.128440,0.387726,-0.076769,-64.453350,188.495593,1199.280648,-2.051852,0
0.056250,192.371260,-58.190822,-101.132008,0.971418,-4.426182,1.744683,2.856560,4.705090,-1.723608,-2.708976,-0.080951,0.390535,-0.024490,-65.120640,188.269474,1199.045806,-3.214915,0
0.057291,162.642566,4.919820,-157.723864,-0.080412,-3.897190,0.173124,3.785671,4.116970,-0.258962,-3.534396,-0.062686,0.387072,-0.013287,-43.597711,188.420289,1198.969843,-2.831168,0
0.058333,116.081602,65.191450,-186.272160,-0.544122,-2.860509,-1.604802,4.218510,3.161275,1.566599,-4.124999,-0.073645,0.377796,-0.050629,-19.383001,188.420312,1199.040746,-2.649732,0
0.059375,41.107674,122.201236,-189.559091,-0.679842,-1.291286,-3.124769,4.080449,1.599081,3.027048,-3.890181,-0.091910,0.363621,-0.050629,4.085248,188.495788,1199.091071,-2.702667,0
0.060416,-26.493629,165.607924,-159.151894,-0.125652,0.373795,-3.993889,3.203577,-0.069710,4.034254,-3.182169,-0.059033,0.367605,-0.058098,24.273598,188.269447,1199.987325,-2.904414,0
0.061458,-79.281627,188.175053,-87.368750,1.254168,2.283844,-4.394716,1.733417,-1.962721,4.382580,-1.712779,-0.102869,0.386484,-0.058098,43.082128,188.420350,1200.708495,-3.107075,0
0.062500,-134.621687,182.980264,-16.545833,2.532198,3.469637,-4.005795,0.252064,-3.249234,4.101401,-0.278966,-0.150358,0.387922,-0.050629,57.762507,188.420388,1200.853876,-3.906327,0
0.063541,-171.768376,133.484801,47.161553,3.764988,4.289751,-2.985869,-1.580039,-3.962329,3.064818,1.418127,-0.175929,0.385635,-0.024490,70.531497,188.495647,1201.332275,-4.208493,0
0.064583,-192.797372,58.148283,101.032765,4.794198,4.577324,-1.569084,-2.975571,-4.396068,1.692500,2.915980,-0.197847,0.392233,-0.061832,68.156397,188.269472,1201.894860,-4.558862,0
0.065625,-162.909883,-4.539528,157.981629,5.868648,4.055433,0.022318,-3.975579,-3.830002,0.185887,3.773421,-0.230724,0.390861,-0.050629,47.425167,188.420341,1203.392252,-4.693925,0
0.066666,-116.451001,-64.569540,186.111364,6.411528,2.986799,1.780400,-4.419612,-2.778738,-1.639674,4.278635,-0.223418,0.384655,-0.039427,25.268878,188.420303,1203.639524,-6.078677,0
0.067708,-41.896745,-121.953834,189.656819,6.502008,1.389174,3.284494,-4.251700,-1.194489,-3.095927,4.090070,-0.238030,0.389685,-0.065566,-0.201242,188.495743,1204.225467,-6.547524,0
0.068750,25.545763,-165.396765,159.311175,5.913888,-0.254605,4.133771,-3.352440,0.448571,-4.094740,3.321575,-0.223418,0.390012,-0.061832,-18.840121,188.344863,1204.920486,-7.532374,0
0.069791,78.492555,-188.326320,88.599053,4.545378,-2.185956,4.566346,-1.822578,2.326879,-4.464049,1.830837,-0.175929,0.394258,-0.061832,-38.677861,188.344874,1206.326280,-8.895634,0
0.070833,134.467795,-182.624134,18.182386,3.267348,-3.339796,4.102022,-0.311373,3.580310,-4.132510,0.421930,-0.128440,0.389620,-0.054364,-52.600470,188.420271,1206.718529,-9.626061,0
0.071875,171.795964,-133.962252,-46.226705,2.068488,-4.191863,3.050347,1.427445,4.352218,-3.100123,-1.236027,-0.073645,0.389489,-0.043161,-65.211120,188.495682,1207.965819,-10.156000,0
0.072916,192.393945,-59.471398,-100.848864,0.982728,-4.475885,1.693092,2.864022,4.730820,-1.744592,-2.744554,-0.099216,0.392886,-0.054364,-62.587200,188.344927,1208.699502,-10.615878,0
0.073958,163.028211,3.458031,-157.920834,-0.125652,-3.939793,0.161218,3.796865,4.120645,-0.212799,-3.569975,-0.055380,0.402097,-0.065566,-42.455401,188.344901,1209.242225,-11.769935,0
0.075000,117.057057,64.212897,-186.346023,-0.634602,-2.856959,-1.616707,4.248361,3.142896,1.562402,-4.146346,-0.022503,0.404057,-0.043161,-18.014491,188.420294,1209.440253,-12.381282,0
0.076041,42.684281,121.911294,-189.596023,-0.668532,-1.301937,-3.124769,4.061792,1.573351,3.077408,-3.947106,-0.073645,0.401836,-0.050629,4.028698,188.495772,1210.504140,-13.394505,0
0.077083,-24.996419,165.777057,-159.299622,-0.125652,0.366694,-3.993889,3.199846,-0.113819,4.017468,-3.175054,-0.088257,0.399484,-0.043161,24.137878,188.344853,1210.351022,-14.295642,0
0.078125,-78.635104,188.054244,-88.316667,1.174998,2.273193,-4.386779,1.696104,-1.914936,4.399367,-1.702105,-0.088257,0.389293,-0.043161,43.059508,188.344934,1210.217491,-14.311223,0
0.079166,-134.927934,183.101073,-17.358333,2.509578,3.427034,-3.985952,0.225944,-3.274964,4.109795,-0.275408,-0.099216,0.387268,-0.031958,57.785127,188.420229,1210.639977,-14.670630,0
0.080208,-171.541526,134.076765,46.681440,3.708438,4.300402,-2.962057,-1.580039,-3.984384,3.048032,1.403895,-0.197847,0.385962,-0.035692,69.513597,188.495676,1210.719030,-14.969116,0
0.081250,-193.024222,58.897299,100.663447,4.760268,4.527620,-1.573053,-3.009154,-4.407095,1.709287,2.905307,-0.190541,0.390926,-0.046895,68.552247,188.344795,1210.927453,-14.944570,0
0.082291,-163.216130,-4.140858,157.464584,5.823408,4.037682,0.034224,-3.960653,-3.807948,0.177494,3.712938,-0.238030,0.397394,-0.043161,46.904907,188.420291,1210.054019,-15.005632,0
0.083333,-116.439658,-64.219194,186.554546,6.422838,2.954847,1.752620,-4.378567,-2.804468,-1.622888,4.296425,-0.238030,0.397132,-0.058098,25.676038,188.420367,1210.451942,-14.708034,0
0.084375,-41.828690,-121.410193,189.829167,6.502008,1.371423,3.288462,-4.210655,-1.227571,-3.100123,4.040260,-0.201500,0.405167,-0.069301,0.952378,188.495720,1209.959960,-14.626974,0
0.085416,25.806640,-165.686706,159.335796,5.891268,-0.290107,4.141708,-3.333783,0.404462,-4.082150,3.342922,-0.197847,0.410720,-0.050629,-18.851431,188.344990,1210.059413,-13.819632,0
0.086458,78.560610,-188.060541,88.180493,4.556688,-2.235660,4.542535,-1.822578,2.326879,-4.459852,1.845068,-0.150358,0.390796,-0.069301,-38.723101,188.420312,1209.983104,-13.561983,0
0.087500,134.184233,-183.155694,17.209849,3.244728,-3.389500,4.161551,-0.318836,3.631771,-4.157690,0.400582,-0.135746,0.388248,-0.031958,-53.855880,188.420367,1210.728697,-13.922111,0
0.088541,171.138099,-133.539421,-46.706818,2.045868,-4.238017,3.062253,1.461027,4.396327,-3.100123,-1.296510,-0.080951,0.386223,-0.058098,-64.623000,188.495754,1211.163618,-14.611792,0
0.089583,192.632138,-57.997528,-100.405682,1.016658,-4.472335,1.701029,2.901336,4.738171,-1.769772,-2.780133,-0.084604,0.394127,-0.050629,-65.131950,188.344910,1211.437317,-14.391960,0
0.090625,162.790019,4.702364,-157.650000,-0.080412,-3.968196,0.073909,3.860298,4.175782,-0.208602,-3.626900,-0.055380,0.407911,-0.058098,-43.699501,188.344992,1212.432325,-14.143209,0
0.091666,116.433219,64.539081,-186.518372,-0.600672,-2.896012,-1.616707,4.293137,3.161275,1.604369,-4.178366,-0.051727,0.421629,-0.061832,-19.778851,188.420368,1213.080980,-14.263703,0
0.092708,41.618086,121.923375,-189.953031,-0.713772,-1.316138,-3.208109,4.128957,1.525566,3.069015,-3.979127,-0.066339,0.417252,-0.058098,3.564988,188.495689,1213.219323,-14.366629,0
0.093750,-25.552202,165.632086,-159.607387,-0.148272,0.380895,-4.069292,3.244622,-0.099116,4.076221,-3.231979,-0.062686,0.401705,-0.043161,23.934298,188.344941,1214.398617,-13.978333,0
0.094791,-78.544364,188.634127,-88.008902,1.208928,2.308696,-4.505836,1.752074,-2.006830,4.437137,-1.691431,-0.113828,0.392756,-0.095440,43.127368,188.344876,1215.381095,-14.956622,0
0.095833,-134.599002,183.028588,-17.863068,2.543508,3.508690,-4.057386,0.184899,-3.352155,4.155958,-0.286082,-0.102869,0.393278,-0.054364,57.886917,188.420410,1216.495676,-15.372605,0
0.096875,-172.346843,134.040522,45.930493,3.719748,4.396260,-3.001743,-1.587502,-4.054223,3.073212,1.411011,-0.161317,0.393213,-0.073035,70.735077,188.495622,1217.632516,-15.586890,0
0.097916,-192.899454,59.694639,100.589584,4.737648,4.609277,-1.573053,-3.031542,-4.484286,1.721877,2.962232,-0.186888,0.396218,-0.061832,68.133777,188.420206,1219.002177,-16.112349,0
0.098958,-163.442980,-2.811958,158.055493,5.834718,4.115788,0.022318,-4.001698,-3.874111,0.152314,3.801884,-0.227071,0.402162,-0.065566,47.549577,188.344883,1220.762810,-16.907560,0
0.100000,-117.823443,-63.458097,186.246781,6.343668,2.979699,1.851835,-4.449463,-2.833874,-1.673248,4.367582,-0.248989,0.404971,-0.043161,25.393288,188.420305,1222.115431,-17.809301,0
0.101041,-43.212475,-121.591407,189.952273,6.456768,1.364322,3.359897,-4.274088,-1.227571,-3.171467,4.189689,-0.252642,0.403338,-0.076769,-0.020282,188.495671,1224.581285,-18.319319,0
0.102083,24.468225,-165.312198,159.631250,5.925198,-0.325610,4.217111,-3.337514,0.477977,-4.178673,3.364269,-0.208806,0.398831,-0.069301,-18.636541,188.420305,1225.826638,-19.912909,0
0.103125,77.755293,-188.906204,88.599053,4.567998,-2.264062,4.602064,-1.807653,2.378340,-4.526999,1.848626,-0.201500,0.394585,-0.073035,-38.474281,188.269532,1227.081392,-20.701785,0
0.104166,134.252288,-182.805347,18.280871,3.222108,-3.460506,4.161551,-0.266597,3.712637,-4.229034,0.389909,-0.164970,0.389555,-0.054364,-52.555230,188.420198,1228.484356,-21.337217,0
0.105208,172.238322,-133.865605,-45.758902,2.034558,-4.312573,3.113845,1.524461,4.429408,-3.142090,-1.324973,-0.102869,0.389163,-0.061832,-65.539110,188.495740,1229.556121,-21.637690,0
0.106250,192.530055,-58.903596,-100.147159,1.016658,-4.497187,1.704997,2.957307,4.778605,-1.782362,-2.819269,-0.106522,0.394062,-0.054364,-62.621130,188.495694,1230.371307,-22.108486,0
0.107291,163.357144,3.905024,-157.588447,-0.069102,-3.989497,0.105658,3.905075,4.227242,-0.208602,-3.680268,-0.077298,0.404122,-0.058098,-42.398851,188.344959,1231.558668,-22.457180,0
0.108333,116.728124,64.043764,-186.518372,-0.611982,-2.874710,-1.704016,4.349108,3.164950,1.629549,-4.192598,-0.066339,0.400856,-0.054364,-17.686501,188.420350,1231.862651,-22.912176,0
0.109375,41.890306,121.440139,-190.322349,-0.725082,-1.294836,-3.235890,4.196122,1.565999,3.165539,-4.000474,-0.088257,0.406017,-0.080503,4.130488,188.495622,1233.041266,-23.408526,0
0.110416,-25.563544,165.523358,-159.558144,-0.148272,0.441250,-4.093104,3.244622,-0.150576,4.109795,-3.199958,-0.091910,0.403861,-0.028224,24.036088,188.495682,1233.116607,-24.368730,0
0.111458,-78.147377,188.839503,-87.639584,1.208928,2.369051,-4.485993,1.703566,-2.025209,4.462317,-1.698547,-0.110175,0.388901,-0.061832,42.799378,188.344976,1233.511318,-24.496942,0
