1-Time,2-VGERA,3-VGERB,4-VGERC,5-VN,6-IGERAN,7-IGERBN,8-IGERCN,9-IGERAT,10-IGERBT,11-IGERCT,12-IN,13-IFD,14-IFAULT,15-VFAULT,16-Speed (rad/s),17-FAULT 
0.000000,148.623236,-149.087544,13.787500,3.199488,-5.764636,0.921908,5.199684,6.289338,-0.961162,-4.990076,0.010374,0.180384,-0.005818,11.074828,188.571129,0
0.001042,200.016106,-89.299150,-36.168940,2.238138,-4.525589,-1.405905,6.128235,5.072665,1.379586,-6.033165,0.014027,0.185283,-0.024490,6.505588,188.495595,0
0.002083,174.983207,-42.533971,-114.045834,0.767838,-2.793054,-3.287966,6.183086,3.352414,3.236874,-6.147372,0.024986,0.197499,-0.046895,2.547088,188.721851,0
0.003125,130.588660,-0.069593,-186.001326,-0.611982,-0.883004,-4.484256,5.313304,1.426321,4.546242,-5.370765,-0.022503,0.199198,-0.024490,-2.949571,188.721820,0
0.004167,79.365928,58.220769,-196.957766,-0.826872,1.832959,-5.417667,3.479708,-1.242274,5.428555,-3.509193,-0.037115,0.203901,-0.050629,-10.696921,188.570989,0
0.005208,31.772796,142.472993,-172.127273,-0.363162,3.863718,-5.539582,1.520739,-3.319073,5.666256,-1.693304,-0.102869,0.182670,-0.009553,-16.544191,188.495593,0
0.006250,-10.546074,188.247538,-111.706819,0.756528,5.163120,-4.236616,-1.151295,-4.646019,4.397176,0.986751,-0.164970,0.190509,-0.031958,-16.679911,188.721768,0
0.007292,-82.446184,194.722903,-59.214394,1.740498,6.324061,-2.826975,-3.623514,-5.803880,3.023346,3.480267,-0.205153,0.173851,-0.039427,-10.312381,188.646569,0
0.008333,-149.718555,148.863791,-14.046780,2.622678,5.901578,-0.716323,-5.269048,-5.469387,0.944472,5.132460,-0.212459,0.182278,-0.043161,-5.471701,188.571085,0
0.009375,-200.396847,90.211002,37.042235,3.572718,4.669631,1.603870,-6.225026,-4.241686,-1.331814,6.099412,-0.270907,0.187439,-0.013287,-1.603682,188.495671,0
0.010417,-175.000988,42.829697,114.771402,5.076948,2.866090,3.543078,-6.283795,-2.484678,-3.313996,6.175550,-0.230724,0.197760,0.001650,1.857178,188.721866,0
0.011458,-130.969401,0.196187,186.012879,6.422838,0.966691,4.708890,-5.382669,-0.518151,-4.579047,5.425591,-0.223418,0.196715,-0.046895,8.021128,188.721833,0
0.012500,-79.304312,-58.239146,196.735417,6.649038,-1.767023,5.562294,-3.505976,2.135740,-5.433158,3.552599,-0.223418,0.199590,-0.028224,15.463108,188.571027,0
0.013542,-31.972057,-142.624261,171.978788,6.196638,-3.758729,5.741357,-1.566596,4.230918,-5.686974,1.645344,-0.168623,0.192730,-0.013287,21.615748,188.495595,0
0.014583,10.573662,-188.181350,111.595265,5.054328,-5.043930,4.400293,1.148535,5.510079,-4.373577,-0.973801,-0.121134,0.188680,-0.039427,21.378238,188.721813,0
0.015625,82.609883,-194.318449,59.410606,4.070358,-6.187120,2.960173,3.569821,6.708374,-2.991690,-3.482545,-0.048074,0.174243,-0.031958,15.700618,188.646504,0
0.016667,149.530636,-148.555984,13.849053,3.210798,-5.743335,0.906669,5.164422,6.256256,-0.981306,-5.031952,0.014027,0.183585,-0.024490,10.837318,188.571089,0
0.017708,199.925366,-88.936723,-37.067614,2.204208,-4.532690,-1.413524,6.116481,5.050610,1.311096,-6.014131,-0.000585,0.185937,-0.017021,6.663928,188.495653,0
0.018750,174.574877,-41.966168,-114.796781,0.733908,-2.789503,-3.291776,6.171332,3.319332,3.244932,-6.151179,0.032292,0.196258,-0.024490,2.592328,188.721797,0
0.019792,130.361810,0.449886,-186.173675,-0.566742,-0.861702,-4.488066,5.321140,1.415293,4.530127,-5.359345,-0.029809,0.190379,-0.043161,-3.107911,188.646534,0
0.020833,79.002968,58.993946,-196.883902,-0.826872,1.893314,-5.406237,3.464037,-1.282707,5.432584,-3.505386,-0.062686,0.194625,-0.005818,-10.821331,188.571015,0
0.021875,31.716083,143.125362,-171.770266,-0.374472,3.881469,-5.524342,1.536411,-3.352155,5.682371,-1.605745,-0.062686,0.193188,-0.031958,-16.238821,188.495517,0
0.022917,-10.909034,188.392509,-111.300569,0.790458,5.227025,-4.209947,-1.190474,-4.653370,4.352859,1.017206,-0.157664,0.190575,-0.050629,-16.431091,188.721817,0
0.023958,-83.296872,194.505447,-58.709659,1.763118,6.348913,-2.807926,-3.674447,-5.803880,3.019317,3.514530,-0.197847,0.174374,-0.017021,-9.814741,188.646487,0
0.025000,-149.956747,148.561769,-13.369697,2.633988,5.944181,-0.712514,-5.241623,-5.454684,0.972674,5.098198,-0.238030,0.183389,-0.031958,-4.035331,188.570930,0
0.026042,-200.635039,89.727766,37.719318,3.584028,4.662531,1.581011,-6.197600,-4.215956,-1.380160,6.103219,-0.256295,0.190771,-0.020755,-1.343552,188.571038,0
0.027083,-174.864878,42.020276,115.300758,5.099568,2.894492,3.508790,-6.287713,-2.503056,-3.257592,6.198391,-0.270907,0.197826,-0.043161,2.060758,188.721860,0
0.028125,-130.209454,-0.407859,186.677652,6.411528,0.998644,4.735559,-5.394423,-0.587991,-4.575018,5.410364,-0.245336,0.209454,-0.031958,8.009818,188.646422,0
0.029167,-78.816584,-58.976081,196.649243,6.603798,-1.745722,5.604202,-3.525566,2.143092,-5.461360,3.541178,-0.234377,0.196454,-0.073035,15.497038,188.571029,0
0.030208,-31.507015,-143.300791,171.671023,6.151398,-3.751629,5.752786,-1.582268,4.205188,-5.711147,1.671992,-0.161317,0.195213,-0.017021,21.434788,188.646400,0
0.031250,11.163472,-188.302159,110.967425,5.031708,-5.082983,4.388863,1.089766,5.524782,-4.389692,-0.943346,-0.117481,0.188419,-0.031958,20.959768,188.721751,0
0.032292,83.539968,-194.270125,58.770455,4.059048,-6.211972,3.024940,3.565903,6.693671,-3.056151,-3.414021,-0.069992,0.176203,-0.017021,15.225598,188.571129,0
0.033333,149.791513,-147.746564,12.975000,3.210798,-5.746885,0.933338,5.187930,6.285662,-0.957133,-5.073828,-0.011544,0.180515,-0.020755,10.803388,188.571111,0
0.034375,200.288326,-89.274988,-37.424621,2.170278,-4.529140,-1.405905,6.120399,5.076340,1.319153,-6.078848,0.010374,0.190117,-0.005818,6.550828,188.646536,0
0.035417,174.234602,-41.217152,-115.646212,0.733908,-2.793054,-3.268917,6.222266,3.323008,3.244932,-6.158793,0.024986,0.209127,-0.046895,2.456608,188.721911,0
0.036458,129.874082,1.223063,-186.530682,-0.600672,-0.836850,-4.503305,5.321140,1.422645,4.534156,-5.366959,-0.026156,0.213438,0.005384,-3.221011,188.571044,0
0.037500,78.038855,59.815448,-196.859281,-0.838182,1.847160,-5.417667,3.475791,-1.264329,5.384238,-3.505386,-0.051727,0.200504,-0.043161,-10.855261,188.571031,0
0.038542,30.683916,143.439465,-171.671781,-0.374472,3.870819,-5.585300,1.516821,-3.337452,5.722659,-1.655235,-0.095563,0.193188,-0.024490,-16.544191,188.722032,0
0.039583,-11.464816,189.177768,-110.094129,0.835698,5.234126,-4.270905,-1.194392,-4.660722,4.409262,1.005785,-0.172276,0.191620,0.001650,-16.702531,188.721800,0
0.040625,-83.954737,194.179262,-58.094129,1.740498,6.334712,-2.868883,-3.670530,-5.851665,3.027375,3.510723,-0.234377,0.176464,-0.031958,-10.131421,188.571169,0
0.041667,-151.227107,147.414083,-13.098864,2.611368,5.933530,-0.781091,-5.327818,-5.480414,0.956559,5.132460,-0.234377,0.182736,-0.031958,-5.155021,188.571105,0
0.042708,-200.646382,89.353258,38.027083,3.606648,4.708684,1.615299,-6.268123,-4.241686,-1.351958,6.160322,-0.263601,0.191293,-0.028224,-1.626302,188.721998,0
0.043750,-174.309096,41.102128,116.359470,5.099568,2.951297,3.531649,-6.373907,-2.547165,-3.297880,6.251688,-0.267254,0.199067,-0.009553,1.902418,188.722079,0
0.044792,-129.993946,-1.277684,186.677652,6.411528,0.980892,4.731749,-5.445356,-0.584315,-4.635450,5.478888,-0.230724,0.217619,-0.024490,8.315188,188.570984,0
0.045833,-77.909184,-59.954634,197.030872,6.637728,-1.735071,5.657540,-3.623514,2.113686,-5.441215,3.571633,-0.201500,0.219579,-0.020755,15.621448,188.570993,0
0.046875,-30.440820,-143.566571,171.572538,6.151398,-3.765830,5.764216,-1.625366,4.230918,-5.719204,1.717675,-0.168623,0.195735,-0.020755,21.559198,188.721904,0
0.047917,11.844022,-189.606896,109.773296,5.009088,-5.114936,4.430771,1.074094,5.561539,-4.438038,-0.931925,-0.102869,0.192012,-0.017021,21.389548,188.721846,0
0.048958,84.163805,-193.835213,57.982576,4.070358,-6.211972,3.024940,3.542396,6.723077,-3.084353,-3.417828,-0.059033,0.177314,-0.020755,15.485728,188.571161,0
0.050000,151.027846,-146.912981,12.876515,3.188178,-5.846293,0.948577,5.199684,6.348150,-0.989364,-5.104283,-0.026156,0.186590,-0.002084,10.407538,188.570593,0
0.051042,200.186243,-88.525972,-38.163258,2.170278,-4.593045,-1.394475,6.159579,5.127801,1.303038,-6.036972,-0.004238,0.194755,-0.061832,6.652618,188.721884,0
0.052083,173.962382,-40.443974,-116.655682,0.733908,-2.864059,-3.291776,6.300624,3.378144,3.232845,-6.204476,0.003068,0.203117,-0.028224,2.569708,188.721780,0
0.053125,129.465752,1.851270,-186.776895,-0.589362,-0.865253,-4.518544,5.368155,1.415293,4.505954,-5.462131,-0.029809,0.216247,-0.035692,-3.390661,188.571002,0
0.054167,77.199510,60.528221,-197.142425,-0.838182,1.822308,-5.444336,3.581575,-1.242274,5.448699,-3.604366,-0.055380,0.205207,-0.050629,-10.990981,188.570870,0
0.055208,30.037393,144.079753,-171.425569,-0.351852,3.863718,-5.623398,1.567754,-3.308046,5.734746,-1.697111,-0.091910,0.193188,-0.024490,-16.182271,188.721761,0
0.056250,-12.077311,189.866380,-109.355493,0.835698,5.266078,-4.297574,-1.127787,-4.660722,4.441493,0.925840,-0.139399,0.194168,-0.031958,-16.544191,188.721838,0
0.057292,-84.680657,194.082615,-57.663258,1.774428,6.377315,-2.868883,-3.682283,-5.844313,3.067663,3.499302,-0.208806,0.177510,-0.039427,-9.588541,188.571002,0
0.058333,-151.419930,146.834199,-12.495644,2.622678,6.004536,-0.769661,-5.316064,-5.502468,1.021020,5.185757,-0.238030,0.184565,0.001650,-3.752581,188.495725,0
0.059375,-200.805177,88.483433,38.778030,3.640578,4.733536,1.588630,-6.256369,-4.322553,-1.331814,6.122253,-0.248989,0.190901,-0.035692,-1.366172,188.721857,0
0.060417,-173.787341,40.389354,117.036553,5.133498,2.954847,3.524029,-6.369989,-2.547165,-3.318025,6.221233,-0.248989,0.189791,-0.028224,2.094688,188.797202,0
0.061458,-129.233999,-1.434735,187.219319,6.490698,0.991543,4.739368,-5.398340,-0.580639,-4.579047,5.505536,-0.245336,0.199328,-0.046895,8.224708,188.570982,0
0.062500,-77.001784,-60.208333,196.809281,6.660348,-1.731520,5.691829,-3.596089,2.198228,-5.509705,3.617316,-0.194194,0.197238,-0.054364,15.711928,188.495591,0
0.063542,-30.145915,-144.110212,171.166288,6.196638,-3.787131,5.768025,-1.601858,4.227242,-5.739348,1.652957,-0.168623,0.194429,-0.028224,21.344308,188.721835,0
0.064583,12.275037,-189.800191,109.046970,5.020398,-5.114936,4.411722,1.136781,5.532133,-4.409836,-0.989028,-0.088257,0.188158,-0.050629,21.038938,188.797351,0
0.065625,84.810328,-193.653999,57.650190,4.047738,-6.190670,2.983032,3.589411,6.715725,-3.044064,-3.444476,-0.062686,0.169213,-0.046895,15.157738,188.571075,0
0.066667,151.538258,-146.018995,12.765720,3.165558,-5.817891,0.895239,5.219273,6.351826,-0.949075,-5.096669,-0.026156,0.179469,-0.009553,10.464088,188.570995,0
0.067708,200.367723,-87.728633,-38.495644,2.192898,-4.479436,-1.470672,6.179168,5.068989,1.379586,-6.105496,-0.022503,0.186394,-0.028224,6.562138,188.721802,0
0.068750,173.338544,-39.682878,-117.443561,0.711288,-2.789503,-3.329874,6.277117,3.308305,3.273133,-6.174020,-0.022503,0.198414,-0.028224,2.445298,188.721819,0
0.069792,128.683120,2.298264,-186.973864,-0.589362,-0.811998,-4.503305,5.297632,1.367509,4.518040,-5.363152,-0.022503,0.209388,-0.035692,-3.492451,188.571105,0
0.070833,76.178685,61.240995,-196.883902,-0.815562,1.918166,-5.486244,3.491462,-1.345195,5.476901,-3.459704,-0.040768,0.175485,-0.028224,-10.979671,188.571051,0
0.071875,29.526981,144.091834,-171.093182,-0.363162,3.902771,-5.554821,1.430627,-3.381561,5.694457,-1.609552,-0.088257,0.174178,-0.043161,-16.532881,188.721833,0
0.072917,-12.179394,190.627476,-108.124432,0.847008,5.344184,-4.236616,-1.257079,-4.723209,4.385089,1.093344,-0.106522,0.184761,-0.024490,-16.725151,188.721871,0
0.073958,-85.088987,193.249033,-57.109280,1.797048,6.395066,-2.750778,-3.776314,-5.873719,2.987087,3.594474,-0.194194,0.172414,-0.035692,-9.916531,188.570973,0
0.075000,-152.826400,145.360329,-12.421780,2.656608,5.972583,-0.666795,-5.390505,-5.462035,0.892098,5.159109,-0.212459,0.178686,-0.020755,-4.793101,188.646460,0
0.076042,-200.589669,87.891469,39.048864,3.617958,4.648330,1.718165,-6.287713,-4.171847,-1.456707,6.152708,-0.252642,0.184042,-0.050629,-1.694162,188.721900,0
0.077083,-173.242901,39.942361,118.242993,5.144808,2.855439,3.661184,-6.369989,-2.385432,-3.434860,6.221233,-0.252642,0.184761,-0.031958,1.868488,188.721797,0
0.078125,-128.610161,-2.147509,186.911554,6.456768,0.824680,4.781277,-5.312146,-0.429933,-4.671710,5.417977,-0.197847,0.207494,-0.028224,8.552698,188.572436,0
0.079167,-76.105727,-61.404343,196.858523,6.603798,-1.880632,5.710878,-3.498140,2.312176,-5.537907,3.484074,-0.179582,0.178098,-0.061832,15.791098,188.646413,0
0.080208,-29.283884,-144.037726,170.636932,6.128778,-3.843936,5.672779,-1.433387,4.286054,-5.735320,1.553978,-0.164970,0.204881,-0.035692,21.525268,188.721840,0
0.081250,12.354435,-190.972038,107.655872,4.963848,-5.207243,4.381243,1.250401,5.668136,-4.401779,-1.110849,-0.084604,0.162420,-0.058098,21.434788,188.646337,0
0.082292,85.105233,-192.627122,57.108523,4.059048,-6.233273,2.895406,3.683441,6.748807,-2.939315,-3.558683,-0.026156,0.169932,-0.061832,15.270838,188.570383,0
0.083333,152.706536,-144.919632,12.470265,3.176868,-5.832092,0.849521,5.340729,6.318744,-0.872528,-5.157579,-0.004238,0.180319,-0.046895,9.943828,188.646485,0
0.084375,199.936708,-87.221235,-39.185038,2.204208,-4.486536,-1.520200,6.147825,5.010177,1.460162,-6.120724,-0.018850,0.185087,-0.039427,6.686548,188.721974,0
0.085417,172.975584,-39.163399,-118.428409,0.699978,-2.725598,-3.406071,6.284953,3.260520,3.337595,-6.177827,-0.018850,0.193449,-0.009553,2.603638,188.646476,0
0.086458,127.934515,2.745257,-187.060038,-0.634602,-0.723241,-4.541403,5.187930,1.253560,4.598617,-5.309855,-0.011544,0.216509,-0.024490,-3.673411,188.571169,0
0.087500,75.407395,62.002092,-196.970076,-0.838182,1.978520,-5.497673,3.487544,-1.374601,5.517189,-3.486352,-0.051727,0.181821,-0.076769,-11.183251,188.646534,0
0.088542,29.084623,144.514666,-170.317614,-0.340542,3.963126,-5.547201,1.383611,-3.462427,5.666256,-1.548642,-0.095563,0.206775,-0.002084,-16.057861,188.721842,0
0.089583,-12.803231,191.243603,-107.201137,0.869628,5.361936,-4.171849,-1.311930,-4.730561,4.373003,1.116185,-0.128440,0.185937,-0.050629,-16.657291,188.646364,0
0.090625,-85.916989,192.693311,-56.863068,1.808358,6.387966,-2.720300,-3.819411,-5.847989,2.946799,3.670612,-0.186888,0.166666,-0.017021,-9.373651,188.571002,0
0.091667,-153.280100,144.671718,-12.163258,2.645298,5.947731,-0.602028,-5.374833,-5.436305,0.847781,5.239053,-0.227071,0.176922,-0.043161,-3.481141,188.721989,0
0.092708,-200.408189,87.359909,39.713636,3.651888,4.595075,1.725784,-6.299466,-4.157144,-1.468794,6.179357,-0.252642,0.184173,-0.061832,-1.501892,188.721889,0
0.093750,-173.016051,39.193345,118.920076,5.133498,2.862540,3.623085,-6.346482,-2.411163,-3.386515,6.225039,-0.263601,0.197499,-0.020755,2.128618,188.646379,0
0.094792,-127.952296,-2.473693,187.453220,6.468078,0.831780,4.750798,-5.304310,-0.422582,-4.639479,5.379909,-0.252642,0.198806,-0.002084,8.496148,188.571067,0
0.095833,-75.572629,-61.778851,196.649243,6.626418,-1.873532,5.733737,-3.505976,2.275419,-5.525821,3.525950,-0.172276,0.187700,-0.031958,15.926818,188.721732,0
0.096875,-29.125089,-144.653852,170.267614,6.151398,-3.836835,5.741357,-1.507827,4.388975,-5.691003,1.557785,-0.154011,0.147264,-0.009553,21.231208,188.797173,0
0.097917,13.091697,-191.068686,107.052652,4.952538,-5.210793,4.392673,1.219058,5.598297,-4.345375,-1.061359,-0.106522,0.196977,-0.039427,21.061558,188.570977,0
0.098958,86.137401,-192.288857,56.800758,4.047738,-6.233273,2.914455,3.652098,6.763510,-2.975574,-3.535842,-0.029809,0.171304,-0.035692,14.976778,188.571053,0
0.100000,153.319031,-144.243102,12.187121,3.199488,-5.853393,0.860951,5.309386,6.333447,-0.868499,-5.157579,0.006721,0.183128,-0.005818,10.079548,188.721771,0
0.101042,199.993421,-86.882969,-39.615909,2.181588,-4.479436,-1.516390,6.183086,5.050610,1.480306,-6.116917,-0.007891,0.187962,-0.009553,6.663928,188.797351,0
0.102083,172.521884,-38.752648,-119.585606,0.620808,-2.739799,-3.409881,6.312378,3.319332,3.385941,-6.212089,-0.015197,0.179469,-0.046895,2.490538,188.570998,0
0.103125,127.684980,3.421788,-187.367804,-0.657222,-0.740993,-4.541403,5.250617,1.293994,4.638905,-5.336503,-0.026156,0.208278,-0.058098,-3.809131,188.570966,0
0.104167,75.021750,62.992726,-196.810038,-0.872112,1.957219,-5.524342,3.499298,-1.359898,5.513160,-3.486352,-0.110175,0.161897,-0.028224,-11.205871,188.721819,0
0.105208,28.562868,144.683799,-170.231440,-0.317922,3.966676,-5.535772,1.403201,-3.433021,5.690429,-1.579097,-0.062686,0.210629,-0.002084,-16.431091,188.797315,0
0.106250,-13.370356,192.101347,-106.560985,0.869628,5.390338,-4.255665,-1.311930,-4.712182,4.377032,1.127606,-0.139399,0.173198,-0.017021,-16.781701,188.571120,0
0.107292,-86.506799,192.161751,-56.641477,1.864908,6.370215,-2.724109,-3.795904,-5.862692,2.975000,3.632543,-0.183235,0.176660,-0.028224,-9.769501,188.646449,0
0.108333,-154.573145,143.801893,-12.175568,2.656608,5.986784,-0.682035,-5.421848,-5.513496,0.847781,5.254281,-0.259948,0.180253,-0.009553,-4.476421,188.722034,0
0.109375,-200.124627,87.130372,40.341477,3.663198,4.658980,1.683876,-6.256369,-4.215956,-1.460736,6.175550,-0.278213,0.190705,-0.002084,-1.852502,188.797278,0
0.110417,-172.811886,39.289992,120.508144,5.212668,2.954847,3.649754,-6.452266,-2.411163,-3.394572,6.304984,-0.245336,0.197499,-0.046895,1.823248,188.571073,0
0.111458,-128.043036,-2.920687,187.133145,6.445458,0.885035,4.788896,-5.312146,-0.440961,-4.599191,5.406557,-0.259948,0.203966,-0.017021,8.846758,188.646359,0
0.112500,-74.982819,-62.962780,197.067804,6.671658,-1.848680,5.787075,-3.584335,2.279095,-5.606397,3.605895,-0.197847,0.203248,-0.005818,16.039918,188.721838,0
0.113542,-28.886897,-144.714257,170.021402,6.151398,-3.826185,5.741357,-1.472566,4.308109,-5.723233,1.614889,-0.164970,0.194364,-0.017021,21.378238,188.797166,0
0.114583,13.556740,-192.723769,106.572538,4.975158,-5.249846,4.457440,1.266073,5.701218,-4.434009,-1.091814,-0.128440,0.187178,-0.028224,21.412168,188.571091,0
0.115625,86.613786,-191.648569,56.689962,4.025118,-6.265226,2.922074,3.746128,6.792916,-3.003776,-3.589138,-0.055380,0.173002,-0.061832,15.101188,188.571075,0
0.116667,155.099804,-143.566571,12.568750,3.165558,-5.881796,0.895239,5.332893,6.359177,-0.876556,-5.188034,-0.022503,0.184630,-0.024490,9.627148,188.721934,0
0.117708,199.562406,-86.677594,-40.453030,2.136348,-4.493637,-1.531629,6.202676,5.065313,1.431960,-6.151179,0.021333,0.188419,-0.031958,6.697858,188.797345,0
0.118750,172.431144,-39.042590,-120.964394,0.632118,-2.800154,-3.440359,6.351558,3.304629,3.389969,-6.238738,0.003068,0.202921,-0.046895,2.671498,188.571154,0
0.119793,127.571555,3.300979,-187.293940,-0.589362,-0.684188,-4.541403,5.219273,1.319724,4.614732,-5.370765,-0.022503,0.216443,-0.005818,-4.024021,188.571051,0
0.120833,74.987723,63.693418,-197.068561,-0.838182,1.943018,-5.592919,3.511052,-1.411359,5.581650,-3.535842,-0.037115,0.199067,-0.009553,-11.409451,188.721739,0
0.121875,28.993883,145.239520,-169.751326,-0.340542,3.977327,-5.535772,1.411037,-3.462427,5.702515,-1.560063,-0.088257,0.191424,-0.031958,-15.990001,188.797237,0
0.122917,-13.676604,192.922848,-106.388637,0.869628,5.358385,-4.251856,-1.315848,-4.756291,4.393147,1.146640,-0.135746,0.190379,-0.002084,-16.747771,188.571201,0
0.123958,-87.448227,191.738920,-57.133902,1.797048,6.373765,-2.735539,-3.788068,-5.881071,2.970972,3.590667,-0.186888,0.175485,-0.013287,-9.204001,188.646429,0
0.125000,-155.798135,143.620679,-12.360227,2.611368,6.018737,-0.651556,-5.414012,-5.484090,0.892098,5.227633,-0.252642,0.185153,-0.031958,-3.334111,188.721920,0
0.126042,-200.033887,86.743783,41.006250,3.685818,4.605726,1.729594,-6.322974,-4.208604,-1.529226,6.217426,-0.259948,0.187635,-0.061832,-1.569752,188.797336,0
0.127083,-172.494296,39.507448,121.443750,5.201358,2.894492,3.680233,-6.456184,-2.425866,-3.446947,6.308791,-0.259948,0.194494,-0.028224,1.992898,188.571064,0
0.128125,-127.680076,-2.920687,187.687122,6.445458,0.814029,4.762227,-5.296474,-0.437285,-4.667681,5.360874,-0.245336,0.209780,-0.046895,8.767588,188.721793,0
