1-Time,2-VGERA,3-VGERB,4-VGERC,5-VN,6-IGERAN,7-IGERBN,8-IGERCN,9-IGERAT,10-IGERBT,11-IGERCT,12-IN,13-IFD,14-IFAULT,15-VFAULT,16-Speed (rad/s),17-FAULT 
0.000000,148.566523,60.830244,-170.059091,-0.306612,-4.898369,2.665395,2.453572,4.951365,-2.760191,-2.278476,-0.095563,0.560771,-0.035692,-16.046551,188.495703,0
0.001042,76.156000,123.518055,-180.572349,-0.589362,-4.674701,0.522359,4.188659,4.712441,-0.682828,-3.943548,-0.066339,0.562470,-0.031958,-18.964531,188.420424,0
0.002084,-4.262328,159.277531,-170.034470,-0.351852,-3.875888,-1.207943,4.819260,3.844964,1.142733,-4.655118,-0.048074,0.555937,-0.043161,-19.597891,188.420358,0
0.003125,-77.035812,177.000217,-120.607387,0.586878,-2.061696,-3.172392,4.822992,2.183525,3.039638,-4.640886,-0.069992,0.542023,-0.061832,-14.768521,188.495785,0
0.004167,-127.838871,188.597885,-38.446402,2.136348,-0.240404,-4.474088,4.188659,0.261108,4.445530,-4.100094,-0.048074,0.555154,-0.020755,-7.405711,188.495647,0
0.005208,-169.261683,153.321645,33.065909,3.482238,1.602191,-4.990004,2.875217,-1.466495,4.982707,-2.858405,-0.077298,0.553194,-0.039427,3.519748,188.420412,0
0.006250,-176.804446,100.781793,105.329167,4.862058,3.434134,-4.815386,0.908785,-3.392588,4.881986,-0.990536,-0.117481,0.557309,-0.054364,10.283128,188.420833,0
0.007292,-174.876221,14.995294,149.684281,5.721618,4.531170,-3.970078,-0.915855,-4.421798,4.021664,0.806177,-0.154011,0.542350,-0.028224,20.801428,188.495776,0
0.008333,-148.652360,-62.068793,169.885985,6.072228,4.960754,-2.430267,-2.654674,-4.962133,2.582199,2.545964,-0.238030,0.560314,-0.035692,20.914528,188.495707,0
0.009375,-74.529119,-122.811578,182.368940,6.400218,4.740637,-0.291200,-4.400955,-4.723209,0.479656,4.193247,-0.223418,0.559726,-0.035692,24.488488,188.344905,0
0.010417,3.813532,-159.247584,169.590531,6.151398,3.853067,1.391479,-4.990511,-3.881463,-1.245185,4.830102,-0.241683,0.567827,-0.020755,24.296218,188.420419,0
0.011458,75.759013,-178.214604,120.495834,5.167428,2.024674,3.351960,-4.938272,-2.095048,-3.158877,4.812312,-0.270907,0.556591,-0.065566,18.154888,188.495776,0
0.012500,127.662295,-187.758518,38.704167,3.629268,0.189180,4.594126,-4.289014,-0.227767,-4.535392,4.239499,-0.201500,0.559596,-0.035692,14.173768,188.495673,0
0.013542,169.595519,-153.593721,-33.140530,2.283378,-1.593060,5.098136,-2.956915,1.562323,-5.059979,2.940885,-0.190541,0.556656,-0.024490,0.160678,188.269530,0
0.014583,176.117457,-100.075317,-105.637690,0.937488,-3.456956,4.883833,-0.994214,3.470038,-4.883718,1.073015,-0.139399,0.522622,-0.028224,-5.098471,188.420318,0
0.015625,175.073947,-13.225698,-149.586553,0.123168,-4.553992,4.022650,0.897591,4.495572,-4.048576,-0.748602,-0.146705,0.532747,-0.028224,-16.261441,188.495741,0
0.016667,147.806576,63.753823,-169.197349,-0.272682,-4.884167,2.462997,2.610289,4.958716,-2.520980,-2.435021,-0.088257,0.548556,-0.043161,-16.431091,188.495703,0
0.017708,72.378947,122.877767,-183.366857,-0.645912,-4.692452,0.292181,4.349108,4.649953,-0.431027,-4.085862,-0.048074,0.554108,-0.020755,-18.930601,188.344977,0
0.018750,-5.101673,159.507068,-169.308144,-0.340542,-3.751629,-1.382561,4.942396,3.808207,1.327387,-4.715601,-0.033462,0.558812,-0.046895,-20.050291,188.495702,0
0.019792,-76.207809,179.150618,-119.671781,0.609498,-1.884182,-3.347010,4.878962,1.970332,3.215899,-4.669349,-0.022503,0.562535,-0.028224,-14.779831,188.495685,0
0.020833,-128.054379,187.836788,-39.037311,2.102418,-0.062890,-4.569334,4.136420,0.077320,4.579824,-4.043168,-0.051727,0.565214,-0.017021,-8.796841,188.495772,0
0.021875,-170.475331,153.877366,32.955114,3.459618,1.836509,-5.061438,2.722230,-1.701743,5.062444,-2.705418,-0.084604,0.556721,-0.020755,3.474508,188.345046,0
0.022917,-176.668336,100.854279,105.600000,4.884678,3.554844,-4.739983,0.737142,-3.510212,4.827429,-0.794854,-0.124787,0.549209,-0.039427,10.520638,188.420263,0
0.023958,-175.840333,13.883851,149.745834,5.710308,4.666081,-3.843083,-1.165857,-4.550449,3.916747,1.005416,-0.146705,0.548556,-0.028224,19.444228,188.495781,0
0.025000,-148.278057,-63.566825,169.553599,6.072228,4.967855,-2.259618,-2.852436,-4.962133,2.372364,2.702509,-0.219765,0.532878,-0.035692,20.982388,188.495711,0
0.026042,-71.115026,-122.473313,184.769508,6.434148,4.687383,-0.084834,-4.527821,-4.660722,0.261428,4.307098,-0.230724,0.536405,-0.035692,24.578968,188.269489,0
0.027083,6.410965,-159.634173,169.208902,6.072228,3.721707,1.574034,-5.076333,-3.763839,-1.455020,4.890585,-0.248989,0.561882,-0.043161,24.793858,188.420321,0
0.028125,76.666413,-179.954254,118.944697,5.167428,1.886213,3.526577,-4.975586,-1.892882,-3.351925,4.790965,-0.263601,0.546857,-0.028224,19.421608,188.495683,0
0.029167,127.605582,-187.649790,38.137879,3.663198,0.025867,4.748901,-4.229312,-0.036628,-4.678080,4.171900,-0.256295,0.562078,-0.054364,14.433898,188.495723,0
0.030208,170.480234,-154.089038,-33.509849,2.283378,-1.855780,5.221163,-2.774077,1.779193,-5.190076,2.798571,-0.186888,0.557832,-0.020755,-0.404822,188.344824,0
0.031250,176.083429,-100.546472,-105.613069,0.926178,-3.648671,4.899707,-0.785257,3.617068,-4.950865,0.863103,-0.194194,0.551103,-0.046895,-5.268121,188.420341,0
0.032292,176.094772,-14.131766,-150.214394,0.077928,-4.699553,3.915499,1.147592,4.660981,-3.977232,-0.983420,-0.110175,0.550973,-0.050629,-15.571531,188.495803,0
0.033333,148.112823,63.330991,-169.480493,-0.295302,-4.972924,2.300285,2.837903,5.035907,-2.353112,-2.673397,-0.117481,0.558616,-0.043161,-16.227511,188.495817,0
0.034375,70.496092,121.923375,-186.136743,-0.668532,-4.593045,0.058035,4.539408,4.660981,-0.128865,-4.292217,-0.033462,0.552149,-0.024490,-19.484791,188.269682,0
0.035417,-5.884306,160.050708,-168.741857,-0.351852,-3.591866,-1.640519,4.968515,3.635446,1.612763,-4.790316,-0.033462,0.551691,-0.035692,-19.439551,188.420267,0
0.036458,-76.774934,181.566798,-117.714394,0.643428,-1.653414,-3.597031,4.878962,1.749787,3.505471,-4.690696,-0.026156,0.557048,-0.054364,-14.033371,188.495620,0
0.037500,-127.940954,187.788464,-36.612121,2.170278,0.224683,-4.720140,3.979702,-0.139549,4.726709,-3.911528,-0.048074,0.554108,-0.050629,-7.247371,188.420278,0
0.038542,-170.781578,154.952567,35.183333,3.504858,2.109881,-5.208276,2.535662,-2.006830,5.200935,-2.509736,-0.106522,0.553782,-0.046895,3.972148,188.269548,0
0.039583,-175.953758,99.670350,106.129356,4.884678,3.835316,-4.747920,0.464752,-3.778542,4.831626,-0.531573,-0.150358,0.552932,-0.050629,10.192648,188.420405,0
0.040625,-177.382913,13.811365,150.275190,5.721618,4.875547,-3.751805,-1.468098,-4.756291,3.824420,1.314949,-0.175929,0.542611,-0.039427,20.021038,188.495694,0
0.041667,-148.062550,-63.204398,169.750569,6.072228,5.049511,-2.041346,-3.139752,-5.094460,2.187710,2.962232,-0.205153,0.557309,-0.024490,21.152038,188.495731,0
0.042708,-70.082859,-120.673258,187.884091,6.468078,4.683832,0.188998,-4.781554,-4.693803,-0.049128,4.549032,-0.238030,0.562797,-0.028224,25.099228,188.269637,0
0.043750,4.834357,-160.286542,168.199432,6.083538,3.544193,1.903427,-5.128572,-3.657242,-1.715215,4.968858,-0.267254,0.563580,-0.046895,24.070018,188.420263,0
0.044792,75.543505,-182.805347,117.762879,5.099568,1.598641,3.859938,-4.945735,-1.694391,-3.666677,4.798081,-0.270907,0.557505,-0.058098,17.770348,188.420350,0
0.045833,127.594240,-187.009502,36.537500,3.584028,-0.286557,4.883833,-4.035281,0.261108,-4.820767,4.001123,-0.234377,0.553063,-0.024490,14.071978,188.495644,0
0.046875,170.741112,-155.236724,-36.402841,2.204208,-2.193057,5.304503,-2.587509,2.084280,-5.261420,2.592216,-0.190541,0.554696,-0.031958,-0.823292,188.269563,0
0.047917,175.255427,-97.936997,-106.573296,0.869628,-3.819084,4.824304,-0.505405,3.859667,-4.866931,0.646074,-0.135746,0.539214,-0.046895,-5.109781,188.420339,0
0.048958,177.569297,-11.498128,-150.189773,0.032688,-4.841564,3.840095,1.382669,4.822714,-3.842938,-1.246701,-0.102869,0.546400,-0.020755,-15.910831,188.420262,0
0.050000,147.069313,64.514920,-169.480493,-0.272682,-5.022628,2.074076,3.054322,5.072665,-2.168458,-2.908215,-0.048074,0.546727,-0.031958,-16.566811,188.495687,0
0.051042,68.443100,120.739447,-188.697349,-0.679842,-4.632098,-0.168174,4.722245,4.638926,0.072576,-4.498573,-0.069992,0.563058,-0.058098,-19.530031,188.269637,0
0.052083,-4.670658,160.570187,-167.806251,-0.295302,-3.435654,-1.846885,5.031948,3.572959,1.742860,-4.900609,-0.015197,0.564952,-0.058098,-19.937191,188.495749,0
0.053125,-75.402492,183.535986,-117.480493,0.666048,-1.486551,-3.815303,4.905082,1.599081,3.694322,-4.697812,-0.011544,0.558616,-0.035692,-13.976821,188.495725,0
0.054167,-128.009009,187.063610,-37.006061,2.136348,0.380895,-4.811417,3.916269,-0.341715,4.827429,-3.854602,-0.051727,0.559073,-0.046895,-8.661121,188.495655,0
0.055208,-171.416758,155.894877,36.217424,3.538788,2.294495,-5.204307,2.375213,-2.179590,5.205132,-2.381654,-0.069992,0.554696,-0.020755,4.345378,188.269496,0
0.056250,-175.874361,98.389774,106.461743,4.873368,3.959576,-4.688391,0.322960,-3.877787,4.810643,-0.396375,-0.132093,0.536013,-0.043161,10.588498,188.420188,0
0.057292,-178.369711,11.201890,150.090531,5.710308,4.964304,-3.652591,-1.594965,-4.892294,3.740486,1.492841,-0.157664,0.549862,-0.058098,18.946588,188.495740,0
0.058333,-146.882930,-65.101100,169.627463,6.094848,5.063712,-1.914351,-3.292738,-5.087109,2.036629,3.076083,-0.241683,0.545681,-0.054364,21.231208,188.495709,0
0.059375,-66.612054,-120.540368,189.841478,6.524628,4.655430,0.363616,-4.893496,-4.634991,-0.196012,4.680672,-0.212459,0.544114,-0.054364,25.053988,188.269519,0
0.060417,6.127402,-160.806021,167.793182,6.094848,3.526442,1.990735,-5.206931,-3.576375,-1.874689,5.057804,-0.274560,0.563123,-0.058098,24.680758,188.420253,0
0.061458,75.600218,-184.073842,117.208902,5.144808,1.531185,3.943279,-5.027825,-1.584119,-3.796774,4.851449,-0.256295,0.553194,-0.046895,18.912658,188.420276,0
0.062500,127.650952,-186.852450,37.386932,3.606648,-0.375314,4.955267,-4.039012,0.334623,-4.887915,3.990450,-0.230724,0.563058,-0.054364,14.173768,188.495769,0
0.063542,171.625827,-156.009902,-35.947349,2.215518,-2.313766,5.375937,-2.456911,2.220283,-5.345354,2.524617,-0.219765,0.557113,-0.050629,-1.173902,188.269528,0
0.064583,175.607044,-98.456476,-106.253220,0.880938,-3.946894,4.832241,-0.374807,3.973615,-4.871128,0.493086,-0.157664,0.552018,-0.043161,-5.392531,188.495756,0
0.065625,178.544752,-11.473967,-150.300569,0.066618,-4.965824,3.760724,1.558043,4.918283,-3.800971,-1.389014,-0.099216,0.549797,-0.031958,-15.096511,188.495756,0
0.066667,146.490846,65.058560,-169.812879,-0.306612,-5.036829,1.986767,3.211040,5.105746,-2.076130,-3.018508,-0.051727,0.558354,-0.058098,-16.589431,188.495633,0
0.067708,65.777612,120.364939,-190.408523,-0.747702,-4.593045,-0.366603,4.808066,4.660981,0.206871,-4.559056,-0.044421,0.529415,-0.069301,-19.710991,188.269601,0
0.068750,-7.018556,161.029262,-167.461554,-0.295302,-3.393051,-1.973880,5.125233,3.433280,1.910728,-4.957535,-0.066339,0.587751,-0.028224,-19.258591,188.420320,0
0.069792,-76.514057,184.623267,-116.310985,0.688668,-1.383593,-3.938329,4.908813,1.455727,3.832813,-4.712043,-0.040768,0.537712,-0.028224,-13.513111,188.495568,0
0.070833,-128.054379,187.027367,-36.045833,2.204208,0.487404,-4.898726,3.882686,-0.499773,4.928150,-3.811908,-0.066339,0.559008,-0.039427,-7.055101,188.495700,0
0.071875,-171.632266,156.800945,36.796023,3.561408,2.464908,-5.311459,2.289392,-2.348675,5.331032,-2.278476,-0.099216,0.557179,-0.031958,4.334068,188.269443,0
0.072917,-175.863018,98.426017,106.203220,4.895988,4.094486,-4.696328,0.169973,-4.061574,4.768676,-0.261177,-0.135746,0.550254,-0.054364,10.136098,188.490076,0
0.073958,-179.413221,12.699922,150.447538,5.698998,5.095665,-3.608936,-1.796459,-4.965809,3.685929,1.624482,-0.172276,0.531571,-0.043161,19.432918,188.493479,0
0.075000,-146.780847,-63.820524,170.230682,6.060918,5.099215,-1.795294,-3.434530,-5.131218,1.990465,3.253976,-0.227071,0.548948,-0.020755,21.389548,188.495222,0
0.076042,-66.305806,-119.561815,191.220266,6.513318,4.630578,0.546171,-5.016631,-4.642343,-0.321913,4.798081,-0.227071,0.560445,-0.035692,25.370668,188.269096,0
0.077083,6.025320,-161.180529,167.128410,6.038298,3.405732,2.129636,-5.240513,-3.477130,-2.000590,5.118287,-0.252642,0.546008,-0.076769,24.002158,188.495211,0
0.078125,75.929150,-184.955748,116.334849,5.110878,1.367873,4.098053,-5.001705,-1.455468,-3.952052,4.808755,-0.245336,0.554958,-0.050629,17.589388,188.419923,0
0.079167,127.696322,-186.562508,35.232576,3.606648,-0.496024,5.026702,-3.934534,0.492680,-4.967652,3.912177,-0.234377,0.552541,-0.058098,13.868398,188.495318,0
0.080208,171.036017,-156.589786,-38.015530,2.215518,-2.459327,5.391812,-2.374821,2.400394,-5.395714,2.421439,-0.186888,0.554304,-0.050629,-1.287002,188.269095,0
0.081250,175.323482,-96.946363,-106.610228,0.926178,-4.071154,4.832241,-0.311373,4.017724,-4.837554,0.404140,-0.183235,0.549862,-0.024490,-5.109781,188.495249,0
0.082292,179.168590,-11.389400,-150.325190,0.066618,-5.051031,3.725006,1.617745,5.002825,-3.788381,-1.509981,-0.117481,0.557571,-0.020755,-15.594151,188.419882,0
0.083333,146.298023,64.430353,-170.046781,-0.295302,-5.125586,1.895489,3.285667,5.127801,-2.038360,-3.107454,-0.069992,0.558158,-0.020755,-16.736461,188.489120,0
0.084375,66.707697,119.555518,-191.036364,-0.713772,-4.582394,-0.378509,4.875231,4.602169,0.290804,-4.655118,-0.029809,0.562405,-0.099175,-19.790161,188.344453,0
0.085417,-5.124358,161.234637,-167.018372,-0.272682,-3.336246,-2.033409,5.140158,3.451659,1.940105,-4.950419,-0.062686,0.568741,-0.043161,-19.880641,188.495323,0
0.086458,-75.652027,185.118584,-116.249432,0.666048,-1.340990,-3.970078,4.871500,1.422645,3.887370,-4.704928,-0.029809,0.555807,-0.046895,-13.614901,188.495325,0
0.087500,-128.031694,186.737425,-35.430303,2.158968,0.551309,-4.910632,3.804328,-0.536530,4.902970,-3.747867,-0.062686,0.557179,-0.013287,-8.491471,188.495193,0
0.088542,-171.484813,156.668055,38.260985,3.584028,2.500411,-5.291616,2.252078,-2.392784,5.284869,-2.274918,-0.088257,0.548621,-0.058098,4.820398,188.269145,0
0.089583,-175.692881,96.734691,106.720265,4.895988,4.115788,-4.704266,0.158779,-4.057899,4.768676,-0.243388,-0.121134,0.538365,-0.043161,10.565878,188.495309,0
0.090625,-179.311139,10.368308,150.164394,5.789478,5.045961,-3.597031,-1.762876,-4.984188,3.681732,1.596019,-0.183235,0.550319,-0.046895,18.776938,188.495322,0
0.091667,-146.168352,-64.871562,169.959849,6.106158,5.095665,-1.787356,-3.371097,-5.149596,1.948498,3.200608,-0.223418,0.560118,-0.046895,21.366928,188.495164,0
0.092708,-65.613914,-119.634300,191.269508,6.524628,4.669631,0.526328,-4.968123,-4.657046,-0.288339,4.773176,-0.245336,0.558616,-0.017021,25.189708,188.344411,0
0.093750,5.458195,-161.180529,167.128410,6.038298,3.494489,2.125667,-5.221856,-3.506536,-1.983803,5.082709,-0.278213,0.565410,-0.031958,24.601588,188.495273,0
0.094792,75.180545,-185.016153,116.901137,5.110878,1.428227,4.070273,-4.986780,-1.517955,-3.922675,4.865680,-0.227071,0.560053,-0.031958,18.765628,188.495177,0
0.095833,127.843775,-186.490023,36.500568,3.595338,-0.460521,4.990985,-3.960653,0.441220,-4.959258,3.944198,-0.212459,0.560771,-0.020755,13.879708,188.495264,0
0.096875,171.535087,-156.408572,-37.350758,2.181588,-2.416724,5.407686,-2.393478,2.356285,-5.336961,2.442786,-0.194194,0.555872,-0.069301,-1.501892,188.419833,0
0.097917,175.493619,-96.837634,-106.573296,0.926178,-4.010799,4.820336,-0.277791,4.036103,-4.812374,0.400582,-0.132093,0.547184,-0.050629,-5.471701,188.544022,0
0.098958,178.828315,-9.927611,-150.152841,0.066618,-4.965824,3.721038,1.602819,5.046934,-3.767398,-1.453056,-0.113828,0.515305,0.024056,-14.926861,188.469564,0
0.100000,145.674186,65.747172,-169.923675,-0.317922,-5.036829,1.915332,3.229697,5.120449,-2.021573,-3.068318,-0.077298,0.533531,-0.031958,-16.668601,188.486989,0
0.101042,64.382485,120.087078,-191.122538,-0.792942,-4.603695,-0.354698,4.856574,4.594817,0.257231,-4.623097,-0.015197,0.541435,-0.031958,-19.699681,188.484259,0
0.102083,-6.837076,161.258799,-167.042993,-0.272682,-3.407252,-2.045314,5.140158,3.455335,1.935908,-4.932630,-0.011544,0.553455,-0.050629,-19.258591,188.485440,0
0.103125,-76.049014,184.901128,-116.249432,0.688668,-1.362291,-3.970078,4.897619,1.437348,3.853797,-4.697812,-0.022503,0.555676,-0.013287,-13.411321,188.487921,0
0.104167,-128.235859,186.592455,-36.316667,2.215518,0.586811,-4.934443,3.830447,-0.477718,4.919757,-3.804792,-0.033462,0.561098,-0.039427,-7.066411,188.481460,0
0.105208,-171.847773,156.813026,36.956061,3.572718,2.493311,-5.283679,2.289392,-2.400135,5.339426,-2.314055,-0.073645,0.559204,-0.013287,4.379308,188.550206,0
0.106250,-175.772278,97.942781,106.387879,4.862058,4.076735,-4.672517,0.177436,-4.046871,4.789659,-0.239830,-0.164970,0.551757,-0.069301,10.181338,188.477434,0
0.107292,-179.413221,11.805935,150.287500,5.710308,5.045961,-3.577188,-1.747951,-5.002566,3.660749,1.556883,-0.164970,0.552279,0.012853,19.342438,188.476377,0
0.108333,-146.043585,-64.666187,169.996781,6.083538,5.102765,-1.779419,-3.419604,-5.138569,1.965285,3.172145,-0.201500,0.548164,-0.035692,21.423478,188.492423,0
0.109375,-65.126186,-119.694705,191.404925,6.513318,4.619927,0.486642,-4.945735,-4.623964,-0.300929,4.748271,-0.245336,0.548752,-0.039427,25.393288,188.491746,0
0.110417,7.125542,-160.975154,166.980682,6.094848,3.455436,2.089950,-5.244244,-3.480806,-1.971213,5.082709,-0.256295,0.536732,-0.017021,24.024778,188.492855,0
0.111458,76.144658,-184.834939,116.211743,5.099568,1.438878,4.014713,-4.968123,-1.484874,-3.838741,4.833660,-0.256295,0.546269,-0.013287,17.578078,188.495589,0
0.112500,127.843775,-186.405457,35.564962,3.617958,-0.407267,4.975110,-3.956922,0.430192,-4.908898,3.922851,-0.216112,0.559596,-0.043161,13.947568,188.495767,0
0.113542,171.240182,-156.348168,-37.264583,2.226828,-2.306665,5.399749,-2.464374,2.290122,-5.303387,2.489039,-0.212459,0.560510,-0.046895,-1.083422,188.495749,0
0.114583,175.210057,-97.647055,-106.536364,0.926178,-4.000148,4.816367,-0.363612,3.973615,-4.858538,0.468182,-0.183235,0.554892,-0.046895,-5.109781,188.495756,0
0.115625,178.680862,-11.836394,-150.620644,0.032688,-4.976475,3.796441,1.535655,4.918283,-3.847135,-1.371225,-0.124787,0.556395,-0.043161,-15.639391,188.495711,0
0.116667,146.422791,64.369949,-169.775947,-0.329232,-5.040380,2.002641,3.181189,5.135152,-2.147474,-2.968698,-0.080951,0.548229,-0.043161,-16.657291,188.495747,0
0.117708,66.730382,120.038754,-190.445455,-0.736392,-4.610796,-0.255483,4.763290,4.642602,0.156510,-4.537709,-0.033462,0.564038,-0.046895,-19.733611,188.571080,0
0.118750,-6.281293,160.872210,-167.116857,-0.317922,-3.460506,-1.898477,5.080456,3.521498,1.805810,-4.907725,-0.044421,0.560445,-0.039427,-19.925881,188.495658,0
0.119792,-76.207809,184.466215,-115.892425,0.643428,-1.436847,-3.835146,4.901350,1.573351,3.744683,-4.729833,-0.055380,0.551103,-0.035692,-13.705381,188.495644,0
0.120833,-127.974981,186.882396,-34.999432,2.215518,0.377345,-4.811417,3.912537,-0.378473,4.844216,-3.836813,-0.044421,0.553586,-0.043161,-8.514091,188.495707,0
0.121875,-171.178566,155.919039,37.867046,3.584028,2.319347,-5.271773,2.412527,-2.216348,5.272279,-2.370980,-0.091910,0.556003,-0.031958,4.560268,188.571131,0
0.122917,-175.568113,97.532030,106.831061,4.918608,3.966676,-4.751889,0.345348,-3.932923,4.785462,-0.410607,-0.117481,0.552541,-0.039427,10.611118,188.495687,0
0.123958,-178.505821,11.431427,150.385985,5.710308,4.957204,-3.747837,-1.542725,-4.873915,3.786649,1.439474,-0.172276,0.548164,-0.028224,18.969208,188.495651,0
0.125000,-146.939642,-64.122546,169.701326,6.072228,5.088564,-1.961974,-3.233036,-5.079757,2.137349,3.058294,-0.194194,0.553259,-0.028224,21.276448,188.495696,0
0.126042,-67.598851,-120.190022,189.632198,6.445458,4.712235,0.244558,-4.833794,-4.690128,-0.103685,4.602399,-0.248989,0.565671,-0.050629,25.053988,188.571058,0
0.127083,5.140605,-160.757697,167.374622,6.094848,3.583246,1.911364,-5.158423,-3.657242,-1.757182,5.047130,-0.234377,0.569198,-0.039427,24.590278,188.495660,0
