1-Time,2-VGERA,3-VGERB,4-VGERC,5-VN,6-IGERAN,7-IGERBN,8-IGERCN,9-IGERAT,10-IGERBT,11-IGERCT,12-IN,13-IFD,14-IFAULT,15-VFAULT,16-Speed (rad/s),17-Active Power,18-Reactive Power,19-FAULT 
0.000000,156.388068,-160.614421,-5.888546,0.134120,-3.524366,3.710207,0.329262,3.538609,-3.649642,-0.105743,-0.130964,0.419484,-0.063706,-156.698152,188.646306,1167.243178,27.412319,0
0.001042,185.022079,-112.307195,-68.846357,-1.081884,-4.206888,2.499368,1.930290,4.264009,-2.503993,-1.812776,-0.087210,0.414867,-0.074856,-178.505527,188.570933,1166.917192,27.164355,0
0.002083,185.089878,-34.167643,-127.757661,-2.230333,-4.170194,1.095438,3.202029,4.256755,-1.108923,-3.031544,-0.054394,0.415487,-0.108307,-180.745933,188.495465,1167.330856,26.826368,0
0.003125,157.551960,32.743680,-168.720947,-3.018484,-3.649128,-0.340674,3.951447,3.770737,0.281920,-3.902093,-0.036163,0.426305,-0.056273,-151.125281,188.646228,1166.214970,26.610783,0
0.004169,90.871101,88.285833,-187.944891,-3.367522,-2.258398,-2.251467,4.382930,2.436001,2.154697,-4.299518,-0.061686,0.428785,-0.086006,-80.952144,188.646337,1166.851988,25.966027,0
0.005208,18.314280,140.985693,-182.099937,-3.288707,-0.915371,-3.265194,3.902243,1.166551,3.283436,-3.928588,-0.025225,0.417210,-0.086006,-13.739946,188.570957,1166.230272,26.689767,0
0.006250,-47.315686,174.999242,-134.428929,-2.365445,0.941382,-3.977215,2.808396,-0.494615,3.964061,-2.823370,-0.083563,0.425409,-0.086006,49.272897,188.495477,1166.247807,26.702906,0
0.007292,-100.922532,192.933872,-56.609624,-0.800402,2.614662,-4.178351,1.373905,-2.228321,4.272668,-1.373717,-0.087210,0.414178,-0.071140,102.355898,188.646322,1165.509299,26.909437,0
0.008333,-155.975768,160.130059,7.842843,0.426862,3.623767,-3.591034,-0.143856,-3.124190,3.647000,0.147851,-0.116379,0.412111,-0.086006,157.071355,188.646308,1165.692816,26.827240,0
0.009375,-184.948776,111.047662,69.743459,1.665385,4.302619,-2.428467,-1.771379,-3.860471,2.590128,1.862454,-0.185656,0.410320,-0.097156,178.991313,188.589766,1166.522792,26.871438,0
0.010417,-184.700178,32.696700,128.253758,2.836352,4.298950,-1.056719,-3.077182,-3.816947,1.148555,3.119072,-0.207533,0.414178,-0.030256,180.916487,188.521719,1166.478283,26.224123,0
0.011458,-157.309159,-33.345492,169.168436,3.613244,3.799901,0.431688,-3.750901,-3.381707,-0.254970,3.970696,-0.225764,0.428027,-0.056273,151.723651,188.670626,1167.390481,26.507252,0
0.012500,-91.023797,-88.253414,187.614674,3.962282,2.361468,2.366618,-4.167245,-2.003447,-2.106609,4.288636,-0.185656,0.415487,-0.093440,82.924029,188.580259,1167.470483,26.671166,0
0.013542,-19.043273,-141.610995,181.769720,3.838430,0.967068,3.368276,-3.739547,-0.730370,-3.252258,4.004761,-0.207533,0.437053,-0.119457,15.711831,188.585105,1167.531517,27.148631,0
0.014583,46.631893,-175.530584,134.681992,2.881389,-0.834643,4.112479,-2.668409,0.974320,-3.924429,2.869263,-0.192949,0.415212,-0.063706,-48.257969,188.503226,1167.782553,26.305998,0
0.015625,101.639930,-192.631319,57.846972,1.428940,-2.529939,4.285456,-1.150649,2.697145,-4.275310,1.430965,-0.171072,0.419001,-0.104590,-102.444286,188.728928,1167.939157,26.439013,0
0.016667,157.088663,-160.156366,-7.225230,0.134120,-3.553722,3.730321,0.344401,3.607522,-3.641187,-0.154948,-0.090856,0.420241,-0.097156,-157.497493,188.646183,1168.609379,25.917995,0
0.017708,184.716981,-111.590749,-69.757732,-1.070625,-4.221566,2.483277,2.024914,4.322041,-2.508221,-1.861981,-0.090856,0.414867,-0.082290,-178.415460,188.570779,1169.438816,25.680530,0
0.018759,184.954279,-31.560250,-129.920659,-2.207814,-4.232575,1.079347,3.319363,4.271263,-1.045510,-3.182944,-0.032517,0.414867,-0.093440,-181.004875,188.495189,1170.894350,24.831971,0
0.019804,156.749666,35.961813,-168.708795,-2.984706,-3.586747,-0.409061,3.977942,3.777991,0.391835,-3.951298,-0.054394,0.423135,-0.097156,-149.391499,188.721416,1171.605733,24.370725,0
0.020839,88.385117,89.178453,-189.111452,-3.401300,-2.254729,-2.360081,4.447274,2.450509,2.264612,-4.344938,-0.036163,0.403912,-0.071140,-78.813062,188.646103,1172.942921,24.169172,0
0.021877,17.116488,141.866569,-181.164259,-3.232411,-0.827304,-3.369784,3.906028,1.123027,3.384895,-3.966438,-0.043455,0.391303,-0.100873,-12.749213,188.570779,1174.110316,23.711624,0
0.022921,-48.072781,177.465694,-132.144415,-2.275370,1.011102,-4.126056,2.857600,-0.617933,4.078203,-2.834725,-0.105440,0.391510,-0.089723,49.993430,188.495302,1176.080668,22.931663,0
0.023963,-101.781326,192.229172,-55.285091,-0.755365,2.724746,-4.254783,1.336055,-2.315369,4.348762,-1.343437,-0.101794,0.414661,-0.059989,103.481730,188.721541,1177.240210,22.472102,0
0.025011,-158.619950,159.672004,9.872172,0.516936,3.810910,-3.663443,-0.242264,-3.309167,3.748459,0.276541,-0.127317,0.419484,-0.086006,159.852162,188.646174,1180.606821,21.469157,0
0.026053,-183.479786,109.274166,72.052276,1.665385,4.412703,-2.400308,-1.892497,-3.969281,2.568991,2.013854,-0.171072,0.414592,-0.074856,177.865481,188.570817,1182.017761,20.326258,0
0.027090,-185.344274,31.945019,130.635485,2.825093,4.445729,-0.972242,-3.239935,-3.896741,1.106280,3.293182,-0.196595,0.419277,-0.067423,181.727086,188.495345,1184.858358,19.257574,0
0.028134,-156.868462,-34.942813,169.010465,3.545688,3.737520,0.592597,-3.845525,-3.399842,-0.369112,4.088031,-0.229410,0.432437,-0.071140,150.102452,188.721521,1186.424786,18.057168,0
0.029170,-88.594313,-88.664489,190.045008,4.007319,2.346790,2.519481,-4.333782,-2.032463,-2.279936,4.455176,-0.229410,0.423893,-0.093440,79.974348,188.646040,1189.945928,17.276150,0
0.030210,-18.659075,-142.280461,180.481643,3.838430,0.908357,3.492980,-3.747116,-0.657830,-3.341035,4.023686,-0.233057,0.435193,-0.089723,14.473416,188.570863,1190.663613,16.292482,0
0.031251,46.982191,-178.689992,132.543298,2.813834,-1.032794,4.277411,-2.645700,1.086757,-4.131575,2.831413,-0.167425,0.424375,-0.074856,-48.978502,188.495530,1193.451115,14.900907,0
0.032292,101.933728,-191.809168,56.461681,1.327606,-2.665710,4.365911,-1.131724,2.802328,-4.334495,1.340125,-0.163779,0.418037,-0.063706,-102.883360,188.721704,1194.176391,13.492674,0
0.033333,158.681953,-160.226836,-8.744189,0.077824,-3.759213,3.770548,0.454165,3.727213,-3.675007,-0.249573,-0.127317,0.417623,-0.078573,-158.769684,188.646458,1196.126285,12.518329,0
0.034375,183.620888,-110.157858,-70.754170,-1.126922,-4.313303,2.487300,2.108182,4.427224,-2.508221,-1.975531,-0.098148,0.413972,-0.089723,-177.526052,188.570993,1197.471267,11.627756,0
0.035417,185.813074,-31.384075,-129.568261,-2.230333,-4.338989,1.035097,3.448050,4.387327,-1.037055,-3.277569,-0.039809,0.415212,-0.093440,-181.714149,188.570917,1199.694108,11.040804,0
0.036458,156.760966,35.750402,-168.380700,-2.973447,-3.682154,-0.517674,4.091490,3.814261,0.455247,-4.042138,-0.036163,0.414523,-0.078573,-149.492824,188.721831,1201.047364,10.102934,0
0.037500,86.746628,88.873083,-190.654714,-3.435078,-2.258398,-2.464672,4.553252,2.490406,2.366071,-4.450917,-0.036163,0.394542,-0.093440,-77.619680,188.646351,1203.275895,9.802388,0
0.038542,16.540192,142.301134,-180.410855,-3.232411,-0.819965,-3.470352,3.955232,1.046860,3.473673,-3.996718,-0.054394,0.432023,-0.056273,-12.670405,188.570966,1204.185578,8.784632,0
0.039583,-47.914582,178.898585,-131.257343,-2.286629,1.121186,-4.206511,2.827321,-0.646949,4.196573,-2.842295,-0.094502,0.382140,-0.067423,49.576872,188.573006,1205.865030,8.448356,0
0.040625,-101.984725,191.735881,-54.944845,-0.755365,2.816483,-4.307079,1.309561,-2.373401,4.424857,-1.309372,-0.094502,0.418243,-0.056273,103.785705,188.722130,1206.863172,7.830987,0
0.041667,-159.071947,159.930394,9.264589,0.550714,3.869621,-3.723784,-0.306608,-3.367199,3.765369,0.318176,-0.127317,0.417417,-0.045123,159.885937,188.646734,1207.772062,6.969482,0
0.042708,-183.762284,109.767456,71.262418,1.755459,4.449398,-2.384217,-1.949271,-4.038194,2.581673,2.006284,-0.196595,0.421688,-0.082290,178.101906,188.571444,1208.673558,6.770728,0
0.043750,-185.909270,31.921529,130.744851,2.825093,4.460407,-0.923969,-3.308064,-3.936638,1.127418,3.372667,-0.200241,0.400743,-0.067423,182.222453,188.571400,1210.019338,6.477568,0
0.044792,-156.868462,-34.684423,169.083375,3.545688,3.741190,0.552370,-3.913654,-3.421604,-0.415615,4.110741,-0.211179,0.433953,-0.074856,150.046161,188.722119,1210.563976,5.941135,0
0.045833,-87.362621,-88.652744,191.308782,4.018579,2.332112,2.628095,-4.398126,-2.039717,-2.360259,4.557370,-0.218472,0.429130,-0.089723,78.409441,188.646743,1212.452227,5.503188,0
0.046875,-18.094079,-142.855966,179.910514,3.804652,0.864323,3.557344,-3.773611,-0.625187,-3.467860,4.031256,-0.214826,0.432299,-0.104590,13.775400,188.571351,1213.624710,4.620832,0
0.047917,47.388988,-180.052413,131.255221,2.813834,-1.073159,4.357865,-2.634345,1.181059,-4.194988,2.880618,-0.196595,0.410389,-0.067423,-49.237443,188.571353,1215.159007,4.275197,0
0.048960,102.656923,-191.550778,54.590324,1.338865,-2.742769,4.382002,-1.067380,2.911138,-4.364087,1.294705,-0.167425,0.418657,-0.074856,-103.806543,188.722261,1215.946958,3.486054,0
0.050000,159.981444,-160.097641,-10.165934,0.021527,-3.891314,3.806752,0.537433,3.854158,-3.717282,-0.336628,-0.112733,0.417279,-0.104590,-159.850483,188.646835,1217.956449,2.578097,0
0.051042,183.440089,-108.807182,-71.519725,-1.138181,-4.383023,2.443050,2.199021,4.481629,-2.508221,-2.077726,-0.079917,0.419552,-0.093440,-177.424728,188.571382,1218.894225,1.876977,0
0.052083,186.197271,-29.798499,-130.880641,-2.286629,-4.401370,0.974756,3.538889,4.492510,-1.015918,-3.410044,-0.047102,0.394542,-0.100873,-182.074416,188.646792,1221.415148,1.516830,0
0.053125,156.003871,36.901413,-168.611582,-2.995965,-3.660137,-0.557901,4.174759,3.825142,0.544025,-4.144333,-0.047102,0.439671,-0.104590,-148.479575,188.722114,1222.734042,0.604345,0
0.054167,84.441443,89.131473,-192.501768,-3.468856,-2.236381,-2.585353,4.655446,2.425120,2.501351,-4.568252,-0.028871,0.404601,-0.112023,-75.953448,188.571420,1224.758628,-0.791759,0
0.055208,16.054295,142.911875,-179.305053,-3.198633,-0.746575,-3.574943,3.974157,1.050487,3.575132,-4.053493,-0.068979,0.396195,-0.126890,-12.681663,188.571462,1226.159896,-0.791811,0
0.056250,-47.903282,181.224097,-129.969266,-2.275370,1.165220,-4.379488,2.868955,-0.802910,4.323397,-2.906639,-0.061686,0.410389,-0.100873,49.621905,188.646752,1228.950233,-1.906563,0
0.057292,-102.674020,191.019436,-54.483081,-0.766624,2.845838,-4.351329,1.249002,-2.489465,4.467132,-1.245027,-0.116379,0.416521,-0.071140,104.517496,188.722112,1229.854888,-3.297967,0
0.058333,-160.947735,160.247509,9.896476,0.471899,4.027409,-3.743897,-0.401231,-3.505025,3.837236,0.435511,-0.149195,0.422171,-0.074856,161.146869,188.571442,1232.508391,-4.634189,0
0.059375,-183.106889,108.745640,71.942911,1.721681,4.537465,-2.348013,-2.104453,-4.107107,2.564763,2.157684,-0.149195,0.420655,-0.082290,177.764156,188.571409,1233.655866,-6.147287,0
0.060417,-186.688965,31.252064,132.178748,2.813834,4.581499,-0.903855,-3.406472,-4.078091,1.055550,3.512712,-0.182010,0.428509,-0.097156,182.931727,188.646802,1236.722587,-7.270488,0
0.061458,-156.054867,-35.858924,169.095526,3.590725,3.759537,0.713279,-4.034772,-3.428858,-0.495937,4.247001,-0.233057,0.422033,-0.104590,148.560062,188.722217,1238.301905,-8.248681,0
0.062500,-84.695839,-88.793685,193.690510,4.007319,2.321104,2.748776,-4.466255,-2.003447,-2.465946,4.667135,-0.258580,0.429405,-0.086006,76.090226,188.571295,1240.323516,-9.015786,0
0.063542,-16.896287,-143.501942,178.914077,3.714578,0.765247,3.641821,-3.781181,-0.545393,-3.497452,4.031256,-0.200241,0.432230,-0.089723,12.683342,188.571118,1240.321109,-9.572929,0
0.064583,47.761886,-182.471885,129.602593,2.825093,-1.190582,4.446365,-2.607850,1.253599,-4.321812,2.922253,-0.178364,0.426305,-0.067423,-49.755326,188.646601,1242.678011,-9.746937,0
0.065625,102.894222,-190.787352,53.666797,1.316347,-2.823497,4.446365,-0.995467,3.001813,-4.435954,1.219005,-0.182010,0.415281,-0.082290,-104.223101,188.721985,1243.577714,-10.938097,0
0.066667,161.224436,-160.403011,-11.587680,0.032786,-3.946356,3.798707,0.601777,3.991984,-3.772239,-0.408543,-0.090856,0.415625,-0.093440,-160.582274,188.571134,1245.933220,-11.708427,0
0.067708,182.502195,-107.221605,-72.528314,-1.126922,-4.423387,2.414891,2.278505,4.521526,-2.449036,-2.164780,-0.087210,0.416383,-0.052556,-176.951878,188.571109,1246.033922,-12.685394,0
0.068750,186.999566,-28.717958,-131.804168,-2.241592,-4.478429,0.934529,3.614588,4.525153,-0.914458,-3.504669,-0.025225,0.392061,-0.086006,-182.749915,188.646509,1247.294767,-14.081611,0
0.069792,155.032077,37.758799,-168.648037,-2.917150,-3.671145,-0.630310,4.212608,3.868666,0.577844,-4.174613,-0.058040,0.381106,-0.100873,-147.545134,188.721813,1247.924298,-13.887278,0
0.070833,82.656055,89.213688,-194.032879,-3.423819,-2.287754,-2.669831,4.704650,2.388850,2.573218,-4.621242,-0.021578,0.418106,-0.089723,-74.951457,188.571116,1248.963578,-14.536190,0
0.071875,15.794397,143.710535,-178.320767,-3.164855,-0.676855,-3.607125,4.000651,0.999709,3.613180,-4.057278,-0.028871,0.396747,-0.097156,-12.490272,188.571051,1249.209239,-15.025003,0
0.072917,-47.778983,182.868399,-129.228014,-2.219074,1.286313,-4.411669,2.865170,-0.864569,4.361445,-2.865005,-0.047102,0.422033,-0.086006,49.779522,188.721857,1249.796611,-15.936814,0
0.073958,-103.295516,190.173795,-54.154986,-0.800402,2.966931,-4.359374,1.214937,-2.522108,4.479814,-1.214747,-0.076271,0.423273,-0.108307,105.102929,188.721938,1249.890669,-16.278220,0
0.075000,-162.055128,160.083079,10.941519,0.494418,4.078781,-3.747920,-0.446651,-3.581192,3.803417,0.446866,-0.116379,0.422446,-0.082290,161.687268,188.571036,1250.584378,-16.583466,0
0.076042,-182.711391,107.665099,72.659860,1.699163,4.548474,-2.331922,-2.093099,-4.088972,2.488668,2.169039,-0.200241,0.419897,-0.078573,177.527731,188.571138,1249.734231,-16.988601,0
0.077083,-187.050562,30.195013,132.543298,2.847611,4.563152,-0.863628,-3.467031,-4.099853,1.009048,3.569487,-0.218472,0.428096,-0.056273,183.066827,188.722025,1250.457527,-17.572499,0
0.078125,-155.218673,-37.068660,169.107678,3.568207,3.700826,0.745461,-4.027202,-3.403469,-0.512847,4.258356,-0.222118,0.408597,-0.078573,147.715688,188.721840,1250.254000,-17.521089,0
0.079167,-82.740952,-89.310465,194.395307,4.086135,2.295418,2.764867,-4.526814,-1.978058,-2.546268,4.670920,-0.222118,0.427752,-0.074856,74.300153,188.571165,1250.645364,-17.994761,0
0.080208,-15.754994,-144.006977,178.245735,3.703318,0.739561,3.686071,-3.739547,-0.516377,-3.531272,4.046396,-0.203887,0.432161,-0.097156,11.670093,188.571114,1250.984386,-17.996497,0
0.081250,48.507681,-183.282291,128.448185,2.768796,-1.146548,4.458433,-2.615420,1.326139,-4.334495,2.827628,-0.203887,0.421137,-0.074856,-50.295726,188.721911,1250.658134,-19.147051,0
0.082292,103.527017,-190.493727,52.427326,1.338865,-2.856522,4.418206,-1.006821,3.001813,-4.376770,1.219005,-0.163779,0.413214,-0.086006,-104.707209,188.796965,1249.905627,-18.772424,0
0.083333,161.970231,-160.050661,-12.766392,0.032786,-4.001398,3.842957,0.632057,3.977476,-3.725737,-0.450178,-0.123671,0.413420,-0.086006,-161.269032,188.570904,1249.451550,-18.971950,0
0.084375,182.411796,-106.047104,-73.075139,-1.149440,-4.463751,2.362595,2.293644,4.507018,-2.406761,-2.153425,-0.076271,0.413627,-0.112023,-176.996911,188.570756,1248.808209,-18.830731,0
0.085417,187.033466,-28.048492,-132.521117,-2.297889,-4.482099,0.962688,3.622158,4.492510,-0.901776,-3.531164,-0.025225,0.414316,-0.123173,-182.761173,188.721655,1248.764153,-18.976641,0
0.086458,154.625280,38.087659,-169.049042,-2.984706,-3.616103,-0.670538,4.189898,3.825142,0.590527,-4.178398,0.007591,0.412525,-0.071140,-147.049768,188.797063,1248.465766,-19.256570,0
0.087500,81.785961,89.483824,-194.531097,-3.513893,-2.214365,-2.706035,4.697080,2.345326,2.645085,-4.613672,-0.032517,0.424031,-0.071140,-74.332249,188.570758,1248.631153,-20.145888,0
0.088542,16.031696,144.215571,-177.457999,-3.164855,-0.599797,-3.570920,3.959017,0.941677,3.600497,-4.026998,-0.039809,0.428647,-0.063706,-12.287622,188.570774,1248.013244,-20.746085,0
0.089583,-47.880682,183.596589,-128.353093,-2.230333,1.315668,-4.403624,2.838675,-0.886331,4.403720,-2.865005,-0.068979,0.422446,-0.100873,50.342438,188.721645,1248.606324,-20.831894,0
0.090625,-103.984811,189.844935,-53.352976,-0.811661,2.981609,-4.323169,1.165733,-2.540243,4.424857,-1.195822,-0.112733,0.423893,-0.097156,105.857237,188.797175,1247.991192,-20.929621,0
0.091667,-162.993021,159.965629,12.253900,0.449381,4.064103,-3.739875,-0.461790,-3.581192,3.811872,0.477146,-0.127317,0.423273,-0.097156,161.979985,188.570848,1248.322881,-20.710302,0
0.092708,-182.293294,106.384893,73.583387,1.710422,4.504440,-2.267558,-2.134733,-4.107107,2.463303,2.191749,-0.189302,0.417554,-0.082290,177.460181,188.646297,1248.281920,-20.712478,0
0.093750,-187.242661,28.773866,133.345308,2.926427,4.585169,-0.871674,-3.467031,-4.059956,0.975228,3.599767,-0.207533,0.422033,-0.082290,183.100602,188.721545,1248.154499,-20.941478,0
0.094792,-154.280779,-38.008261,169.229195,3.568207,3.660461,0.781665,-3.993137,-3.385334,-0.546667,4.194011,-0.182010,0.437191,-0.134323,146.589855,188.721626,1247.221463,-20.774893,0
0.095833,-81.045963,-89.745030,195.051497,4.131172,2.222028,2.821185,-4.466255,-1.941788,-2.571633,4.655780,-0.200241,0.442772,-0.071140,73.050479,188.570874,1247.006886,-20.910644,0
0.096875,-14.760601,-144.347582,177.358663,3.759615,0.699197,3.669980,-3.724407,-0.454718,-3.510135,3.959341,-0.225764,0.402672,-0.104590,10.814460,188.646239,1245.612597,-21.463709,0
0.097917,49.038777,-184.069206,127.767691,2.791315,-1.179573,4.462456,-2.592710,1.373290,-4.317585,2.801133,-0.149195,0.402879,-0.059989,-50.937450,188.721713,1245.487137,-21.838951,0
0.098958,104.137213,-189.906476,51.734681,1.293828,-2.827167,4.353843,-1.003036,3.009067,-4.321812,1.200080,-0.152841,0.413834,-0.067423,-105.506550,188.721677,1244.722438,-21.874235,0
0.100000,162.410928,-160.050661,-13.507644,0.044046,-3.953695,3.790662,0.609347,3.981103,-3.708827,-0.427468,-0.109087,0.415143,-0.115740,-161.482940,188.570935,1244.710389,-21.465330,0
0.101042,181.824200,-105.401129,-73.913604,-1.104403,-4.353667,2.390754,2.282290,4.488883,-2.377168,-2.134501,-0.079917,0.416383,-0.104590,-176.715453,188.646265,1244.062679,-21.187236,0
0.102083,187.067365,-28.036747,-133.153004,-2.286629,-4.445404,0.942574,3.591878,4.445359,-0.910231,-3.493314,-0.043455,0.413834,-0.104590,-182.626073,188.721645,1243.376747,-20.825732,0
0.103125,154.207182,38.275580,-169.024739,-3.007225,-3.616103,-0.650424,4.129339,3.767110,0.565162,-4.083773,-0.028871,0.424651,-0.071140,-146.678243,188.721568,1241.664047,-20.454164,0
0.104167,81.898960,90.012349,-194.288064,-3.502634,-2.192348,-2.661785,4.644091,2.348953,2.560536,-4.575822,-0.061686,0.420517,-0.115740,-74.017016,188.570790,1240.740003,-19.509020,0
0.105208,16.212494,144.450471,-177.081297,-3.221151,-0.665847,-3.474375,3.898458,0.934423,3.507493,-3.924803,-0.047102,0.431334,-0.067423,-11.747222,188.646203,1238.728795,-19.444640,0
0.106250,-48.276180,183.408669,-127.842723,-2.207814,1.245948,-4.307079,2.797041,-0.821045,4.306487,-2.796875,-0.061686,0.422653,-0.082290,51.029196,188.721697,1236.775069,-18.855965,0
0.107292,-104.527208,189.469094,-52.550965,-0.766624,2.838500,-4.222601,1.173303,-2.474957,4.344535,-1.207177,-0.120025,0.420793,-0.067423,106.318828,188.646243,1235.362793,-17.945449,0
0.108333,-162.665324,159.495829,13.007303,0.471899,3.979706,-3.679534,-0.439081,-3.446993,3.748459,0.427941,-0.149195,0.418243,-0.074856,161.991243,188.570892,1233.198478,-16.766380,0
0.109375,-182.157695,105.750663,74.361094,1.699163,4.387017,-2.271581,-2.070389,-3.980162,2.480213,2.134974,-0.167425,0.413420,-0.100873,177.077398,188.721607,1231.532875,-15.496089,0
0.110417,-186.632465,27.740306,133.442522,2.881389,4.453068,-0.823401,-3.342128,-3.965654,0.979456,3.433227,-0.189302,0.418243,-0.086006,182.537686,188.721550,1228.847840,-14.093065,0
