1-Time,2-VGERA,3-VGERB,4-VGERC,5-VN,6-IGERAN,7-IGERBN,8-IGERCN,9-IGERAT,10-IGERBT,11-IGERCT,12-IN,13-IFD,14-IFAULT,15-VFAULT,16-Speed (rad/s),17-Active Power,18-Reactive Power,19-FAULT 
0.000000,144.071149,-160.590931,22.218271,0.775900,-6.298488,1.393119,4.931746,6.632440,-1.476714,-4.808330,-0.021578,0.184466,-0.115740,21.926427,188.495620,998.654033,-1303.442531,0
0.001042,191.101439,-97.907812,-24.905912,-0.147362,-5.069214,-1.100969,6.033163,5.323093,1.038640,-5.864344,-0.025225,0.196454,-0.078573,-7.210118,188.646545,997.731119,-1302.602782,0
0.002083,187.067365,-50.927772,-100.926770,-1.678627,-3.454646,-3.257148,6.309463,3.904936,3.177749,-6.303403,0.007591,0.194181,-0.086006,-58.525561,188.571022,997.553778,-1301.961340,0
0.003125,143.031556,-6.672574,-172.172021,-3.052262,-1.348369,-4.813942,5.711443,1.768633,4.720781,-5.599394,0.007591,0.212370,-0.071140,-117.530441,188.571152,995.929252,-1301.785717,0
0.004167,88.769315,45.381311,-203.231694,-3.536412,1.370710,-5.771350,3.928738,-0.712235,5.781880,-3.930211,-0.047102,0.208236,-0.078573,-141.296764,188.495662,995.686026,-1301.818834,0
0.005208,41.343528,124.260798,-176.024101,-3.052262,3.689817,-6.060986,1.994634,-2.939213,6.073577,-1.962014,-0.120025,0.195007,-0.086006,-134.789452,188.721866,994.877280,-1301.473363,0
0.006250,-1.844786,182.351618,-123.443818,-2.072703,5.186962,-5.043237,-0.454220,-4.477061,5.219625,0.441458,-0.149195,0.189426,-0.078573,-100.676729,188.571107,994.316333,-1301.255140,0
0.007292,-65.124368,192.240917,-66.914241,-0.980551,6.460269,-3.410012,-3.084752,-5.539772,3.490583,3.159084,-0.211179,0.178609,-0.074856,-55.913630,188.571029,994.111897,-1300.746974,0
0.008333,-143.681449,160.353214,-21.284714,-0.136103,6.364863,-1.277969,-4.772835,-5.630447,1.490982,4.960742,-0.243995,0.181090,-0.089723,-21.237990,188.495749,993.039975,-1300.640090,0
0.009375,-191.321934,96.589555,25.511374,0.854715,5.124581,1.204051,-5.870467,-4.353743,-0.994780,5.944840,-0.251287,0.193147,-0.104590,7.594579,188.721980,992.892073,-1300.290026,0
0.010417,-186.847164,50.196765,101.374260,2.295906,3.487996,3.324026,-6.105133,-2.950094,-3.100069,6.436890,-0.287749,0.200313,-0.089723,59.135189,188.571029,992.792996,-1299.685185,0
0.011458,-142.879154,6.493582,172.534450,3.647022,1.330346,4.848638,-5.488188,-0.889958,-4.660011,5.729096,-0.254934,0.214713,-0.086006,117.014236,188.571056,993.454011,-1299.643042,0
0.012500,-89.227109,-45.466342,202.865022,4.198728,-1.322683,5.874432,-3.709267,1.663450,-5.716883,4.063698,-0.222118,0.186808,-0.082290,141.985200,188.495640,992.693140,-1299.791404,0
0.013542,-41.473624,-124.721670,176.265013,3.725837,-3.663806,6.152000,-1.824368,3.901309,-5.991669,2.057651,-0.200241,0.190873,-0.086006,134.622256,188.721862,992.395415,-1299.318171,0
0.014583,2.019788,-182.213495,123.684729,2.689981,-5.164621,5.073910,0.605562,5.464546,-5.137717,-0.307971,-0.130964,0.195972,-0.063706,100.318141,188.571129,991.855305,-1299.714953,0
0.015625,65.547968,-192.419909,67.130849,1.620348,-6.371877,3.432639,3.258804,6.538138,-3.395993,-3.036953,-0.072625,0.178609,-0.074856,56.838491,188.571105,991.849991,-1300.320497,0
0.016667,144.116349,-160.461736,21.161075,0.730863,-6.272802,1.368983,4.931746,6.585289,-1.497851,-4.834825,-0.017932,0.184603,-0.048839,21.205894,188.495691,991.948064,-1299.887010,0
0.017708,191.282237,-96.885997,-25.647164,-0.192400,-5.094901,-1.149242,6.040733,5.315839,1.047095,-5.883269,-0.006994,0.194456,-0.059989,-7.705484,188.721895,992.263001,-1299.708285,0
0.018750,186.852667,-49.530116,-101.145500,-1.689887,-3.443638,-3.220944,6.290539,3.915817,3.181976,-6.273123,-0.003348,0.179160,-0.089723,-59.696427,188.571147,992.462513,-1298.963980,0
0.019792,142.681259,-5.521563,-172.038353,-2.973447,-1.322683,-4.797851,5.688734,1.750498,4.720781,-5.553974,0.003945,0.216435,-0.086006,-116.618516,188.571176,992.110524,-1298.406129,0
0.020833,88.023520,46.003796,-203.012964,-3.536412,1.378049,-5.706986,3.875748,-0.683219,5.743833,-3.960491,-0.058040,0.182605,-0.071140,-141.758355,188.495758,992.704263,-1297.410049,0
0.021875,40.868931,124.366504,-176.048405,-3.119818,3.623767,-6.073054,1.979495,-2.906570,6.010164,-1.931734,-0.087210,0.174820,-0.086006,-135.048394,188.721916,992.111312,-1296.546096,0
0.022917,-2.240284,182.492559,-123.650396,-2.061443,5.128251,-4.994964,-0.393661,-4.426283,5.173122,0.380898,-0.127317,0.197005,-0.059989,-102.556869,188.571127,992.265399,-1295.402043,0
0.023958,-65.497266,191.829842,-67.108668,-1.025588,6.364863,-3.357716,-3.069613,-5.507129,3.486355,3.140159,-0.200241,0.158973,-0.086006,-56.037471,188.571047,992.158983,-1294.817787,0
0.025000,-144.574143,160.423685,-21.102439,-0.158622,6.313490,-1.298082,-4.738770,-5.572415,1.533256,4.903967,-0.240349,0.185292,-0.078573,-20.506199,188.495698,992.542704,-1293.637829,0
0.026042,-190.802138,97.188550,26.131109,0.787160,5.021836,1.191983,-5.832617,-4.324727,-0.935596,5.922130,-0.240349,0.196110,-0.093440,7.842262,188.721971,992.644690,-1292.870524,0
0.027083,-186.926263,49.726964,101.848175,2.228350,3.418276,3.328048,-6.108918,-2.895689,-3.108524,6.380115,-0.236703,0.199761,-0.086006,60.576255,188.646639,991.906496,-1292.418161,0
0.028125,-142.585356,5.283846,171.890411,3.556947,1.356033,4.848638,-5.435199,-0.755759,-4.605054,5.653396,-0.203887,0.206307,-0.104590,116.822845,188.571035,989.962412,-1291.635723,0
0.029167,-87.916318,-46.041848,203.290331,4.153690,-1.377725,5.781909,-3.648708,1.699720,-5.674608,4.033418,-0.207533,0.208650,-0.097156,144.022957,188.495843,989.598658,-1291.079370,0
0.030208,-40.309732,-124.240125,176.240709,3.692059,-3.641789,6.119818,-1.752454,3.894055,-5.945167,2.019801,-0.171072,0.204516,-0.100873,136.119613,188.722050,988.904231,-1290.369855,0
0.031250,2.833383,-182.765510,123.308027,2.689981,-5.105909,5.041728,0.628272,5.410141,-5.082760,-0.292831,-0.120025,0.197488,-0.093440,100.340658,188.646437,988.846970,-1289.238245,0
0.032292,65.694867,-191.926618,66.790602,1.654126,-6.291149,3.436662,3.232309,6.516376,-3.341035,-3.002888,-0.087210,0.179367,-0.093440,57.255049,188.571076,988.318157,-1288.429511,0
0.033333,144.590946,-160.473481,21.100317,0.764641,-6.243446,1.356915,4.882542,6.581662,-1.455576,-4.823470,-0.017932,0.187359,-0.104590,21.262185,188.571069,988.072137,-1288.489849,0
0.034375,190.796341,-97.367542,-26.133231,-0.181140,-4.981147,-1.125105,6.014238,5.236045,1.047095,-5.803784,-0.006994,0.195696,-0.086006,-8.065750,188.721864,986.973226,-1287.407234,0
0.035417,186.999566,-50.117366,-101.923207,-1.678627,-3.381257,-3.220944,6.199700,3.894055,3.152384,-6.227703,-0.010640,0.201277,-0.059989,-59.336161,188.571029,986.751195,-1286.990884,0
0.036458,142.929857,-5.685993,-172.074808,-3.029743,-1.311674,-4.781760,5.616820,1.750498,4.699644,-5.580469,-0.003348,0.212990,-0.082290,-117.564215,188.571147,986.990229,-1287.036660,0
0.037500,88.249518,46.297422,-203.000813,-3.547671,1.378049,-5.735145,3.871964,-0.712235,5.718468,-3.884791,-0.061686,0.206996,-0.086006,-141.127889,188.571156,985.913978,-1286.998387,0
0.038542,40.642933,124.895029,-175.732461,-3.063521,3.693487,-6.081099,1.956785,-2.935586,6.035529,-1.931734,-0.076271,0.199279,-0.104590,-134.586802,188.721934,986.233132,-1287.338309,0
0.039583,-2.839180,182.351618,-123.067116,-2.083962,5.194301,-4.942669,-0.420156,-4.458926,5.185805,0.433888,-0.160133,0.190873,-0.089723,-100.474079,188.571094,986.103484,-1287.741194,0
0.040625,-66.152661,191.923802,-66.355264,-1.014329,6.394219,-3.333580,-3.069613,-5.539772,3.448308,3.166654,-0.196595,0.180952,-0.093440,-55.587138,188.571237,986.119505,-1288.045999,0
0.041667,-144.167346,160.083079,-20.446249,-0.124844,6.320829,-1.273946,-4.772835,-5.601431,1.486754,4.949387,-0.236703,0.179229,-0.089723,-20.697590,188.646520,985.868172,-1288.642295,0
0.042708,-191.321934,96.295929,26.544266,0.843456,5.029175,1.252324,-5.840187,-4.317473,-1.028600,5.952410,-0.287749,0.191493,-0.123173,8.360145,188.721922,985.556197,-1289.423080,0
0.043750,-186.564666,49.362869,102.164119,2.318424,3.421946,3.271730,-6.093778,-2.935586,-3.100069,6.417965,-0.276811,0.201071,-0.089723,59.788172,188.571138,986.414132,-1289.397054,0
0.044792,-142.370658,5.507001,172.753180,3.624503,1.334016,4.800365,-5.450339,-0.839180,-4.600826,5.721526,-0.222118,0.198797,-0.067423,117.318211,188.571216,988.110869,-1289.391102,0
0.045833,-88.639513,-46.429433,202.561230,4.221246,-1.363047,5.802023,-3.678988,1.696093,-5.712655,4.025848,-0.192949,0.193698,-0.100873,141.827584,188.646507,988.121632,-1289.747037,0
0.046875,-40.931228,-125.449861,176.009828,3.748356,-3.656467,6.139931,-1.801658,3.937579,-5.945167,1.993306,-0.174718,0.164967,-0.119457,134.464640,188.721876,987.990453,-1290.473187,0
0.047917,2.878582,-182.248730,123.417393,2.701241,-5.142604,5.021615,0.632057,5.388379,-5.120807,-0.338251,-0.120025,0.195421,-0.115740,100.047941,188.571178,987.800625,-1290.641174,0
0.048958,66.564962,-192.396419,66.669086,1.564051,-6.371877,3.448730,3.251234,6.516376,-3.336808,-3.002888,-0.043455,0.182536,-0.089723,56.410675,188.571114,988.202432,-1290.676517,0
0.050000,144.489247,-159.850996,20.431975,0.753382,-6.254454,1.280483,4.935531,6.520003,-1.417529,-4.800760,-0.010640,0.183914,-0.119457,20.733044,188.646466,987.422201,-1289.770225,0
0.051042,191.508236,-96.592371,-26.582843,-0.203659,-4.992155,-1.145219,5.995314,5.279569,1.068233,-5.856774,-0.028871,0.193698,-0.130607,-8.437275,188.721855,988.334757,-1290.453598,0
0.052083,186.445869,-48.989845,-102.044724,-1.678627,-3.399604,-3.237034,6.226195,3.828769,3.173521,-6.257983,0.011237,0.191149,-0.108307,-60.428218,188.571114,987.903365,-1290.494754,0
0.053125,142.263161,-4.863842,-172.475813,-2.995965,-1.267641,-4.781760,5.594110,1.721482,4.716554,-5.504769,-0.032517,0.220569,-0.104590,-116.945008,188.571170,987.215601,-1290.077014,0
0.054167,87.526323,46.825947,-202.672717,-3.536412,1.385388,-5.715031,3.883318,-0.719489,5.743833,-3.888576,-0.058040,0.194318,-0.074856,-141.611997,188.646545,987.484473,-1289.984771,0
0.055208,39.851938,125.388319,-175.756765,-3.097299,3.656792,-6.036849,1.998419,-2.913824,6.005937,-1.958229,-0.120025,0.191562,-0.086006,-134.958327,188.721902,987.949678,-1289.234654,0
0.056250,-3.099078,182.422088,-123.249391,-2.117740,5.124581,-4.938646,-0.439081,-4.400894,5.206942,0.399823,-0.152841,0.193423,-0.104590,-102.297927,188.571026,988.485499,-1288.469744,0
0.057292,-66.796757,191.700646,-66.780573,-1.025588,6.342846,-3.325534,-3.046903,-5.474486,3.448308,3.140159,-0.222118,0.187015,-0.089723,-55.801047,188.571047,988.386301,-1287.614397,0
0.058333,-144.913141,160.000864,-20.166760,-0.158622,6.265787,-1.298082,-4.712276,-5.557907,1.507891,4.873687,-0.225764,0.186395,-0.097156,-19.954541,188.721936,988.659817,-1286.326661,0
0.059375,-191.186335,96.777475,26.981726,0.820937,5.010827,1.252324,-5.802338,-4.310219,-0.999008,5.941055,-0.273164,0.196248,-0.063706,8.348887,188.721969,988.862286,-1286.041792,0
0.060417,-186.677665,49.186694,102.759551,2.307165,3.462310,3.299889,-6.040789,-2.928332,-3.049339,6.368760,-0.262226,0.204378,-0.093440,61.375596,188.571055,988.920058,-1285.099001,0
0.061458,-142.302858,4.520421,172.534450,3.624503,1.370710,4.776229,-5.408704,-0.828299,-4.605054,5.683676,-0.243995,0.220294,-0.086006,117.273178,188.570986,988.654834,-1284.720937,0
0.062500,-87.464321,-47.016684,202.852870,4.221246,-1.352038,5.798000,-3.690342,1.659823,-5.649243,3.987998,-0.207533,0.196661,-0.056273,143.820307,188.721864,988.561052,-1283.330098,0
0.063542,-39.496138,-125.226706,175.936918,3.748356,-3.616103,6.079591,-1.813013,3.843277,-5.932485,2.069006,-0.182010,0.200244,-0.104590,136.052063,188.721911,989.765503,-1281.497627,0
0.064583,3.759977,-182.753765,122.894871,2.689981,-5.091231,5.025637,0.582852,5.352109,-5.146172,-0.266336,-0.130964,0.194663,-0.071140,100.036683,188.571038,991.059013,-1280.393530,0
0.065625,66.949159,-191.856148,66.122260,1.597829,-6.316835,3.408503,3.217169,6.505495,-3.379083,-3.029383,-0.058040,0.183501,-0.082290,56.804716,188.495635,991.443257,-1280.156812,0
0.066667,144.941244,-160.038916,20.480582,0.730863,-6.243446,1.340824,4.901467,6.567154,-1.451349,-4.793190,-0.028871,0.185913,-0.097156,20.811852,188.721887,992.369304,-1280.350662,0
0.067708,191.225738,-96.909487,-27.032455,-0.192400,-4.992155,-1.145219,5.980174,5.257807,1.064005,-5.815139,0.014883,0.196730,-0.086006,-8.662441,188.797302,992.096139,-1279.806137,0
0.068750,186.784867,-49.553606,-102.822431,-1.712405,-3.395935,-3.208875,6.245120,3.865039,3.114336,-6.235273,-0.003348,0.196041,-0.086006,-60.112985,188.565075,992.827259,-1279.259729,0
0.069792,142.466560,-5.075253,-172.888970,-3.063521,-1.304335,-4.793828,5.590325,1.757752,4.691189,-5.542619,-0.010640,0.199072,-0.123173,-118.082098,188.495702,993.639568,-1279.181824,0
0.070833,87.887921,47.166552,-202.648414,-3.615227,1.337685,-5.739168,3.860609,-0.741251,5.722695,-3.907501,-0.003348,0.210303,-0.112023,-140.891464,188.721971,993.700200,-1279.277314,0
0.071875,39.976237,126.010805,-175.489428,-3.142336,3.645784,-6.044895,2.005989,-2.935586,6.027074,-1.935519,-0.076271,0.200244,-0.100873,-134.541769,188.797456,993.729976,-1279.715452,0
0.072917,-3.833573,182.469068,-122.726869,-2.083962,5.120912,-4.950714,-0.401231,-4.440791,5.126620,0.388468,-0.123671,0.199072,-0.089723,-100.226396,188.571145,993.320422,-1279.408871,0
0.073958,-67.361753,191.959037,-65.638316,-0.980551,6.364863,-3.333580,-3.062043,-5.525264,3.448308,3.113664,-0.196595,0.177507,-0.074856,-55.125547,188.571123,994.209732,-1279.267202,0
0.075000,-144.551543,159.824689,-19.255385,-0.091066,6.247440,-1.294060,-4.738770,-5.561534,1.503664,4.922892,-0.251287,0.183983,-0.074856,-19.965799,188.722016,994.267943,-1279.542578,0
0.076042,-191.785231,95.931834,27.504248,0.854715,5.032844,1.220142,-5.817477,-4.299338,-0.965188,5.952410,-0.254934,0.195627,-0.067423,9.035645,188.721934,994.874826,-1279.115763,0
0.077083,-186.248268,48.705149,103.099797,2.307165,3.410937,3.295867,-6.025649,-2.946467,-3.108524,6.346050,-0.269518,0.202655,-0.093440,60.576255,188.570948,994.816681,-1279.224196,0
0.078125,-141.896061,4.626126,173.676707,3.579466,1.363371,4.788297,-5.442769,-0.857315,-4.605054,5.683676,-0.243995,0.206651,-0.056273,118.016227,188.571105,995.432217,-1279.143678,0
0.079167,-88.142316,-47.333799,202.378955,4.108653,-1.359377,5.769841,-3.667633,1.634434,-5.623878,4.056128,-0.203887,0.207478,-0.082290,141.669967,188.721965,996.200135,-1278.824955,0
0.080208,-39.914235,-126.495167,175.912614,3.703318,-3.630781,6.115795,-1.782734,3.890428,-5.932485,2.091716,-0.189302,0.171581,-0.086006,134.453381,188.721817,996.682259,-1279.445539,0
0.081250,3.895576,-182.401415,123.162207,2.656203,-5.076553,5.037706,0.624487,5.370244,-5.078532,-0.311756,-0.123671,0.192389,-0.071140,99.834033,188.571120,995.537445,-1279.717139,0
0.082292,67.819253,-192.314203,65.964289,1.609088,-6.364538,3.444707,3.239879,6.490987,-3.425585,-3.018028,-0.061686,0.185224,-0.089723,55.937825,188.571149,996.479957,-1279.464582,0
0.083333,144.816944,-159.486900,19.775785,0.697085,-6.236107,1.324733,4.920391,6.520003,-1.392164,-4.781835,-0.021578,0.185361,-0.089723,20.226420,188.721869,995.606253,-1278.899297,0
0.084375,192.141032,-96.063846,-27.506370,-0.226178,-4.944452,-1.169355,6.006668,5.243299,1.064005,-5.841634,-0.014286,0.196110,-0.097156,-8.977674,188.721940,996.052068,-1278.968598,0
0.085417,186.253771,-48.320380,-103.162678,-1.667368,-3.395935,-3.196807,6.192130,3.890428,3.156611,-6.193638,0.011237,0.183846,-0.089723,-61.295109,188.571062,996.126989,-1278.459153,0
0.086458,141.799864,-4.159142,-173.447947,-3.063521,-1.341030,-4.769692,5.597895,1.696093,4.661596,-5.538834,-0.010640,0.248129,-0.078573,-117.631765,188.571147,995.906984,-1278.105367,0
0.087500,86.972627,47.800783,-202.223106,-3.581449,1.326677,-5.686872,3.890888,-0.683219,5.676193,-3.884791,-0.065333,0.171995,-0.078573,-141.364314,188.722000,996.017890,-1276.588699,0
0.088542,39.106143,126.633291,-175.598793,-3.097299,3.609089,-6.000645,1.964355,-2.931959,5.972117,-1.954444,-0.079917,0.201208,-0.097156,-134.980844,188.721893,996.213664,-1275.879411,0
0.089583,-4.172571,182.492559,-122.751173,-2.106481,5.106234,-4.918532,-0.439081,-4.393640,5.160440,0.373328,-0.156487,0.200795,-0.052556,-101.971436,188.571210,996.740614,-1275.327505,0
0.090625,-68.197948,191.888567,-65.844894,-0.980551,6.350185,-3.341625,-3.027978,-5.481740,3.452535,3.098524,-0.192949,0.181227,-0.082290,-55.193097,188.571172,996.885214,-1274.747232,0
0.091667,-145.387738,159.519319,-19.376902,-0.113585,6.225423,-1.261878,-4.689566,-5.510756,1.499437,4.862332,-0.247641,0.188944,-0.071140,-19.402883,188.721973,996.711428,-1273.724195,0
0.092708,-191.988630,96.131499,27.966011,0.809678,5.018166,1.244278,-5.779628,-4.284830,-0.952506,5.944840,-0.265872,0.198383,-0.063706,8.956837,188.722003,996.851832,-1273.557918,0
0.093750,-186.293467,48.752129,103.731684,2.318424,3.447632,3.303912,-5.995370,-2.906570,-3.045111,6.353620,-0.265872,0.204929,-0.052556,62.174937,188.571183,996.960922,-1273.076746,0
0.094792,-141.602263,3.862700,173.749617,3.658281,1.381719,4.796342,-5.416274,-0.828299,-4.571234,5.645826,-0.229410,0.216366,-0.086006,118.151327,188.646600,996.522566,-1272.401948,0
0.095833,-86.910624,-48.061990,202.427562,4.198728,-1.300666,5.753750,-3.678988,1.656196,-5.640788,3.995568,-0.222118,0.221534,-0.093440,143.583882,188.722016,996.134117,-1272.191628,0
0.096875,-38.626043,-126.706577,175.693884,3.703318,-3.612434,6.103727,-1.820583,3.930325,-5.932485,2.050081,-0.200241,0.154425,-0.063706,136.018288,188.721980,995.888676,-1272.281527,0
0.097917,4.754370,-182.835980,122.360197,2.678722,-5.061875,5.013569,0.601777,5.326720,-5.040485,-0.311756,-0.134610,0.225117,-0.104590,99.552575,188.571134,995.865788,-1271.250305,0
0.098958,68.361650,-192.255478,65.490374,1.564051,-6.360869,3.428617,3.213384,6.490987,-3.421358,-3.006673,-0.083563,0.187359,-0.097156,56.196767,188.646485,996.151563,-1270.915923,0
0.100000,145.167242,-159.533880,19.411234,0.719604,-6.214090,1.393119,4.856047,6.567154,-1.438667,-4.751555,-0.017932,0.190115,-0.078573,20.170128,188.721945,997.303378,-1270.628747,0
0.101042,192.174932,-96.427941,-28.199015,-0.214918,-5.010503,-1.100969,6.014238,5.275942,1.004821,-5.811354,0.011237,0.200864,-0.089723,-9.304166,188.646529,998.242075,-1269.974790,0
0.102083,186.310270,-49.166021,-104.061902,-1.644849,-3.439968,-3.164625,6.211055,3.857785,3.084744,-6.239058,0.022176,0.215402,-0.082290,-61.137492,188.571223,998.690300,-1269.990860,0
0.103125,141.867664,-4.464512,-174.128441,-3.074780,-1.337361,-4.753601,5.605465,1.739617,4.678506,-5.599394,-0.003348,0.237036,-0.100873,-119.005281,188.646542,999.870630,-1270.470799,0
0.104167,87.311624,48.282328,-202.125892,-3.592708,1.348694,-5.755259,3.834114,-0.708608,5.735378,-3.930211,-0.039809,0.216297,-0.078573,-140.688814,188.721980,1000.605340,-1271.386103,0
0.105208,39.264342,127.514166,-175.367911,-3.052262,3.656792,-6.036849,2.005989,-2.917451,6.022847,-1.962014,-0.120025,0.202517,-0.086006,-134.665611,188.646565,1001.397889,-1271.597720,0
0.106250,-4.681068,182.551284,-122.131437,-2.061443,5.172284,-4.958760,-0.439081,-4.419029,5.147757,0.407393,-0.138256,0.199417,-0.078573,-99.640963,188.571382,1001.203812,-1271.734748,0
0.107292,-68.988943,192.182192,-64.957822,-0.946773,6.405227,-3.414034,-3.031763,-5.507129,3.511720,3.109879,-0.156487,0.189978,-0.093440,-54.528856,188.721916,1002.449747,-1271.785792,0
0.108333,-145.093940,158.967303,-18.404768,-0.091066,6.269457,-1.277969,-4.708491,-5.565161,1.520574,4.847192,-0.254934,0.189495,-0.108307,-19.470433,188.721918,1003.286382,-1271.416879,0
0.109375,-192.666625,95.191899,28.500685,0.843456,5.051192,1.187960,-5.836402,-4.295711,-0.973643,5.952410,-0.280457,0.198452,-0.082290,9.666111,188.571214,1003.733455,-1271.433669,0
