1-Time,2-VGERA,3-VGERB,4-VGERC,5-VN,6-IGERAN,7-IGERBN,8-IGERCN,9-IGERAT,10-IGERBT,11-IGERCT,12-IN,13-IFD,14-IFAULT,15-VFAULT,16-Speed (rad/s),17-FAULT 
0.000000,-179.787524,119.893784,4.640720,2.995908,5.461343,0.169155,-5.382305,-5.101812,0.089363,5.242812,-0.234377,0.195082,-0.073035,-102.794249,188.503805,0
0.001036,-190.165912,66.447864,70.600947,4.240008,4.144190,2.677300,-6.382312,-3.580051,-2.445439,6.103811,-0.289172,0.193318,-0.058098,-118.786589,188.495322,0
0.002078,-163.284185,22.944529,148.046970,5.687688,2.131182,4.328231,-5.897234,-1.764231,-4.191264,5.829857,-0.238030,0.200308,-0.039427,-105.825329,188.495345,0
0.003120,-103.236988,-23.144120,200.305493,6.682968,-0.290107,5.542618,-4.539015,0.724252,-5.315977,4.438739,-0.197847,0.199655,-0.065566,-70.481580,188.495381,0
0.004161,-58.229946,-95.279198,189.324432,6.490698,-2.690096,6.181560,-2.677062,3.102463,-6.104955,2.830592,-0.172276,0.205207,-0.050629,-40.951171,188.495387,0
0.005203,-16.807134,-169.540515,141.793182,5.597208,-4.610796,5.760890,-0.509136,5.050610,-5.693680,0.642516,-0.132093,0.202137,-0.054364,-13.388701,188.495423,0
0.006245,36.638728,-200.793813,85.755303,4.567998,-5.803690,4.113928,2.173719,6.337123,-4.128313,-1.872882,-0.066339,0.183062,-0.050629,12.918358,188.495481,0
0.007286,118.089224,-172.874844,40.206061,3.719748,-6.353983,2.296316,4.315525,6.800267,-2.311145,-4.039610,-0.022503,0.181625,-0.009553,63.360957,188.495432,0
0.008328,179.463495,-120.830310,-3.730492,2.860188,-5.406058,0.077878,5.274487,6.032035,-0.137258,-5.064270,-0.007891,0.198348,-0.069301,106.044896,188.495356,0
0.009375,190.000678,-66.369594,-71.561932,1.593468,-4.010799,-2.489796,6.296883,4.495572,2.443708,-5.982195,0.032292,0.197499,-0.035692,122.037236,188.497674,0
0.010414,162.982841,-22.383023,-148.010796,0.179718,-2.026193,-4.200255,5.808073,2.657697,4.193729,-5.697567,-0.004238,0.211675,-0.054364,109.256936,188.495687,0
0.011453,103.139809,23.294875,-200.564773,-0.872112,0.448350,-5.402736,4.479706,0.154511,5.356213,-4.363374,-0.037115,0.214680,-0.035692,75.100737,188.495810,0
0.012495,58.450357,95.369548,-189.214395,-0.657222,2.841238,-6.065490,2.584170,-2.304566,6.166174,-2.673397,-0.048074,0.202986,-0.061832,44.292297,188.495683,0
0.013536,16.982175,170.295315,-141.350758,0.236268,4.772589,-5.684506,0.457289,-4.260065,5.805259,-0.478206,-0.117481,0.208343,-0.035692,17.815588,188.495729,0
0.014578,-36.248180,201.125782,-85.534470,1.276788,6.018737,-3.997858,-2.262880,-5.487765,4.265072,2.079886,-0.183235,0.189268,-0.050629,-7.812871,188.499408,0
0.015620,-118.821583,173.279298,-39.862121,2.136348,6.583231,-2.196121,-4.475582,-6.002370,2.414331,4.214594,-0.223418,0.180776,-0.065566,-58.662630,188.570770,0
0.016661,-179.537989,120.594476,3.668182,2.973288,5.578502,0.137407,-5.456932,-5.234139,0.211067,5.278390,-0.238030,0.196585,-0.058098,-100.995959,188.492099,0
0.017703,-190.608269,66.725725,70.613258,4.228698,4.222296,2.665395,-6.475596,-3.701351,-2.458029,6.206988,-0.278213,0.195866,-0.058098,-117.406769,188.495606,0
0.018745,-163.272843,22.920367,147.837690,5.687688,2.223490,4.391729,-6.005444,-1.878179,-4.178673,5.908129,-0.238030,0.213634,-0.031958,-105.011009,188.495712,0
0.019786,-102.715233,-22.854178,201.142614,6.762138,-0.279457,5.618021,-4.647225,0.639710,-5.404108,4.538358,-0.238030,0.213177,-0.046895,-69.927390,188.495736,0
0.020828,-58.241288,-94.771800,189.225948,6.513318,-2.714947,6.225214,-2.747958,3.113490,-6.176299,2.851939,-0.183235,0.204750,-0.076769,-40.781521,188.495759,0
0.021870,-16.931901,-170.349935,141.473106,5.574588,-4.646299,5.860105,-0.572569,5.105746,-5.790203,0.692326,-0.080951,0.194168,-0.058098,-13.219051,188.495732,0
0.022911,35.935493,-200.697166,85.398296,4.579308,-5.856944,4.193299,2.140137,6.392259,-4.216444,-1.915576,-0.080951,0.184891,-0.050629,12.997528,188.495602,0
0.023953,117.987142,-173.225190,39.947538,3.697128,-6.456941,2.347908,4.334182,6.899513,-2.403472,-4.050284,-0.055380,0.179469,-0.017021,62.829387,188.571089,0
0.025007,178.896370,-118.788637,-4.370644,2.860188,-5.388307,0.058035,5.345383,6.076144,-0.107881,-5.106964,-0.026156,0.195801,-0.073035,107.560436,188.495635,0
0.026050,190.624515,-65.004452,-72.091288,1.548228,-4.049852,-2.469953,6.352853,4.591141,2.523445,-6.042678,0.021333,0.198152,-0.054364,123.224786,188.495709,0
0.027095,161.678454,-21.416551,-148.380114,0.145788,-2.065247,-4.184381,5.841656,2.668724,4.210515,-5.747377,-0.026156,0.194821,-0.073035,110.908196,188.495539,0
0.028127,101.835421,23.476089,-201.598864,-0.872112,0.391546,-5.474171,4.531945,0.139808,5.431753,-4.377606,-0.022503,0.220820,-0.039427,75.541827,188.646496,0
0.029173,57.361477,95.925270,-188.426516,-0.657222,2.827037,-6.049615,2.617752,-2.267808,6.237518,-2.687629,-0.091910,0.177183,-0.046895,43.930377,188.495720,0
0.030206,16.868750,170.681904,-141.006061,0.191028,4.786790,-5.696412,0.487140,-4.223307,5.872406,-0.552920,-0.132093,0.167646,-0.061832,17.849518,188.495573,0
0.031247,-36.123412,200.992892,-85.177462,1.299408,6.022287,-4.029606,-2.236760,-5.517171,4.281859,2.054981,-0.205153,0.183454,-0.050629,-8.864701,188.493574,0
0.032286,-117.902841,173.230975,-39.775947,2.136348,6.597432,-2.251681,-4.389761,-6.009722,2.439511,4.171900,-0.190541,0.180123,-0.084238,-58.391190,188.570763,0
0.033328,-179.606044,120.389101,3.114205,2.950668,5.621106,0.073909,-5.445738,-5.256193,0.219461,5.257043,-0.234377,0.197630,-0.031958,-102.511499,188.495170,0
0.034369,-190.630954,66.568673,69.813068,4.251318,4.215196,2.649520,-6.501716,-3.745460,-2.420259,6.235451,-0.252642,0.195343,-0.050629,-119.024099,188.495343,0
0.035411,-163.182103,23.451927,147.665341,5.687688,2.301596,4.407603,-6.009175,-1.907585,-4.220640,5.957939,-0.263601,0.204881,-0.017021,-105.814019,188.495249,0
0.036453,-102.805973,-22.250133,200.908713,6.773448,-0.236853,5.570398,-4.688270,0.613980,-5.387321,4.559705,-0.223418,0.205012,-0.046895,-70.481580,188.572687,0
0.037494,-58.468138,-94.445615,189.546023,6.535938,-2.665244,6.276806,-2.822585,3.120841,-6.209873,2.912422,-0.219765,0.195539,-0.061832,-41.256541,188.495855,0
0.038536,-17.635136,-170.047913,141.780872,5.619828,-4.596595,5.911696,-0.587495,5.068989,-5.794400,0.749251,-0.168623,0.197434,-0.058098,-14.135161,188.495642,0
0.039578,35.538506,-201.107917,86.260038,4.601928,-5.846293,4.232985,2.106554,6.366529,-4.279394,-1.851535,-0.088257,0.179469,-0.039427,12.352858,188.495477,0
0.040619,117.953114,-173.104381,40.833902,3.731058,-6.464041,2.387594,4.315525,6.917891,-2.437046,-4.021821,-0.026156,0.185871,-0.050629,63.179997,188.571120,0
0.041661,179.225302,-120.830310,-2.733333,2.894118,-5.555170,0.137407,5.304338,6.160687,-0.208602,-5.082059,-0.011544,0.200308,-0.031958,105.977036,188.495835,0
0.042703,190.340953,-67.384390,-69.936932,1.604778,-4.120858,-2.430267,6.367779,4.627899,2.393347,-6.056909,0.010374,0.200896,-0.020755,122.139026,188.495624,0
0.043744,163.425199,-23.687761,-147.616857,0.168408,-2.189506,-4.172475,5.897626,2.760618,4.210515,-5.786513,0.006721,0.222715,-0.039427,109.562306,188.495678,0
0.044786,103.389344,22.304241,-201.007955,-0.860802,0.316990,-5.486077,4.614035,0.246405,5.423360,-4.480783,-0.018850,0.211217,-0.009553,75.236457,188.572025,0
0.045828,59.380442,94.584290,-189.312879,-0.668532,2.802185,-6.144861,2.740887,-2.242078,6.258502,-2.776575,-0.033462,0.196715,-0.054364,44.869107,188.495622,0
0.046869,18.286563,170.754389,-141.510796,0.202338,4.790341,-5.771815,0.524454,-4.234335,5.901783,-0.570710,-0.110175,0.187635,-0.031958,18.641218,188.495606,0
0.047911,-35.329437,201.174106,-86.223864,1.220238,6.064891,-4.089135,-2.229297,-5.550253,4.386777,2.030076,-0.168623,0.186329,-0.031958,-7.179511,188.495694,0
0.048953,-118.662788,173.460512,-40.797727,2.102418,6.693290,-2.255649,-4.471851,-6.138373,2.460495,4.250173,-0.223418,0.181952,-0.024490,-58.447740,188.571192,0
0.049994,-179.265769,120.836094,2.560227,2.939358,5.670810,0.034224,-5.490515,-5.326032,0.248837,5.342432,-0.234377,0.199328,-0.046895,-100.916789,188.498785,0
0.051036,-191.005257,67.426417,70.059281,4.240008,4.328805,2.681269,-6.542761,-3.793245,-2.399276,6.285261,-0.292825,0.197695,-0.028224,-117.802619,188.495226,0
0.052078,-163.386268,24.068053,147.529925,5.687688,2.340649,4.415540,-6.087534,-1.951694,-4.237427,5.997075,-0.256295,0.212001,-0.054364,-105.112799,188.491974,0
0.053119,-103.112220,-21.839382,201.573485,6.705588,-0.208451,5.681518,-4.710658,0.602953,-5.458665,4.634420,-0.223418,0.213242,-0.035692,-70.063110,188.495750,0
0.054161,-59.046606,-94.083188,189.127463,6.513318,-2.725598,6.360146,-2.837511,3.106138,-6.205676,2.944443,-0.179582,0.200373,-0.039427,-41.222611,188.495685,0
0.055205,-18.100179,-171.183518,141.386932,5.608518,-4.664050,5.963288,-0.647197,5.116774,-5.865744,0.777714,-0.132093,0.196323,-0.050629,-13.965511,188.495770,0
0.056245,34.891983,-200.866299,86.235417,4.567998,-5.920849,4.272671,2.136405,6.388583,-4.304574,-1.872882,-0.077298,0.187962,-0.054364,12.375478,188.495792,0
0.057286,117.987142,-173.394323,40.735417,3.742368,-6.545698,2.419342,4.364033,6.991406,-2.432849,-4.078747,-0.004238,0.182148,-0.031958,62.637117,188.571053,0
0.058328,178.794287,-120.286669,-2.154735,2.894118,-5.519667,0.121532,5.382697,6.175390,-0.225389,-5.131869,-0.055380,0.199198,-0.043161,107.243756,188.495655,0
0.059370,190.771968,-66.611213,-69.481440,1.616088,-4.184763,-2.450110,6.393898,4.646278,2.414331,-6.088930,0.014027,0.198544,-0.024490,123.111686,188.495649,0
0.060411,162.937471,-23.446143,-147.222917,0.134478,-2.171755,-4.232004,5.942403,2.764294,4.294449,-5.825649,-0.004238,0.216639,-0.054364,111.824306,188.495653,0
0.061454,102.447916,21.941814,-201.475758,-0.928662,0.327641,-5.490045,4.580453,0.194944,5.423360,-4.487899,-0.044421,0.215594,-0.031958,76.039467,188.646522,0
0.062495,58.609152,94.125215,-189.165152,-0.645912,2.841238,-6.136924,2.748350,-2.308242,6.283682,-2.797922,-0.069992,0.202660,-0.061832,44.722077,188.495716,0
0.063536,18.105083,170.609419,-141.313826,0.213648,4.818743,-5.767846,0.531916,-4.241686,5.876602,-0.552920,-0.139399,0.181299,-0.061832,18.505498,188.495729,0
0.064578,-34.921107,201.270753,-85.916099,1.254168,6.064891,-4.061355,-2.206909,-5.542902,4.336416,2.051423,-0.168623,0.180907,-0.028224,-7.982521,188.495712,0
0.065620,-117.596593,173.400107,-40.686932,2.102418,6.668438,-2.251681,-4.442000,-6.112643,2.435314,4.225268,-0.219765,0.178947,-0.028224,-58.119750,188.495613,0
0.066661,-179.447249,120.497829,2.080114,2.939358,5.695662,0.081847,-5.531560,-5.303978,0.253034,5.328200,-0.234377,0.198348,-0.061832,-102.364469,188.495669,0
0.067703,-190.812434,66.931100,69.135985,4.251318,4.289751,2.665395,-6.527836,-3.771190,-2.428653,6.263914,-0.245336,0.196258,-0.031958,-119.238989,188.495752,0
0.068745,-163.284185,24.164700,147.271402,5.744238,2.301596,4.443320,-6.061414,-1.962721,-4.191264,5.982844,-0.238030,0.217619,0.009119,-105.802709,188.495665,0
0.069786,-102.715233,-21.295742,201.253410,6.762138,-0.219102,5.645801,-4.706927,0.599277,-5.408304,4.648651,-0.259948,0.217750,-0.031958,-70.210140,188.571060,0
0.070828,-58.729016,-93.708680,189.447538,6.502008,-2.679445,6.320460,-2.848705,3.113490,-6.235053,2.962232,-0.194194,0.204293,-0.065566,-41.132131,188.495548,0
0.071870,-18.327029,-170.108317,141.534660,5.631138,-4.646299,5.955351,-0.643465,5.080016,-5.899318,0.735020,-0.157664,0.214222,-0.046895,-14.463151,188.495642,0
0.072911,34.268146,-201.289130,86.407765,4.601928,-5.917298,4.280608,2.106554,6.384907,-4.325558,-1.862208,-0.062686,0.184369,-0.024490,11.651638,188.495752,0
0.073953,117.227194,-173.188948,41.203220,3.753678,-6.527946,2.447122,4.360302,6.976703,-2.403472,-4.060957,-0.040768,0.183650,-0.065566,62.693667,188.570980,0
0.074995,179.021137,-120.540368,-1.736174,2.928048,-5.512567,0.137407,5.352846,6.204796,-0.271552,-5.153216,-0.029809,0.198087,-0.028224,105.830006,188.495671,0
0.076036,190.567803,-67.263581,-69.087500,1.604778,-4.195413,-2.438204,6.405093,4.660981,2.439511,-6.106719,-0.000585,0.198283,-0.020755,122.252126,188.495743,0
0.077078,163.368486,-24.062269,-147.309091,0.145788,-2.217909,-4.228035,5.927477,2.782672,4.269269,-5.807860,-0.000585,0.216117,-0.043161,109.618856,188.495562,0
0.078120,103.139809,21.337769,-201.143372,-0.883422,0.338292,-5.521794,4.632692,0.242729,5.461130,-4.452321,-0.018850,0.203117,-0.039427,75.338247,188.495736,0
0.079161,59.505209,93.847354,-189.202084,-0.679842,2.866090,-6.180579,2.778201,-2.212672,6.296272,-2.790806,-0.073645,0.182474,-0.054364,45.140547,188.495759,0
0.080203,19.046510,170.609419,-141.732387,0.179718,4.825844,-5.851186,0.531916,-4.241686,5.943750,-0.599172,-0.088257,0.184630,-0.065566,19.206718,188.495758,0
0.081245,-34.410695,201.198267,-86.864015,1.242858,6.089743,-4.124852,-2.247954,-5.561280,4.382580,2.037192,-0.183235,0.184891,-0.061832,-6.591391,188.495647,0
0.082286,-117.959553,173.593402,-41.659470,2.102418,6.735893,-2.315178,-4.497970,-6.171455,2.477281,4.253730,-0.205153,0.183258,-0.031958,-58.029270,188.495837,0
0.083328,-179.106974,121.271007,1.476894,2.928048,5.727614,0.058035,-5.546485,-5.384844,0.269821,5.321085,-0.245336,0.200177,-0.061832,-100.735829,188.495709,0
0.084370,-191.175394,68.368728,69.197538,4.240008,4.374958,2.677300,-6.598732,-3.844705,-2.365702,6.317282,-0.307437,0.198871,-0.035692,-117.836549,188.495644,0
0.085411,-163.817283,25.082849,147.160607,5.676378,2.329998,4.431414,-6.109922,-2.006830,-4.233230,6.011307,-0.274560,0.219318,-0.024490,-105.271139,188.498190,0
0.086453,-103.577263,-20.872910,201.524243,6.728208,-0.194250,5.717236,-4.744241,0.599277,-5.483845,4.677114,-0.201500,0.204097,-0.035692,-70.311930,188.496217,0
0.087495,-60.124143,-93.249606,189.361364,6.490698,-2.658143,6.376020,-2.837511,3.087760,-6.289610,2.940885,-0.190541,0.202268,-0.013287,-41.675011,188.492687,0
0.088536,-19.132347,-170.349935,142.002463,5.653758,-4.671151,5.979162,-0.680779,5.083692,-5.937088,0.770599,-0.168623,0.196715,-0.050629,-14.553631,188.495680,0
0.089578,34.063981,-201.059593,86.937121,4.635858,-5.938600,4.308388,2.117749,6.429016,-4.363328,-1.876439,-0.091910,0.187047,-0.058098,11.753428,188.495653,0
0.090620,117.193167,-173.587618,41.621780,3.764988,-6.552798,2.486808,4.322988,7.002434,-2.470619,-4.057400,-0.000585,0.183585,-0.058098,62.082927,188.571183,0
0.091661,178.760260,-120.830310,-1.206818,2.894118,-5.583572,0.157250,5.431205,6.190093,-0.267356,-5.199468,-0.015197,0.199328,-0.084238,107.119346,188.495671,0
0.092703,190.862708,-67.432714,-68.410417,1.616088,-4.195413,-2.454079,6.442406,4.694062,2.414331,-6.120951,-0.000585,0.199394,-0.039427,123.100376,188.495776,0
0.093745,163.379829,-24.267644,-146.865910,0.145788,-2.203707,-4.196287,5.990910,2.801051,4.227302,-5.861228,-0.026156,0.212785,-0.043161,112.061816,188.495776,0
0.094786,103.162494,20.902856,-201.094129,-0.894732,0.309890,-5.517825,4.666274,0.261108,5.486310,-4.509246,-0.015197,0.216051,-0.046895,76.435317,188.495761,0
0.095828,59.335072,93.110419,-189.509849,-0.657222,2.827037,-6.176610,2.774470,-2.275160,6.342435,-2.801480,-0.084604,0.202203,-0.054364,45.151857,188.495680,0
0.096870,18.933085,169.848322,-141.892425,0.202338,4.829394,-5.823406,0.513259,-4.193901,5.931159,-0.613404,-0.084604,0.191163,-0.054364,18.912658,188.495794,0
0.097911,-34.047735,201.741908,-86.642425,1.242858,6.068441,-4.097072,-2.240492,-5.542902,4.340613,2.012287,-0.172276,0.189791,-0.028224,-7.450951,188.495741,0
0.098953,-116.382946,173.641725,-41.413258,2.113728,6.689740,-2.275492,-4.434537,-6.068534,2.481478,4.243057,-0.252642,0.180057,-0.024490,-57.294120,188.422801,0
0.099995,-179.345166,121.053550,1.058333,2.961978,5.692111,0.042161,-5.505440,-5.366466,0.299198,5.317527,-0.281866,0.196258,-0.028224,-102.194819,188.495669,0
0.101036,-190.880489,67.619712,67.794129,4.206078,4.335905,2.669363,-6.542761,-3.771190,-2.441243,6.263914,-0.259948,0.196846,-0.054364,-119.103269,188.495738,0
0.102078,-163.771913,24.780826,146.902084,5.653758,2.383252,4.435383,-6.113654,-1.966397,-4.245821,6.007749,-0.259948,0.204816,-0.039427,-106.096769,188.495740,0
0.103120,-103.384440,-20.317188,200.662501,6.739518,-0.190700,5.685487,-4.759166,0.602953,-5.471255,4.669999,-0.223418,0.211283,-0.028224,-70.504200,188.420354,0
0.104161,-59.409566,-92.645561,189.964584,6.502008,-2.675894,6.332366,-2.882287,3.113490,-6.277020,2.976464,-0.205153,0.214222,-0.076769,-41.313091,188.495702,0
0.105205,-18.962209,-169.383463,142.039394,5.631138,-4.656950,5.983131,-0.677048,5.142504,-5.903514,0.816851,-0.110175,0.185414,-0.043161,-14.508391,188.495731,0
0.106244,33.542226,-201.760286,86.777084,4.601928,-5.878245,4.296483,2.069241,6.443720,-4.342344,-1.858650,-0.102869,0.160982,-0.058098,11.086138,188.495783,0
0.107286,115.378367,-173.406404,41.781818,3.742368,-6.524396,2.474903,4.319257,6.984055,-2.453833,-4.089420,-0.022503,0.179731,-0.035692,61.551357,188.344833,0
0.108328,178.987110,-120.999442,-0.899053,2.928048,-5.565821,0.141375,5.408817,6.208471,-0.229586,-5.156774,0.010374,0.196127,-0.028224,105.581186,188.495718,0
0.109369,190.454378,-67.432714,-67.622538,1.650018,-4.177662,-2.446141,6.386436,4.646278,2.447904,-6.120951,-0.011544,0.197499,-0.046895,122.082476,188.420332,0
0.110411,163.720104,-24.545505,-146.435038,0.134478,-2.217909,-4.220098,6.002105,2.778997,4.189532,-5.857670,-0.007891,0.200177,-0.058098,110.003396,188.495580,0
0.111453,103.196521,20.552510,-200.417046,-0.872112,0.341842,-5.478139,4.610304,0.268459,5.419163,-4.491457,-0.018850,0.187112,-0.039427,75.756717,188.344883,0
0.112494,59.448497,92.554698,-189.879167,-0.668532,2.837688,-6.156767,2.759544,-2.242078,6.279485,-2.794364,-0.055380,0.192469,-0.020755,45.389367,188.495750,0
0.113536,19.398128,169.002658,-142.323296,0.224958,4.829394,-5.799595,0.543110,-4.234335,5.884996,-0.606288,-0.080951,0.195474,-0.061832,19.387678,188.420303,0
0.114578,-33.446582,201.898960,-87.393371,1.265478,6.043589,-4.108978,-2.210641,-5.524523,4.390973,2.065655,-0.172276,0.178424,-0.073035,-6.014581,188.495839,0
0.115619,-115.872533,173.702130,-42.385796,2.057178,6.668438,-2.251681,-4.486776,-6.090588,2.452101,4.214594,-0.230724,0.180449,-0.028224,-56.841720,188.344860,0
0.116661,-179.072946,121.947537,0.578220,2.939358,5.674360,0.050098,-5.509172,-5.344411,0.269821,5.353105,-0.230724,0.196193,-0.009553,-100.498319,188.495707,0
0.117703,-190.789749,68.876126,67.424811,4.194768,4.282651,2.709049,-6.565149,-3.800596,-2.466423,6.303050,-0.248989,0.194821,-0.050629,-117.372839,188.420388,0
0.118744,-164.373065,25.783541,146.594319,5.710308,2.337098,4.427446,-6.109922,-1.940667,-4.271001,5.979286,-0.252642,0.216770,-0.028224,-105.655679,188.495725,0
0.119786,-104.564060,-19.870195,200.403978,6.728208,-0.226202,5.697393,-4.718121,0.621331,-5.458665,4.669999,-0.223418,0.202986,-0.046895,-70.990530,188.344804,0
0.120828,-60.747981,-92.150244,189.989205,6.547248,-2.704297,6.344272,-2.844973,3.139220,-6.247643,2.937327,-0.168623,0.195409,-0.061832,-42.172651,188.498863,0
0.121869,-19.756184,-168.525719,143.024243,5.631138,-4.646299,5.971225,-0.557644,5.098395,-5.844761,0.738578,-0.132093,0.193384,-0.065566,-14.711971,188.416780,0
0.122911,33.292691,-201.434101,87.577273,4.601928,-5.910198,4.256797,2.158794,6.388583,-4.287787,-1.876439,-0.073645,0.183389,-0.050629,11.233168,188.495068,0
0.123953,115.174202,-173.635941,42.569697,3.742368,-6.495994,2.443154,4.341645,6.973028,-2.416062,-4.064515,-0.059033,0.180319,-0.061832,60.748347,188.420327,0
0.124994,178.714890,-121.736378,-0.246591,2.939358,-5.512567,0.125501,5.364040,6.215823,-0.175029,-5.163890,-0.007891,0.194951,-0.050629,106.881836,188.495750,0
0.126036,190.454378,-68.387105,-66.871591,1.638708,-4.127958,-2.469953,6.382704,4.591141,2.460495,-6.035562,0.014027,0.195997,-0.031958,122.614046,188.420345,0
0.127078,164.105749,-25.258278,-146.250379,0.157098,-2.154004,-4.263753,5.946134,2.764294,4.248286,-5.807860,-0.000585,0.207102,-0.046895,112.423736,188.495817,0
