1-Time,2-VGERA,3-VGERB,4-VGERC,5-VN,6-IGERAN,7-IGERBN,8-IGERCN,9-IGERAT,10-IGERBT,11-IGERCT,12-IN,13-IFD,14-IFAULT,15-VFAULT,16-Speed (rad/s),17-FAULT 
0.000000,-186.025899,132.566652,13.196591,3.188178,6.437670,-2.053577,-4.524640,-6.145725,2.225639,4.397729,-0.197847,0.315084,-0.024490,2.875078,188.646538,0
0.001042,-193.908937,71.328549,72.767614,4.341798,5.525248,0.544734,-6.205436,-5.237814,-0.320579,5.977591,-0.208806,0.317632,-0.031958,2.761978,188.495636,0
0.002083,-171.927171,18.160491,153.660607,5.846028,4.275550,2.640146,-6.847978,-4.021141,-2.492115,6.746584,-0.270907,0.332265,-0.031958,2.637568,188.495649,0
0.003125,-117.868813,-33.400807,194.494887,6.615108,1.943018,4.213610,-6.036964,-1.764231,-4.015011,5.958557,-0.256295,0.333310,-0.043161,2.445298,188.495588,0
0.004167,-57.118381,-101.078032,200.428599,6.694278,-0.570579,5.832793,-4.983039,0.863931,-5.735320,5.018253,-0.238030,0.321943,-0.043161,2.535778,188.571116,0
0.005208,-6.224581,-163.475901,157.858523,5.936508,-2.867609,6.023285,-2.781157,3.153923,-5.956905,2.859743,-0.208806,0.309205,-0.017021,2.467918,188.495694,0
0.006250,44.521766,-210.144433,92.230682,4.715028,-4.997776,5.383231,-0.038600,5.260128,-5.437187,0.164461,-0.124787,0.306331,-0.024490,2.230408,188.495754,0
0.007292,118.338759,-181.609338,38.519508,3.731058,-6.126765,3.988830,2.570747,6.458423,-4.019040,-2.359511,-0.073645,0.305351,-0.061832,2.117308,188.495758,0
0.008333,185.894692,-132.403816,-13.135795,2.701848,-6.336231,2.221064,4.404342,6.730428,-2.302761,-4.361938,-0.026156,0.314823,-0.024490,1.992898,188.495647,0
0.009375,193.777730,-71.129471,-73.051515,1.525608,-5.452212,-0.384867,6.073384,5.767381,0.299860,-5.915152,-0.004238,0.317632,-0.046895,2.060758,188.495611,0
0.010417,171.705224,-17.224477,-153.772160,0.055308,-4.170562,-2.468850,6.704172,4.528654,2.382763,-6.691758,-0.015197,0.325210,-0.028224,2.332198,188.495736,0
0.011458,117.590154,34.131446,-194.741857,-0.736392,-1.788325,-4.072793,5.912748,2.242337,3.949976,-5.854241,-0.004238,0.340561,-0.046895,2.479228,188.495658,0
0.012500,56.351994,101.301272,-200.207766,-0.860802,0.718172,-5.714834,4.843151,-0.356418,5.714602,-4.940586,-0.062686,0.323315,-0.009553,2.332198,188.571042,0
0.013542,5.424167,164.085730,-157.046781,-0.035172,3.015202,-5.859608,2.653023,-2.624356,5.932158,-2.763042,-0.077298,0.316521,-0.035692,2.445298,188.493340,0
0.014583,-44.823110,210.150217,-91.098864,1.220238,5.085014,-5.242414,-0.081698,-4.701155,5.408411,-0.105828,-0.099216,0.307310,-0.031958,2.671498,188.495128,0
0.015625,-118.424596,181.421828,-37.141477,2.226828,6.238854,-3.752766,-2.738060,-5.866368,3.913717,2.528544,-0.186888,0.292351,-0.035692,2.784598,188.494714,0
0.016667,-185.833076,132.059254,13.885985,3.222108,6.391516,-1.962141,-4.559902,-6.119994,2.169235,4.416764,-0.223418,0.304959,-0.046895,2.920318,188.495658,0
0.017708,-193.750142,70.241268,72.927652,4.319178,5.461343,0.632360,-6.181928,-5.179002,-0.429357,5.981398,-0.245336,0.307898,-0.039427,2.852458,188.495077,0
0.018750,-171.836431,16.759106,153.094319,5.846028,4.172592,2.651576,-6.820552,-3.910869,-2.512260,6.773232,-0.292825,0.321225,-0.024490,2.682808,188.494895,0
0.019792,-116.507713,-33.847801,194.765720,6.671658,1.850710,4.240279,-5.962524,-1.701743,-4.015011,5.844350,-0.278213,0.331938,-0.035692,2.445298,188.495155,0
0.020833,-55.496403,-100.800171,200.416288,6.739518,-0.677088,5.836603,-4.920352,0.963176,-5.719204,4.915467,-0.245336,0.308944,-0.013287,2.535778,188.494882,0
0.021875,-5.271811,-163.729600,157.009091,5.947818,-2.935065,5.988996,-2.702799,3.150247,-5.912588,2.772185,-0.186888,0.316652,-0.002084,2.467918,188.493394,0
0.022917,44.759959,-210.084029,90.704167,4.703718,-4.997776,5.333704,0.043676,5.282182,-5.368697,0.080709,-0.146705,0.291567,-0.020755,2.264338,188.494719,0
0.023958,118.225334,-181.283153,37.128409,3.674508,-6.112564,3.924063,2.621680,6.451071,-3.902204,-2.431842,-0.062686,0.295813,-0.013287,2.094688,188.493680,0
0.025000,185.304882,-131.521910,-13.812879,2.701848,-6.272326,2.099149,4.408260,6.675292,-2.210098,-4.365745,-0.055380,0.306461,-0.035692,2.026828,188.420410,0
0.026042,193.539538,-69.341497,-72.792993,1.570848,-5.381206,-0.476303,6.081220,5.726948,0.380437,-5.949414,0.006721,0.317109,-0.005818,2.117308,188.495752,0
0.027083,171.138099,-15.798930,-153.378220,0.077928,-4.110207,-2.491709,6.680664,4.480869,2.455282,-6.646076,0.017680,0.283989,-0.031958,2.343508,188.495593,0
0.028125,116.172342,34.663006,-194.815720,-0.725082,-1.795425,-4.088032,5.846143,2.194552,4.002351,-5.827593,-0.018850,0.331938,-0.024490,2.467918,188.495703,0
0.029167,55.047607,101.337515,-200.257008,-0.860802,0.753674,-5.703405,4.815726,-0.352743,5.706544,-4.894903,-0.040768,0.294507,-0.002084,2.377438,188.495740,0
0.030208,4.630192,163.638737,-157.022160,-0.035172,3.015202,-5.832939,2.664777,-2.646411,5.899927,-2.747814,-0.051727,0.328998,-0.031958,2.467918,188.495575,0
0.031250,-44.981905,210.210622,-90.507955,1.231548,5.092114,-5.230985,-0.132631,-4.649694,5.368123,-0.033497,-0.121134,0.278045,-0.054364,2.637568,188.495718,0
0.032292,-118.254458,181.518475,-37.092235,2.238138,6.199801,-3.787055,-2.675373,-5.829610,3.941918,2.467633,-0.172276,0.302215,-0.043161,2.807218,188.495834,0
0.033333,-185.935159,131.769312,14.046023,3.199488,6.395066,-2.011669,-4.501133,-6.116319,2.205495,4.329205,-0.219765,0.310185,-0.017021,2.897698,188.420336,0
0.034375,-193.670744,69.999650,73.124621,4.319178,5.464894,0.579022,-6.185846,-5.134893,-0.393097,5.954750,-0.238030,0.312275,-0.061832,2.761978,188.495703,0
0.035417,-171.428101,17.012805,153.734470,5.857338,4.204545,2.632527,-6.800963,-3.921896,-2.435712,6.700901,-0.259948,0.315999,-0.031958,2.637568,188.495718,0
0.036458,-117.006783,-33.968610,194.347160,6.569868,1.911065,4.213610,-5.986031,-1.694391,-3.994867,5.882419,-0.252642,0.320179,-0.054364,2.422678,188.495734,0
0.037500,-56.006816,-101.198841,200.219319,6.773448,-0.620283,5.809934,-4.912516,0.900688,-5.723233,4.923081,-0.208806,0.321486,-0.043161,2.524468,188.420282,0
0.038542,-5.453291,-163.391335,157.673864,5.947818,-2.899562,5.988996,-2.734142,3.135544,-5.912588,2.802640,-0.201500,0.324818,0.005384,2.445298,188.495783,0
0.039583,45.009494,-209.987381,91.664394,4.737648,-4.983575,5.394661,0.000579,5.249101,-5.360639,0.137813,-0.106522,0.301431,-0.031958,2.230408,188.495801,0
0.040625,118.440842,-181.452286,38.125568,3.697128,-6.119664,3.885964,2.574665,6.403286,-3.986810,-2.424228,-0.095563,0.301366,-0.046895,2.128618,188.495747,0
0.041667,185.815295,-132.295088,-13.271212,2.724468,-6.290078,2.141057,4.455275,6.704698,-2.189954,-4.323869,-0.055380,0.313843,-0.024490,2.038138,188.344925,0
0.042708,193.414770,-70.815367,-73.383902,1.570848,-5.384757,-0.457254,6.132153,5.737975,0.360293,-5.907538,-0.018850,0.315019,-0.002084,2.072068,188.495752,0
0.043750,171.546429,-17.236558,-154.055304,0.077928,-4.149260,-2.465040,6.704172,4.495572,2.366648,-6.619427,0.010374,0.327431,-0.031958,2.298268,188.495729,0
0.044792,117.646867,34.288498,-194.692614,-0.713772,-1.809627,-4.065173,5.873569,2.282770,3.925803,-5.869469,0.014027,0.337752,-0.024490,2.467918,188.495700,0
0.045833,56.737639,101.591214,-200.257008,-0.815562,0.703970,-5.684356,4.839233,-0.360094,5.686400,-4.952007,-0.051727,0.323968,-0.013287,2.354818,188.344834,0
0.046875,5.548935,164.206539,-157.182197,-0.035172,3.001000,-5.871038,2.629516,-2.602302,5.920072,-2.785883,-0.059033,0.319069,-0.013287,2.456608,188.495671,0
0.047917,-45.208755,210.186460,-91.357387,1.186308,5.095665,-5.253844,-0.093452,-4.715858,5.396324,-0.102022,-0.121134,0.307506,-0.058098,2.648878,188.420191,0
0.048958,-119.127831,181.518475,-37.757008,2.204208,6.228203,-3.817534,-2.687127,-5.847989,3.933861,2.471440,-0.186888,0.303587,-0.043161,2.818528,188.495615,0
0.050000,-186.003214,132.433762,14.144508,3.176868,6.398617,-1.988810,-4.536394,-6.112643,2.213552,4.409150,-0.205153,0.310446,-0.002084,2.897698,188.344916,0
0.051042,-193.795512,70.531210,73.555493,4.296558,5.482645,0.579022,-6.217190,-5.197381,-0.348780,5.989012,-0.252642,0.314562,-0.046895,2.841148,188.495727,0
0.052083,-171.768376,16.916158,153.648296,5.834718,4.190344,2.655386,-6.820552,-3.925572,-2.504202,6.746584,-0.248989,0.321486,-0.054364,2.637568,188.420399,0
0.053125,-116.779933,-34.065257,194.839584,6.649038,1.836509,4.255519,-5.982113,-1.701743,-4.039184,5.920488,-0.259948,0.334747,-0.024490,2.433988,188.495631,0
0.054167,-55.950103,-101.259245,200.071592,6.739518,-0.694839,5.840412,-4.881173,0.955825,-5.771579,4.926888,-0.208806,0.315411,-0.043161,2.535778,188.345024,0
0.055208,-5.328523,-164.007461,156.861364,5.913888,-2.952816,6.008045,-2.698881,3.209059,-5.920646,2.764571,-0.197847,0.303783,-0.069301,2.490538,188.495638,0
0.056250,44.646534,-209.987381,90.975000,4.692408,-5.051031,5.318464,0.067184,5.267479,-5.328408,0.069289,-0.161317,0.301366,-0.009553,2.253028,188.420318,0
0.057292,118.497554,-181.150263,37.288447,3.674508,-6.151617,3.908823,2.617762,6.436368,-3.942492,-2.447069,-0.073645,0.296075,-0.043161,2.105998,188.495569,0
0.058333,185.304882,-131.654800,-13.862121,2.690538,-6.293628,2.102959,4.443521,6.689995,-2.165781,-4.384779,-0.037115,0.305743,-0.024490,2.015518,188.344856,0
0.059375,193.460140,-69.365659,-73.150000,1.559538,-5.324402,-0.483923,6.042040,5.712245,0.372379,-5.918958,-0.018850,0.307245,-0.031958,2.083378,188.420314,0
0.060417,171.149442,-15.702283,-153.587500,0.077928,-4.074704,-2.487899,6.645403,4.499248,2.447224,-6.634655,0.010374,0.281376,-0.043161,2.309578,188.420294,0
0.061458,116.183684,34.783815,-194.864963,-0.725082,-1.752822,-4.068983,5.842225,2.194552,3.949976,-5.762876,-0.004238,0.332657,-0.009553,2.501848,188.495740,0
0.062500,54.956867,101.651618,-200.133902,-0.860802,0.799828,-5.634828,4.764792,-0.415230,5.706544,-4.845414,0.014027,0.318481,0.005384,2.354818,188.344938,0
0.063542,4.380657,163.904517,-156.714394,-0.035172,3.040054,-5.802461,2.625598,-2.609653,5.871726,-2.728780,-0.084604,0.299537,-0.017021,2.445298,188.420338,0
0.064583,-45.344865,210.150217,-90.077084,1.208928,5.116966,-5.223365,-0.144385,-4.671749,5.303661,-0.006849,-0.132093,0.296009,-0.058098,2.648878,188.420334,0
0.065625,-118.560706,181.252695,-36.575190,2.260758,6.214002,-3.775625,-2.691045,-5.796528,3.901630,2.536157,-0.186888,0.293854,-0.017021,2.795908,188.495629,0
0.066667,-186.059926,131.418966,14.489205,3.199488,6.359564,-1.988810,-4.516804,-6.064858,2.157149,4.454833,-0.197847,0.303848,-0.005818,2.875078,188.344854,0
0.067708,-193.523292,69.335200,73.321591,4.353108,5.383237,0.666649,-6.158421,-5.083433,-0.469645,5.943329,-0.234377,0.305416,-0.005818,2.784598,188.420354,0
0.068750,-171.076483,16.275870,153.648296,5.868648,4.147740,2.640146,-6.757865,-3.833678,-2.516288,6.678060,-0.281866,0.317697,-0.020755,2.660188,188.420300,0
0.069792,-115.940588,-34.367280,194.457955,6.637728,1.847160,4.236469,-5.868493,-1.664985,-4.010982,5.802474,-0.245336,0.333310,-0.009553,2.490538,188.495669,0
0.070833,-55.122101,-101.440459,200.034660,6.716898,-0.698389,5.798504,-4.881173,0.996258,-5.707118,4.865978,-0.223418,0.303783,-0.024490,2.547088,188.269519,0
0.071875,-4.602603,-163.536305,156.885985,5.913888,-2.903112,5.966137,-2.679291,3.179653,-5.876329,2.734116,-0.175929,0.309009,-0.058098,2.456608,188.344898,0
0.072917,45.054864,-209.951139,90.827273,4.715028,-4.958723,5.299415,0.051512,5.278507,-5.284091,0.080709,-0.128440,0.301301,-0.017021,2.219098,188.420289,0
0.073958,118.463527,-181.101940,37.460796,3.708438,-6.084162,3.893584,2.606008,6.406962,-3.906233,-2.458490,-0.073645,0.298884,-0.020755,2.105998,188.495794,0
0.075000,185.747240,-131.582314,-13.726705,2.747088,-6.261675,2.061050,4.408260,6.605453,-2.161752,-4.361938,-0.048074,0.308944,-0.035692,1.992898,188.269566,0
0.076042,193.301345,-69.836814,-73.580871,1.570848,-5.359905,-0.514402,6.073384,5.675488,0.396552,-5.907538,0.003068,0.311230,-0.013287,2.060758,188.344912,0
0.077083,171.319579,-16.487542,-154.042993,0.077928,-4.071154,-2.472660,6.637567,4.440436,2.435138,-6.615620,-0.007891,0.313516,-0.009553,2.332198,188.422403,0
0.078125,116.954974,34.493873,-194.815720,-0.747702,-1.738621,-4.072793,5.818718,2.172498,3.966091,-5.800945,-0.011544,0.335792,-0.017021,2.456608,188.495689,0
0.079167,56.159172,101.796589,-199.949243,-0.883422,0.782077,-5.680546,4.811808,-0.371121,5.730717,-4.837800,-0.029809,0.318220,-0.020755,2.354818,188.269409,0
0.080208,5.378797,164.448157,-156.763637,-0.035172,3.043604,-5.859608,2.617762,-2.653762,5.903956,-2.690711,-0.077298,0.309205,-0.035692,2.445298,188.344954,0
0.081250,-45.480975,209.969004,-91.295834,1.174998,5.102765,-5.185266,-0.156139,-4.675425,5.311719,-0.014463,-0.143052,0.297969,-0.043161,2.637568,188.420231,0
0.082292,-119.536161,181.131886,-37.658523,2.249448,6.196251,-3.714668,-2.757650,-5.811231,3.841198,2.494281,-0.172276,0.298949,0.001650,2.818528,188.495693,0
0.083333,-186.162009,132.337115,14.427652,3.210798,6.366664,-1.939282,-4.528558,-6.042804,2.173264,4.420571,-0.252642,0.311361,-0.065566,2.942938,188.344807,0
0.084375,-193.716114,70.603695,74.220265,4.353108,5.432941,0.613311,-6.142749,-5.123866,-0.376982,5.958557,-0.223418,0.311883,0.001650,2.852458,188.344919,0
0.085417,-171.983883,17.024886,153.919129,5.846028,4.165492,2.647766,-6.777455,-3.885138,-2.467942,6.723743,-0.263601,0.316129,-0.013287,2.682808,188.420394,0
0.086458,-117.097523,-34.137743,194.962690,6.592488,1.836509,4.274568,-5.954688,-1.683364,-4.035155,5.890033,-0.238030,0.329129,-0.028224,2.456608,188.495857,0
0.087500,-56.403803,-101.621672,199.899243,6.728208,-0.652236,5.848032,-4.908598,0.937446,-5.767550,4.949729,-0.208806,0.324230,-0.043161,2.535778,188.344825,0
0.088542,-5.271811,-164.454454,156.639773,5.936508,-2.935065,6.019475,-2.765486,3.164950,-5.948847,2.753150,-0.161317,0.318938,-0.039427,2.456608,188.269613,0
0.089583,45.406481,-209.878653,90.864205,4.726338,-5.008427,5.345133,0.039758,5.307913,-5.388841,0.088323,-0.139399,0.305939,-0.035692,2.230408,188.420311,0
0.090625,119.268845,-180.956969,37.202273,3.685818,-6.158717,3.897394,2.633434,6.432692,-3.942492,-2.428035,-0.095563,0.300517,-0.024490,2.117308,188.495801,0
0.091667,185.611130,-131.787690,-14.145265,2.667918,-6.265226,2.110578,4.478783,6.682643,-2.169809,-4.403814,-0.026156,0.309662,-0.028224,2.015518,188.344910,0
0.092708,193.301345,-69.389820,-73.814773,1.548228,-5.391857,-0.495353,6.108645,5.730624,0.376408,-5.968448,0.028639,0.312340,-0.039427,2.094688,188.269438,0
0.093750,171.172127,-15.678121,-153.944508,0.089238,-4.124408,-2.506949,6.747269,4.440436,2.419023,-6.684144,-0.011544,0.328802,-0.035692,2.332198,188.420311,0
0.094792,116.104287,35.025433,-195.123485,-0.736392,-1.813177,-4.110891,5.865733,2.231310,3.970120,-5.816172,0.003068,0.330109,-0.035692,2.513158,188.495702,0
0.095833,55.183717,102.207340,-199.998485,-0.872112,0.771426,-5.718644,4.788300,-0.404203,5.710573,-4.894903,-0.040768,0.329390,-0.031958,2.354818,188.344929,0
0.096875,4.584822,164.399834,-156.480493,-0.035172,3.082657,-5.867228,2.598172,-2.635383,5.871726,-2.694518,-0.044421,0.313451,-0.005818,2.445298,188.269525,0
0.097917,-45.549030,210.210622,-90.150947,1.220238,5.116966,-5.238604,-0.163974,-4.715858,5.356036,-0.029691,-0.113828,0.301823,-0.065566,2.660188,188.420318,0
0.098958,-119.195886,181.276857,-36.501326,2.260758,6.217553,-3.760386,-2.702799,-5.881071,3.913717,2.486668,-0.157664,0.299406,-0.017021,2.818528,188.495716,0
0.100000,-186.241406,131.431047,14.747727,3.222108,6.334712,-1.950712,-4.524640,-6.094264,2.205495,4.401536,-0.197847,0.306984,-0.024490,2.909008,188.344950,0
0.101042,-193.818197,69.238553,73.814015,4.341798,5.447142,0.601881,-6.174092,-5.167975,-0.385040,5.943329,-0.227071,0.311753,-0.024490,2.784598,188.269510,0
0.102083,-171.303333,15.780553,153.968372,5.823408,4.225846,2.617287,-6.773537,-3.892490,-2.455856,6.723743,-0.256295,0.309532,-0.065566,2.660188,188.420423,0
0.103125,-115.815821,-34.947163,194.876516,6.615108,1.879113,4.244089,-5.986031,-1.709094,-3.970694,5.897646,-0.238030,0.347551,-0.035692,2.445298,188.495691,0
0.104167,-54.589003,-102.201556,200.133145,6.716898,-0.609632,5.832793,-4.932106,0.911716,-5.735320,4.930695,-0.227071,0.315933,-0.043161,2.558398,188.344948,0
0.105208,-4.194273,-164.188674,156.565910,5.936508,-2.899562,6.004236,-2.773322,3.135544,-5.892444,2.836902,-0.164970,0.302738,-0.050629,2.456608,188.269572,0
0.106250,45.553934,-210.144433,90.088637,4.692408,-4.980025,5.394661,-0.022929,5.274831,-5.372725,0.111165,-0.113828,0.286537,-0.013287,2.230408,188.420390,0
0.107292,118.747089,-180.944888,36.660606,3.674508,-6.119664,3.935492,2.598172,6.399610,-3.958608,-2.435649,-0.069992,0.303914,-0.024490,2.083378,188.495797,0
0.108333,185.803952,-131.099078,-14.354545,2.713158,-6.339782,2.171536,4.412178,6.689995,-2.230242,-4.369552,-0.022503,0.311361,-0.050629,1.981588,188.344898,0
0.109375,193.176578,-68.954908,-73.827084,1.582158,-5.402508,-0.464874,6.139989,5.745327,0.400581,-5.941800,0.021333,0.310250,-0.013287,2.094688,188.269518,0
0.110417,171.013332,-15.472746,-154.042993,0.055308,-4.106657,-2.476470,6.715926,4.521302,2.447224,-6.695565,0.028639,0.298296,-0.020755,2.332198,188.420338,0
0.111458,115.786697,35.097918,-195.185038,-0.725082,-1.820277,-4.103272,5.865733,2.209255,3.978178,-5.839014,-0.011544,0.337948,-0.046895,2.479228,188.495734,0
0.112500,55.081634,102.340230,-199.998485,-0.792942,0.750124,-5.707215,4.831397,-0.352743,5.702515,-4.932972,-0.051727,0.317436,-0.002084,2.343508,188.420367,0
0.113542,4.720932,165.028041,-156.295834,0.010068,3.029403,-5.893897,2.609926,-2.631708,5.920072,-2.759235,-0.069992,0.318154,-0.020755,2.467918,188.269559,0
0.114583,-45.707825,210.126056,-90.889584,1.186308,5.099215,-5.253844,-0.116959,-4.723209,5.384238,-0.075373,-0.121134,0.303326,-0.024490,2.648878,188.420329,0
0.115625,-119.967176,181.156048,-37.326136,2.238138,6.249505,-3.817534,-2.694963,-5.873719,3.945947,2.494281,-0.183235,0.301170,-0.031958,2.807218,188.495794,0
0.116667,-186.150666,132.119658,14.538447,3.188178,6.412818,-2.042148,-4.559902,-6.142049,2.217581,4.424378,-0.230724,0.314692,0.001650,2.886388,188.344938,0
0.117708,-193.648059,70.241268,74.614205,4.341798,5.525248,0.609501,-6.248533,-5.197381,-0.376982,5.985205,-0.227071,0.314300,-0.031958,2.841148,188.271797,0
0.118752,-171.995226,16.602054,154.239205,5.834718,4.254249,2.655386,-6.800963,-3.966005,-2.471971,6.719936,-0.248989,0.322597,0.001650,2.705428,188.420978,0
0.119792,-116.632481,-34.488089,195.381251,6.637728,1.879113,4.263138,-6.021293,-1.709094,-4.027098,5.893839,-0.238030,0.341606,0.009119,2.445298,188.496599,0
0.120834,-56.154268,-102.648549,199.653031,6.739518,-0.662887,5.893750,-4.932106,0.885985,-5.747406,4.953536,-0.227071,0.328802,-0.043161,2.569708,188.420325,0
0.121875,-5.260468,-165.191389,155.999622,5.891268,-2.942165,6.042334,-2.741978,3.172302,-5.944819,2.829288,-0.183235,0.317109,0.009119,2.456608,188.270072,0
0.122917,45.860181,-209.564550,90.814962,4.715028,-5.026179,5.387041,0.008415,5.300561,-5.404956,0.137813,-0.124787,0.308290,-0.009553,2.264338,188.421112,0
0.123959,119.824627,-180.860322,37.534659,3.651888,-6.162268,3.920253,2.609926,6.484153,-4.010982,-2.428035,-0.106522,0.306461,0.001650,2.128618,188.420998,0
0.125000,185.860665,-131.884337,-14.132955,2.713158,-6.318480,2.156296,4.455275,6.737780,-2.258444,-4.369552,-0.018850,0.314300,-0.013287,2.004208,188.421237,0
0.126042,193.290003,-69.740167,-74.147159,1.536918,-5.427360,-0.449635,6.155661,5.815166,0.324033,-5.979869,0.017680,0.317240,-0.024490,2.094688,188.271806,0
0.127084,171.410319,-15.895578,-154.301516,0.021378,-4.110207,-2.495519,6.712008,4.484545,2.427080,-6.706986,0.014027,0.326712,-0.024490,2.354818,188.421226,0
0.128125,116.421877,35.037514,-195.492804,-0.770322,-1.791875,-4.118511,5.912748,2.209255,3.978178,-5.861855,-0.000585,0.338601,-0.009553,2.479228,188.497679,0
