1-Time,2-VGERA,3-VGERB,4-VGERC,5-VN,6-IGERAN,7-IGERBN,8-IGERCN,9-IGERAT,10-IGERBT,11-IGERCT,12-IN,13-IFD,14-IFAULT,15-VFAULT,16-Speed (rad/s),17-Active Power,18-Reactive Power,19-FAULT 
0.000000,-186.887929,131.165267,14.673864,3.154248,6.558379,-2.156435,-4.404686,-6.318485,2.410134,4.235941,-0.212459,0.318742,-0.013287,-156.822118,188.495508,1516.592477,-912.601843,0
0.001042,-194.498747,68.465375,76.029924,4.307868,5.631757,0.661260,-6.016638,-5.267220,-0.326109,5.733795,-0.256295,0.306396,-0.024490,-180.018928,188.720324,1515.961799,-912.149772,0
0.002083,-171.949856,15.418126,154.842425,5.846028,4.293302,2.828107,-6.580075,-4.010114,-2.558750,6.424017,-0.278213,0.335662,0.009119,-182.246998,188.570483,1516.844656,-911.669369,0
0.003125,-114.432036,-35.019649,197.609470,6.671658,1.911065,4.606032,-5.844995,-1.687040,-4.308771,5.694658,-0.234377,0.340953,-0.009553,-146.790148,188.569816,1516.753744,-910.717246,0
0.004167,-55.791308,-103.639183,200.379357,6.750828,-0.659336,6.237120,-4.770360,0.889661,-6.109152,4.790965,-0.212459,0.328280,-0.054364,-101.538839,188.692368,1518.046610,-909.538002,0
0.005208,-6.088471,-166.846473,155.334849,5.925198,-3.023822,6.530795,-2.658405,3.311980,-6.348364,2.681162,-0.179582,0.326777,-0.002084,-53.279070,188.712969,1517.499859,-909.242069,0
0.006250,46.370594,-210.712236,90.556440,4.669788,-5.143338,5.848199,0.046838,5.436564,-5.773417,0.176438,-0.117481,0.314692,-0.035692,7.138948,188.596569,1518.067495,-909.166584,0
0.007292,121.446605,-180.691189,36.894508,3.606648,-6.304279,4.284577,2.517005,6.620156,-4.279394,-2.235782,-0.059033,0.310577,-0.013287,96.216506,188.501197,1518.141285,-908.703402,0
0.008333,186.643297,-130.809136,-14.686932,2.633988,-6.407237,2.375688,4.304331,6.877458,-2.424456,-4.060957,-0.026156,0.319526,-0.039427,161.656165,188.571496,1519.273472,-908.496774,0
0.009380,194.174718,-67.553523,-76.781629,1.469058,-5.484164,-0.453912,5.953597,5.873978,0.395722,-5.629968,0.024986,0.312994,-0.017021,184.705944,188.722396,1519.698487,-908.497511,0
0.010417,171.693882,-14.856620,-154.757008,0.010068,-4.163461,-2.573136,6.446138,4.517626,2.645149,-6.295285,0.006721,0.325275,-0.039427,185.757774,188.571561,1519.915037,-909.627721,0
0.011471,112.554084,36.668436,-199.616857,-0.872112,-1.664065,-4.517742,5.789417,2.143092,4.399367,-5.533906,-0.026156,0.341345,0.009119,150.821185,188.571473,1520.820587,-910.146099,0
0.012509,55.410567,105.130919,-199.419887,-0.849492,0.888585,-6.037710,4.636423,-0.448312,6.153584,-4.576845,-0.026156,0.332722,-0.017021,104.529356,188.647022,1522.028226,-910.429053,0
0.013551,5.208660,170.089940,-152.516478,0.032688,3.302774,-6.367102,2.498348,-2.889010,6.443156,-2.516852,-0.062686,0.326712,-0.046895,56.405307,188.722409,1523.058972,-910.814580,0
0.014592,-47.159665,210.198541,-89.006061,1.174998,5.372586,-5.577354,-0.199432,-4.973160,5.784275,0.037682,-0.095563,0.328606,-0.024490,-5.211571,188.571656,1523.144882,-911.267434,0
0.015635,-123.766914,180.092928,-35.368750,2.204208,6.551279,-4.081198,-2.785272,-6.145725,4.269269,2.556638,-0.197847,0.308225,-0.028224,-96.030869,188.571634,1524.609647,-912.398755,0
0.016678,-186.661079,129.933015,16.434280,3.233418,6.586782,-2.049283,-4.471851,-6.325836,2.347184,4.310656,-0.190541,0.318808,-0.024490,-157.229278,188.647119,1524.467635,-912.798922,0
0.017717,-194.657542,67.015667,78.307387,4.375728,5.681461,0.704914,-6.162161,-5.326032,-0.422633,5.851204,-0.223418,0.321682,-0.028224,-181.726738,188.722453,1526.227439,-914.062292,0
0.018762,-171.915828,14.065064,155.088637,5.800788,4.264900,2.927321,-6.580075,-3.973356,-2.667864,6.456038,-0.241683,0.343696,-0.028224,-181.557088,188.571623,1526.338121,-915.199095,0
0.019804,-112.549181,-35.998202,200.034660,6.671658,1.868462,4.764775,-5.927085,-1.639255,-4.480835,5.790720,-0.245336,0.355978,-0.005818,-145.410328,188.571589,1528.593522,-917.083441,0
0.020841,-55.734596,-104.774788,199.406819,6.694278,-0.723241,6.296649,-4.736778,1.014637,-6.172103,4.776734,-0.219765,0.333179,-0.024490,-99.978059,188.646987,1528.499163,-918.542299,0
0.021887,-5.487318,-170.615715,152.441857,5.823408,-3.162283,6.602230,-2.647211,3.425929,-6.449084,2.691836,-0.139399,0.322727,-0.002084,-50.100960,188.722396,1530.806269,-919.117456,0
0.022928,47.312021,-209.830330,88.906818,4.635858,-5.203693,5.768827,0.099077,5.532133,-5.735646,0.083934,-0.124787,0.314431,-0.031958,9.627148,188.571623,1530.118787,-919.929680,0
0.023968,123.703762,-180.026739,35.367993,3.595338,-6.407237,4.272671,2.595364,6.660589,-4.216444,-2.353191,-0.084604,0.307572,0.012853,99.021386,188.571540,1530.365131,-920.802471,0
0.025009,186.371077,-129.480237,-16.275000,2.622678,-6.371734,2.296316,4.326719,6.833349,-2.332129,-4.135672,0.003068,0.320441,-0.024490,161.927605,188.646915,1529.355044,-921.204114,0
0.026054,194.435595,-66.309190,-78.480493,1.469058,-5.501916,-0.481692,6.013299,5.866627,0.441885,-5.644199,0.035945,0.322858,-0.069301,187.239384,188.722264,1529.838224,-921.110591,0
0.027090,171.353607,-13.853905,-155.089394,-0.001242,-4.103106,-2.620759,6.446138,4.480869,2.670329,-6.234802,0.035945,0.350686,-0.013287,186.221484,188.571511,1529.059488,-920.672764,0
0.028137,112.644824,36.475141,-199.936932,-0.815562,-1.674716,-4.497899,5.703595,2.157795,4.458120,-5.526790,0.010374,0.336707,-0.054364,150.108655,188.496125,1529.373618,-921.318084,0
0.029168,55.614732,104.756411,-199.407576,-0.894732,0.849532,-6.065490,4.602841,-0.437285,6.128404,-4.519920,0.003068,0.324360,-0.024490,105.649046,188.646967,1528.421422,-921.218059,0
0.030209,5.741757,168.398613,-154.166099,0.043998,3.206917,-6.331385,2.524468,-2.837550,6.392796,-2.548873,-0.033462,0.324099,-0.039427,57.683337,188.722422,1527.700443,-920.921844,0
0.031250,-46.705965,210.669696,-89.584659,1.163688,5.294480,-5.617040,-0.191969,-4.943754,5.780079,0.044798,-0.099216,0.315541,-0.024490,-2.757301,188.571489,1527.502663,-921.097953,0
0.032293,-122.575951,180.382870,-36.698296,2.204208,6.487374,-4.041512,-2.691987,-6.057507,4.231499,2.453460,-0.150358,0.308552,-0.002084,-93.463500,188.571598,1526.067318,-920.044672,0
0.033335,-187.046724,130.259199,15.621780,3.176868,6.547728,-2.085000,-4.400955,-6.311133,2.376561,4.282193,-0.234377,0.317762,0.016587,-156.946528,188.647128,1526.101490,-919.800007,0
0.034375,-194.555459,67.595550,76.965531,4.330488,5.663709,0.625543,-6.027832,-5.326032,-0.401650,5.748026,-0.223418,0.326647,-0.013287,-180.516568,188.722375,1525.050699,-918.973811,0
0.035417,-171.961198,15.212750,155.150190,5.857338,4.264900,2.836044,-6.572612,-3.984384,-2.617504,6.406228,-0.201500,0.322531,-0.046895,-182.326168,188.571467,1524.587950,-918.430688,0
0.036458,-114.261898,-35.200862,198.114205,6.671658,1.907515,4.665561,-5.822607,-1.664985,-4.325558,5.676869,-0.227071,0.337621,-0.009553,-146.416918,188.571685,1522.223149,-916.817963,0
0.037500,-56.108898,-104.255309,199.936175,6.682968,-0.698389,6.245057,-4.740509,0.992582,-6.104955,4.694903,-0.216112,0.326189,-0.002084,-101.086439,188.722389,1520.811059,-916.508584,0
0.038542,-5.850278,-167.752541,154.350000,5.879958,-3.091277,6.471266,-2.643480,3.334035,-6.339970,2.670489,-0.154011,0.324426,-0.009553,-52.645710,188.722337,1518.570361,-915.773758,0
0.039583,46.744896,-210.518941,89.510038,4.647168,-5.136237,5.764859,0.020719,5.414509,-5.752433,0.133744,-0.073645,0.313190,-0.028224,7.749688,188.571592,1518.665795,-914.568451,0
0.040625,122.183867,-180.352924,35.909659,3.629268,-6.279427,4.205205,2.561782,6.587074,-4.191264,-2.296265,-0.044421,0.308225,-0.020755,97.234406,188.496214,1517.362797,-913.877652,0
0.041667,186.473160,-130.193010,-15.400947,2.611368,-6.350432,2.320128,4.274480,6.822322,-2.315342,-4.082304,0.006721,0.317697,-0.017021,161.803195,188.722299,1516.903926,-913.848853,0
0.042708,194.072635,-67.179015,-77.027841,1.480368,-5.462863,-0.414226,5.908820,5.804139,0.391525,-5.597947,0.046904,0.327692,-0.028224,184.739874,188.722250,1515.515943,-913.367218,0
0.043751,171.557772,-14.276736,-155.224811,0.032688,-4.103106,-2.628696,6.420018,4.495572,2.598985,-6.213455,0.035945,0.330436,-0.031958,185.757774,188.571701,1515.578753,-912.549384,0
0.044791,113.869814,35.943582,-198.447349,-0.872112,-1.706668,-4.418528,5.722252,2.132065,4.349006,-5.473423,-0.022503,0.345722,-0.020755,151.703365,188.496139,1513.834987,-911.819366,0
0.045833,55.682787,104.502712,-199.813826,-0.860802,0.835331,-5.990087,4.554333,-0.463015,6.082240,-4.548382,-0.037115,0.327431,0.005384,104.585906,188.722373,1513.726217,-911.800594,0
0.046875,5.435510,168.676474,-153.661364,-0.023862,3.292123,-6.299636,2.487154,-2.833874,6.422173,-2.456368,-0.055380,0.320637,0.001650,56.620197,188.509832,1513.192377,-912.196417,0
0.047917,-46.989528,210.440159,-88.981440,1.208928,5.354835,-5.537668,-0.210626,-4.921700,5.868209,0.087492,-0.113828,0.294049,-0.013287,-4.713931,188.571136,1513.821137,-912.115671,0
0.048974,-124.810424,179.561368,-34.113068,2.215518,6.569030,-3.978015,-2.785272,-6.064858,4.193729,2.602890,-0.146705,0.304175,0.001650,-97.433309,188.496067,1514.078469,-912.578893,0
0.050012,-186.615709,129.304808,17.037500,3.233418,6.494474,-2.017534,-4.479314,-6.237618,2.313610,4.264404,-0.216112,0.317109,-0.009553,-157.387618,188.721929,1512.783539,-911.748397,0
0.051053,-194.408007,66.544511,79.403031,4.454898,5.582053,0.732694,-6.136042,-5.278248,-0.481387,5.844088,-0.212459,0.317305,-0.002084,-182.088658,188.646616,1513.230518,-912.702718,0
0.052091,-171.825088,14.318763,155.347160,5.857338,4.218746,2.899541,-6.546492,-3.907193,-2.646881,6.377765,-0.259948,0.328737,-0.028224,-181.670188,188.571026,1512.301173,-912.815629,0
0.053140,-112.503811,-36.602247,200.280872,6.682968,1.740652,4.748901,-5.859920,-1.517955,-4.422082,5.673311,-0.230724,0.343174,-0.039427,-144.788278,188.495774,1512.391494,-914.300675,0
0.054180,-55.088073,-105.849989,198.643561,6.637728,-0.772945,6.229183,-4.617374,1.040367,-6.104955,4.616631,-0.179582,0.330109,-0.020755,-98.620859,188.721985,1511.552218,-913.968655,0
0.055220,-4.613946,-170.579472,152.060228,5.823408,-3.162283,6.522858,-2.591240,3.444307,-6.335774,2.620679,-0.150358,0.305808,-0.024490,-49.320570,188.646543,1512.023301,-914.298362,0
0.056260,47.686324,-209.769925,88.217425,4.579308,-5.150438,5.661675,0.136391,5.495376,-5.634926,0.034124,-0.091910,0.311818,-0.002084,10.011688,188.571129,1510.364795,-915.118047,0
0.057305,124.327600,-179.724717,34.407765,3.617958,-6.307829,4.189331,2.599095,6.631183,-4.149297,-2.370980,-0.095563,0.304763,-0.061832,99.892256,188.495781,1510.952218,-915.508850,0
0.058340,186.337050,-129.419832,-16.484280,2.667918,-6.311379,2.224882,4.259555,6.756158,-2.277572,-4.078747,-0.011544,0.317501,-0.017021,162.006775,188.721953,1510.044031,-914.867226,0
0.059385,194.106663,-66.321271,-79.182197,1.446438,-5.398958,-0.529315,5.957328,5.745327,0.525819,-5.597947,0.014027,0.321159,-0.028224,187.148904,188.571122,1509.451140,-915.588607,0
0.060427,171.149442,-13.563963,-155.729546,-0.012552,-4.017900,-2.636633,6.315540,4.440436,2.632559,-6.131624,0.014027,0.323772,-0.046895,186.063144,188.571359,1508.265334,-915.272097,0
0.061468,113.075839,36.934216,-199.555304,-0.872112,-1.589509,-4.478056,5.643893,2.018116,4.340613,-5.444960,-0.011544,0.338144,-0.050629,149.769355,188.495819,1507.588693,-915.611584,0
0.062508,54.661962,105.928258,-198.989016,-0.838182,0.927638,-5.950401,4.457317,-0.499773,6.027683,-4.445205,-0.037115,0.324164,-0.024490,104.303156,188.719559,1506.176578,-914.886926,0
0.063551,4.131122,169.860402,-152.381061,-0.001242,3.299224,-6.244076,2.408795,-2.822847,6.317255,-2.370980,-0.062686,0.320637,-0.031958,55.907667,188.571002,1504.780087,-913.834077,0
0.064594,-48.293915,209.763628,-87.479546,1.242858,5.290930,-5.414642,-0.236746,-4.910673,5.645784,0.119513,-0.128440,0.304371,-0.024490,-4.883581,188.570817,1502.118903,-912.786805,0
0.065630,-123.222474,179.875472,-34.507008,2.249448,6.430569,-3.970078,-2.706913,-5.991343,4.126582,2.485481,-0.146705,0.305024,0.009119,-94.243889,188.495626,1500.491456,-911.498608,0
0.066676,-187.058066,129.171918,17.345265,3.256038,6.430569,-1.946100,-4.341253,-6.119994,2.284233,4.225268,-0.190541,0.318350,-0.013287,-157.240588,188.723989,1499.155738,-910.643673,0
0.067709,-194.237869,67.813006,77.765720,4.353108,5.511047,0.708883,-5.979324,-5.179002,-0.380666,5.680427,-0.234377,0.321290,-0.031958,-180.539188,188.646645,1496.875485,-908.694605,0
0.068751,-171.870458,15.406045,155.531819,5.789478,4.154841,2.820169,-6.453208,-3.899841,-2.588127,6.310166,-0.223418,0.336903,-0.009553,-182.371408,188.571547,1496.112756,-907.988214,0
0.069792,-114.806338,-35.635775,197.744887,6.637728,1.815208,4.574283,-5.684546,-1.573092,-4.296181,5.612828,-0.259948,0.335662,-0.017021,-146.349058,188.495861,1494.496655,-906.783581,0
0.070834,-55.269553,-104.702303,199.591478,6.682968,-0.701940,6.169654,-4.621106,1.021988,-6.008432,4.613073,-0.219765,0.327104,-0.009553,-99.864959,188.722203,1493.645543,-906.222490,0
0.071877,-4.387096,-167.897512,153.820644,5.789478,-3.094827,6.411738,-2.527807,3.289926,-6.226660,2.691836,-0.183235,0.324034,-0.043161,-51.141480,188.646636,1492.492682,-903.930341,0
0.072929,48.457614,-209.709521,87.429546,4.590618,-5.118486,5.625958,0.121466,5.451267,-5.567779,0.062587,-0.139399,0.313974,-0.039427,10.124788,188.571299,1491.938581,-902.619055,0
0.073970,123.692420,-179.579746,34.050758,3.572718,-6.211972,4.193299,2.599095,6.517235,-4.103133,-2.282034,-0.044421,0.306919,-0.020755,99.519026,188.496051,1490.504508,-900.747520,0
0.075011,186.813435,-129.250700,-17.235227,2.611368,-6.236823,2.189165,4.259555,6.704698,-2.231408,-4.046726,-0.011544,0.318350,-0.039427,162.165115,188.722143,1489.858917,-900.250890,0
0.076054,193.800415,-66.538727,-79.674621,1.446438,-5.377656,-0.553127,5.871507,5.675488,0.467065,-5.548137,0.010374,0.325014,-0.035692,185.599434,188.571283,1489.125015,-899.105473,0
0.077092,171.296894,-13.769338,-155.901894,-0.001242,-3.922042,-2.592979,6.311808,4.363245,2.607379,-6.149413,0.003068,0.329978,-0.028224,185.475024,188.571348,1488.574055,-899.395089,0
0.078138,113.019127,37.514099,-199.112122,-0.849492,-1.575308,-4.426465,5.580460,2.036495,4.332220,-5.384476,-0.004238,0.337425,-0.039427,150.233065,188.495879,1488.004435,-898.756986,0
0.079177,54.208262,106.266524,-199.062879,-0.838182,0.934739,-5.954369,4.420004,-0.529179,5.998307,-4.413184,-0.018850,0.328606,-0.039427,102.821546,188.722087,1487.452862,-898.663068,0
0.080219,3.495942,169.836241,-152.159470,0.021378,3.288573,-6.164704,2.390139,-2.848577,6.296272,-2.363864,-0.066339,0.322858,-0.024490,54.776667,188.571395,1487.249918,-898.587785,0
0.081260,-48.430025,209.811952,-87.405682,1.208928,5.283829,-5.410673,-0.262866,-4.895970,5.620604,0.172880,-0.135746,0.311687,-0.061832,-6.693181,188.571286,1486.591773,-898.861974,0
0.082302,-124.050476,179.718420,-33.953030,2.226828,6.384416,-3.898643,-2.718107,-5.980316,4.118188,2.528175,-0.172276,0.303652,-0.013287,-96.381479,188.571321,1486.656405,-898.956726,0
0.083345,-186.785846,129.328970,18.096212,3.267348,6.412818,-1.969911,-4.367372,-6.164103,2.267447,4.211036,-0.183235,0.316129,-0.017021,-157.772158,188.722088,1487.060258,-898.947443,0
0.084386,-194.158472,67.003586,80.117046,4.443588,5.535899,0.760474,-5.997981,-5.160624,-0.422633,5.737353,-0.238030,0.319396,-0.028224,-181.919008,188.571370,1487.794105,-899.260763,0
0.085425,-171.654951,13.932174,155.802652,5.823408,4.147740,2.836044,-6.393506,-3.833678,-2.613307,6.260356,-0.223418,0.333506,-0.020755,-181.738048,188.495908,1486.885659,-898.918530,0
0.086466,-113.343156,-36.976755,199.012879,6.694278,1.737101,4.685404,-5.721860,-1.525307,-4.346541,5.584365,-0.227071,0.341279,-0.058098,-145.082338,188.571375,1487.025811,-899.049157,0
0.087510,-54.089933,-106.007041,198.914395,6.660348,-0.804898,6.118063,-4.553941,1.055070,-6.008432,4.556147,-0.201500,0.328933,-0.031958,-97.930949,188.722163,1486.571783,-898.685274,0
0.088545,-3.740573,-168.767337,153.143561,5.834718,-3.091277,6.395863,-2.565121,3.326683,-6.247643,2.588658,-0.161317,0.311491,-0.009553,-48.653280,188.571424,1486.130092,-899.410593,0
0.089595,48.650436,-209.371255,87.343371,4.579308,-5.114936,5.637864,0.132660,5.440240,-5.588762,0.005661,-0.091910,0.321421,-0.017021,11.244478,188.571386,1485.879349,-899.722527,0
0.090628,123.204692,-179.990497,34.666288,3.617958,-6.226173,4.137739,2.558050,6.491504,-4.098936,-2.289150,-0.037115,0.305416,-0.024490,98.568986,188.571355,1485.435152,-900.000493,0
0.091667,186.291680,-130.108444,-16.644318,2.645298,-6.261675,2.248693,4.229704,6.682643,-2.281768,-4.021821,-0.040768,0.318350,-0.031958,162.278215,188.722025,1485.344723,-899.689701,0
0.092708,193.947868,-67.952193,-78.049621,1.457748,-5.313751,-0.449944,5.808073,5.693866,0.420902,-5.455633,0.006721,0.319657,0.005384,186.131004,188.571485,1484.681367,-899.114396,0
0.093752,171.398977,-14.264655,-155.631061,-0.023862,-3.957545,-2.557262,6.244644,4.370596,2.603182,-6.081814,0.017680,0.328018,-0.005818,186.504234,188.495987,1483.958753,-898.782125,0
0.094791,114.266802,36.922135,-197.757955,-0.860802,-1.625012,-4.315344,5.543146,2.095307,4.248286,-5.373803,0.014027,0.333898,-0.017021,150.798565,188.496092,1483.504542,-897.795500,0
0.095833,54.242289,105.300051,-199.690720,-0.894732,0.877934,-5.886904,4.416272,-0.451988,5.926963,-4.359817,-0.007891,0.320049,-0.028224,104.280536,188.722092,1482.506412,-896.760154,0
0.096875,3.280434,167.697921,-153.858334,-0.001242,3.199816,-6.105176,2.408795,-2.778738,6.178764,-2.370980,-0.080951,0.319330,-0.039427,55.726707,188.572267,1480.832482,-895.776339,0
0.097916,-48.033038,210.198541,-88.328978,1.197618,5.184422,-5.402736,-0.221820,-4.822455,5.591227,0.126628,-0.102869,0.320637,-0.013287,-4.125811,188.495408,1480.495727,-895.043633,0
0.098961,-123.131734,180.032524,-34.137689,2.272068,6.295659,-3.890706,-2.643480,-5.873719,4.067828,2.446344,-0.139399,0.306461,-0.017021,-93.995069,188.571681,1478.990479,-893.682968,0
0.100005,-187.171491,129.896772,17.406818,3.244728,6.348913,-1.946100,-4.330059,-6.053831,2.263250,4.168342,-0.194194,0.315411,-0.035692,-157.512028,188.722391,1477.749469,-893.154125,0
0.101054,-193.976992,66.967343,80.375568,4.420968,5.443592,0.704914,-5.900965,-5.079757,-0.439420,5.655522,-0.238030,0.320245,-0.020755,-181.240408,188.571610,1476.254448,-892.429462,0
0.102094,-171.439443,13.787204,156.319697,5.879958,4.051883,2.800326,-6.322610,-3.796920,-2.554553,6.214104,-0.234377,0.325601,-0.024490,-181.907698,188.496358,1475.650184,-891.479006,0
0.103135,-113.411211,-37.617043,198.163448,6.615108,1.683847,4.586189,-5.613650,-1.503252,-4.279394,5.434936,-0.230724,0.326385,-0.058098,-144.618628,188.571029,1473.422043,-890.261545,0
0.104177,-53.443411,-106.405710,199.049811,6.660348,-0.780046,6.034722,-4.520359,1.058746,-5.974858,4.509895,-0.219765,0.322466,-0.028224,-98.304179,188.722404,1472.831690,-889.818170,0
0.105218,-2.368131,-168.996874,152.257197,5.812098,-3.062875,6.304586,-2.490493,3.363441,-6.117546,2.521059,-0.154011,0.312732,-0.024490,-49.230090,188.564143,1471.049860,-889.180436,0
0.106261,49.092794,-209.624954,87.047917,4.590618,-5.008427,5.590241,0.155048,5.381428,-5.550992,0.048356,-0.080951,0.301301,-0.017021,10.656358,188.469262,1470.869464,-887.935873,0
0.107303,123.919270,-179.326047,33.718371,3.595338,-6.116114,4.086148,2.520736,6.447395,-4.019199,-2.292708,-0.037115,0.304371,-0.005818,99.756536,188.643099,1469.856705,-887.304116,0
0.108341,186.904175,-129.709774,-17.616856,2.645298,-6.130315,2.189165,4.218510,6.612804,-2.193638,-3.989800,-0.018850,0.316456,0.031524,162.436555,188.525321,1468.721277,-886.913760,0
0.109383,193.516853,-69.389820,-80.191667,1.378578,-5.246296,-0.525347,5.804342,5.601973,0.483852,-5.441402,-0.000585,0.315411,-0.020755,185.452404,188.587372,1467.815114,-887.577558,0
0.110423,171.149442,-13.225698,-156.098864,-0.035172,-3.914942,-2.592979,6.214793,4.308109,2.594789,-6.081814,0.028639,0.329913,-0.024490,185.282754,188.495790,1467.448491,-887.318377,0
