1-Time,2-VGERA,3-VGERB,4-VGERC,5-VN,6-IGERAN,7-IGERBN,8-IGERCN,9-IGERAT,10-IGERBT,11-IGERCT,12-IN,13-IFD,14-IFAULT,15-VFAULT,16-Speed (rad/s),17-Active Power,18-Reactive Power,19-FAULT 
0.000000,-65.158268,-96.815526,196.218058,4.131172,2.699116,3.413811,-5.754083,-2.607017,-3.482863,5.590819,0.124775,0.477566,-0.040740,-17.061152,188.495740,1618.183719,-21.366736,0
0.001042,-1.844786,-157.619444,167.783146,3.590725,0.607516,4.983653,-5.058180,-0.457403,-5.074641,4.985372,0.095606,0.474879,-0.003573,-6.917401,188.721819,1618.294138,-21.312988,0
0.002083,60.124004,-184.844377,117.305102,2.611166,-1.513439,5.588697,-3.438273,1.745382,-5.527586,3.210918,0.048206,0.475361,-0.022156,1.503826,188.646444,1618.085436,-20.364622,0
0.003125,117.584124,-190.458492,38.051899,1.091161,-3.645403,5.523287,-1.234581,3.959561,-5.488762,1.112797,-0.006487,0.461788,-0.025873,8.574054,188.571187,1617.771589,-20.028296,0
0.004167,161.563434,-154.988561,-28.721537,-0.214918,-5.028794,4.685220,0.841529,5.258445,-4.539735,-1.053865,-0.050241,0.461168,-0.025873,18.031046,188.495640,1618.408336,-19.397801,0
0.005208,193.180625,-83.332255,-81.423337,-1.228255,-5.579215,2.816943,3.149607,5.953462,-2.723641,-3.353802,-0.079410,0.459583,-0.018440,25.551607,188.721978,1618.705147,-18.905597,0
0.006250,180.773307,-17.971274,-140.237428,-2.399222,-5.381064,1.001812,4.553010,5.638236,-0.868724,-4.644660,-0.104934,0.473294,-0.011006,28.095988,188.570995,1618.151038,-18.713166,0
0.007292,134.274114,43.490364,-185.150007,-3.277448,-4.397645,-1.303894,5.639392,4.665972,1.413256,-5.825091,-0.097641,0.478393,-0.003573,27.623139,188.571084,1619.019616,-18.928493,0
0.008333,64.926472,96.753985,-196.086511,-3.491375,-2.474841,-3.446076,5.689652,2.675869,3.526999,-5.703240,-0.112226,0.472881,0.011294,18.289988,188.495651,1619.539064,-19.345210,0
0.009375,1.477392,157.722332,-167.542235,-2.984706,-0.346547,-5.024095,5.032410,0.549042,5.144660,-5.029252,-0.079410,0.470263,0.003860,8.202529,188.721945,1620.636945,-19.549406,0
0.010417,-60.186301,184.759345,-116.894067,-1.937591,1.818442,-5.629138,3.358377,-1.710712,5.588977,-3.205296,-0.057533,0.467507,-0.022156,-1.716055,188.646545,1621.494469,-19.782921,0
0.011458,-117.522122,190.361715,-37.397831,-0.440104,3.939397,-5.535111,1.212677,-3.890709,5.494075,-1.099559,-0.021072,0.455174,0.007577,-7.716742,188.571027,1621.413496,-19.687972,0
0.012500,-161.196333,154.656885,29.241937,0.843456,5.352144,-4.615281,-0.960086,-5.254158,4.549361,1.070911,-0.010133,0.461788,-0.011006,-17.916784,188.571089,1621.675437,-19.686993,0
0.013542,-193.514120,82.648228,81.749310,1.879312,5.865871,-2.816503,-3.221770,-5.880812,2.720326,3.325153,0.055498,0.457103,-0.007290,-24.818137,188.721886,1621.875854,-19.148058,0
0.014583,-180.327107,17.240267,140.405430,3.039020,5.671389,-0.952315,-4.613576,-5.595969,0.805016,4.692168,0.073729,0.461168,-0.018440,-27.846627,188.495716,1622.604242,-20.452215,0
0.015625,-133.579316,-43.798551,185.646103,3.883467,4.651275,1.312511,-5.734752,-4.589524,-1.433826,5.727901,0.121129,0.463648,-0.011006,-27.767818,188.571147,1622.707799,-20.347074,0
0.016667,-63.836177,-96.874251,196.023631,4.108653,2.724802,3.471044,-5.711555,-2.580432,-3.517373,5.609858,0.088314,0.461788,0.026161,-17.916784,188.495577,1622.761344,-20.451537,0
0.017708,-0.432296,-157.713404,167.770994,3.568207,0.622194,5.044975,-5.054314,-0.438413,-5.104837,4.973949,0.102898,0.451867,-0.022156,-7.750517,188.721940,1622.918907,-20.373546,0
0.018750,60.666401,-184.527262,116.624608,2.611166,-1.579490,5.613226,-3.376415,1.787159,-5.527586,3.169032,0.066437,0.460272,-0.011006,1.942900,188.646312,1622.594979,-20.829603,0
0.019792,117.358126,-190.951782,36.994703,1.079901,-3.634395,5.519199,-1.230715,3.944370,-5.527586,1.105181,0.037267,0.455794,0.011294,8.866770,188.571026,1622.926716,-20.412007,0
0.020833,160.908038,-154.389566,-29.535699,-0.192400,-5.010447,4.627986,0.887923,5.277435,-4.544048,-1.107175,-0.010133,0.456690,-0.003573,18.222438,188.495740,1622.914755,-20.785861,0
0.021875,193.542222,-81.887619,-81.326124,-1.228255,-5.582885,2.837384,3.168937,5.930674,-2.758151,-3.380456,-0.053887,0.459859,-0.011006,25.405249,188.721969,1622.870715,-20.278720,0
0.022917,180.287410,-16.362207,-139.933636,-2.399222,-5.362716,0.997724,4.591672,5.623044,-0.860096,-4.709393,-0.086703,0.447733,-0.025873,28.715196,188.571024,1622.959017,-20.344086,0
0.023958,133.358820,44.441710,-185.222917,-3.243670,-4.346272,-1.279365,5.647124,4.639387,1.413256,-5.779397,-0.112226,0.447319,0.011294,27.938372,188.571067,1622.072646,-19.856837,0
0.025000,63.254083,97.035865,-195.989298,-3.502634,-2.460163,-3.429723,5.658723,2.668274,3.501117,-5.676585,-0.104934,0.450971,-0.007290,18.154888,188.495667,1621.288956,-19.097109,0
0.026042,0.064901,157.440452,-167.505780,-2.950928,-0.346547,-4.991390,4.974418,0.499669,5.045443,-5.059715,-0.108580,0.444219,-0.040740,7.459479,188.721893,1620.456988,-18.420494,0
0.027083,-60.649598,184.618405,-115.946237,-1.937591,1.847798,-5.616874,3.300385,-1.718307,5.524271,-3.235758,-0.097641,0.467162,-0.011006,-1.659763,188.571027,1619.778569,-17.667713,0
0.028125,-117.126625,190.584870,-36.073298,-0.406326,3.939397,-5.531023,1.189480,-3.871720,5.472506,-1.118598,-0.032010,0.454760,-0.011006,-7.682967,188.571020,1619.333306,-17.013310,0
0.029167,-160.891235,154.386749,30.286981,0.877234,5.326458,-4.660251,-0.936889,-5.189593,4.536419,1.055679,0.033621,0.453382,-0.018440,-17.725393,188.570975,1618.412159,-16.240398,0
0.030208,-193.254221,81.485472,81.773614,1.890571,5.840184,-2.783798,-3.260431,-5.820046,2.772091,3.367039,0.084667,0.456690,0.003860,-24.615487,188.722016,1617.968470,-15.775634,0
0.031250,-180.496606,16.159726,140.138093,3.005242,5.631024,-0.931874,-4.601977,-5.542798,0.839526,4.654090,0.095606,0.469298,0.007577,-27.452585,188.571047,1617.028441,-15.014382,0
0.032292,-133.330717,-44.550232,185.281553,3.928504,4.614580,1.296158,-5.692225,-4.559141,-1.451081,5.697438,0.095606,0.463442,-0.007290,-27.981726,188.571096,1616.347132,-15.060080,0
0.033333,-63.135581,-97.015192,196.303119,4.108653,2.695446,3.421987,-5.684493,-2.580432,-3.508746,5.602242,0.106545,0.470470,-0.011006,-16.926052,188.646571,1616.210690,-14.741157,0
0.034375,0.064901,-157.525484,167.600871,3.601985,0.611185,4.995918,-5.015653,-0.468797,-5.104837,4.966333,0.091960,0.491002,-0.014723,-6.557135,188.721771,1616.018524,-14.253707,0
0.035417,60.689000,-184.914847,116.162845,2.577388,-1.550134,5.564168,-3.372549,1.775766,-5.549155,3.149992,0.062790,0.482596,-0.029590,1.751509,188.571138,1616.127200,-14.178586,0
0.036458,117.403326,-190.716882,36.399271,1.079901,-3.663750,5.519199,-1.226849,3.948168,-5.497390,1.013793,0.011744,0.454623,0.015011,8.641604,188.495609,1615.423456,-15.089666,0
0.037500,161.156637,-154.448291,-29.742278,-0.214918,-4.999438,4.677044,0.895655,5.311616,-4.526793,-1.095751,-0.032010,0.452073,-0.029590,17.940980,188.646500,1615.717463,-15.133378,0
0.038542,193.350124,-81.770169,-81.411186,-1.239515,-5.593893,2.800591,3.188268,5.953462,-2.719327,-3.395688,-0.057533,0.458205,-0.007290,25.574124,188.721949,1615.765062,-15.626899,0
0.039583,180.524709,-16.514892,-139.970091,-2.387963,-5.377394,0.969107,4.576207,5.626842,-0.804017,-4.656083,-0.093995,0.469712,-0.007290,28.095988,188.571123,1615.319180,-15.942231,0
0.040625,133.517019,44.206810,-185.283675,-3.311226,-4.390306,-1.303894,5.670321,4.646982,1.465021,-5.779397,-0.101287,0.473777,-0.007290,27.668172,188.495640,1615.575902,-16.576175,0
0.041667,63.785180,96.894925,-196.086511,-3.513893,-2.482180,-3.474692,5.666455,2.656880,3.496803,-5.676585,-0.123164,0.479220,-0.011006,18.132371,188.646514,1615.586033,-16.876839,0
0.042708,0.821996,157.722332,-167.481476,-2.962187,-0.361225,-4.975037,4.974418,0.518659,5.105836,-5.021636,-0.115872,0.471572,0.015011,7.842262,188.721802,1615.906201,-17.461636,0
0.043750,-60.276700,184.747600,-116.128512,-1.937591,1.822112,-5.600521,3.323582,-1.722105,5.567408,-3.220527,-0.050241,0.467025,0.003860,-1.873672,188.571004,1616.345730,-17.894986,0
0.044792,-117.499522,190.526145,-36.693034,-0.428845,3.987100,-5.531023,1.170150,-3.905901,5.550153,-1.065289,-0.017425,0.453313,-0.022156,-7.773034,188.495736,1617.431658,-18.673448,0
0.045833,-161.241533,154.339769,29.691549,0.877234,5.322789,-4.647986,-0.983283,-5.242764,4.493282,1.082334,-0.017425,0.455243,-0.011006,-17.849234,188.646466,1617.688491,-19.677524,0
0.046875,-193.807918,82.248897,81.676400,1.845534,5.902565,-2.791974,-3.248833,-5.884610,2.659933,3.378463,0.066437,0.456621,-0.018440,-24.818137,188.646556,1618.155471,-21.182160,0
0.047917,-180.293207,17.216777,140.575553,3.027760,5.675058,-0.948227,-4.636772,-5.576980,0.835212,4.684553,0.095606,0.469023,0.011294,-27.869143,188.571078,1618.906352,-21.574784,0
0.048958,-133.952213,-43.540161,185.840530,3.883467,4.658614,1.296158,-5.754083,-4.600918,-1.464023,5.758364,0.124775,0.477773,-0.003573,-27.812852,188.495598,1620.265313,-22.037522,0
0.050000,-64.604572,-96.956467,195.975024,4.097394,2.706454,3.479221,-5.750217,-2.542453,-3.543256,5.617474,0.102898,0.475361,0.007577,-17.894268,188.646467,1620.622140,-23.210267,0
0.051042,-1.291090,-158.030519,167.953269,3.601985,0.607516,5.040887,-5.065912,-0.457403,-5.126406,4.951102,0.091960,0.475637,0.033594,-7.694225,188.646312,1620.979816,-24.041828,0
0.052083,60.361303,-184.597732,116.819035,2.599907,-1.590498,5.584609,-3.395746,1.813745,-5.536214,3.134761,0.040913,0.469918,-0.018440,1.965417,188.571113,1620.857918,-24.899166,0
0.053125,117.923122,-190.763862,37.395709,1.079901,-3.656411,5.531463,-1.234581,3.974753,-5.514645,1.055679,0.000805,0.457723,-0.022156,8.889287,188.495664,1621.601811,-24.809169,0
0.054167,161.450435,-154.683191,-29.049632,-0.214918,-5.003108,4.623898,0.884056,5.266041,-4.535421,-1.118598,-0.024718,0.462133,0.007577,18.233696,188.646375,1621.351845,-25.050451,0
0.055208,193.576122,-83.109100,-81.411186,-1.228255,-5.608571,2.841472,3.172803,5.923079,-2.775406,-3.391880,-0.072118,0.459446,-0.011006,25.439024,188.646451,1621.631691,-24.851450,0
0.056250,180.423009,-17.818589,-140.298187,-2.365445,-5.403080,0.969107,4.545278,5.649629,-0.881665,-4.663699,-0.086703,0.469849,-0.018440,28.703938,188.571167,1622.198373,-24.309025,0
0.057292,134.466213,43.372914,-185.356585,-3.288707,-4.430670,-1.258925,5.658723,4.662174,1.434825,-5.748934,-0.130457,0.478806,-0.022156,27.882080,188.495745,1622.108899,-24.266523,0
0.058333,65.175071,96.953650,-195.673355,-3.502634,-2.482180,-3.421547,5.666455,2.691061,3.462293,-5.657546,-0.068472,0.480736,0.003860,18.222438,188.646514,1621.909704,-24.029581,0
0.059375,1.748590,157.651862,-167.530083,-2.939669,-0.394250,-4.970949,5.005347,0.533851,5.067012,-5.033060,-0.075764,0.471296,0.022444,7.639613,188.646460,1621.667218,-23.923466,0
0.060417,-60.095901,184.430485,-116.894067,-1.993888,1.803764,-5.580081,3.366110,-1.695520,5.511330,-3.243374,-0.064826,0.471434,0.000144,-1.580955,188.571018,1621.104749,-23.640794,0
0.061458,-117.567322,190.197285,-37.592257,-0.451364,3.913711,-5.510582,1.224276,-3.810953,5.498388,-1.141445,-0.010133,0.461444,0.000144,-7.716742,188.495658,1619.983773,-22.394448,0
0.062500,-161.467532,154.880040,29.278392,0.854715,5.289763,-4.664339,-0.894362,-5.200987,4.532106,1.021409,0.015390,0.462891,-0.025873,-17.871751,188.721953,1620.014910,-21.440402,0
0.063542,-193.028223,83.200243,81.846524,1.890571,5.810828,-2.824679,-3.214038,-5.865620,2.728953,3.309922,0.077375,0.464337,0.003860,-24.716812,188.646455,1619.721748,-20.309928,0
0.064583,-180.654805,17.674832,140.514795,3.061538,5.649372,-0.993196,-4.594245,-5.546596,0.886977,4.608396,0.077375,0.471159,0.003860,-27.407552,188.571172,1618.902724,-19.502663,0
0.065625,-134.110412,-43.775061,185.220795,3.939764,4.596233,1.259365,-5.669028,-4.593322,-1.382061,5.724093,0.102898,0.476877,-0.033307,-27.947951,188.495712,1618.063112,-18.536576,0
0.066667,-64.423773,-96.932977,196.108693,4.119912,2.706454,3.397458,-5.727020,-2.607017,-3.444039,5.545125,0.099252,0.476188,0.018727,-17.083668,188.721915,1616.849379,-17.001362,0
0.067708,-1.110291,-157.501994,167.673781,3.556947,0.647880,4.934596,-5.046582,-0.491584,-5.053072,4.970141,0.091960,0.470332,-0.033307,-6.973693,188.722020,1616.077224,-16.034139,0
0.068750,60.463002,-184.820887,117.049917,2.633685,-1.539126,5.576433,-3.430541,1.722595,-5.518959,3.214726,0.066437,0.462477,-0.003573,1.503826,188.571098,1616.227702,-14.302371,0
0.069792,117.663224,-190.376277,37.432164,1.102420,-3.623386,5.490582,-1.277108,3.913987,-5.510331,1.086142,0.037267,0.461237,-0.014723,8.596570,188.495615,1615.605432,-13.509263,0
0.070833,161.382635,-154.753661,-29.244059,-0.226178,-4.999438,4.656603,0.853127,5.269839,-4.535421,-1.038634,-0.017425,0.462133,0.011294,18.042305,188.721862,1615.539616,-12.548326,0
0.071875,192.943326,-82.510104,-81.666371,-1.194477,-5.564537,2.845560,3.080016,5.904089,-2.719327,-3.338570,-0.075764,0.464751,-0.003573,25.562865,188.646495,1614.388790,-12.310202,0
0.072917,180.569908,-16.820263,-140.213125,-2.365445,-5.348038,0.965019,4.522081,5.630640,-0.903234,-4.644660,-0.115872,0.460410,0.003860,28.107247,188.571064,1614.022192,-11.684640,0
0.073958,133.697818,44.347750,-184.992035,-3.299967,-4.382967,-1.234396,5.604597,4.658376,1.361491,-5.722279,-0.115872,0.472330,-0.029590,27.611881,188.570110,1613.220210,-10.318523,0
0.075000,63.694781,97.012375,-196.050056,-3.480115,-2.485850,-3.401106,5.662589,2.698657,3.470920,-5.653738,-0.145042,0.450420,0.015011,18.222438,188.721929,1613.165408,-9.848409,0
0.076042,0.403899,157.534412,-167.323504,-2.973447,-0.364894,-4.913715,5.009213,0.549042,5.032502,-5.010213,-0.101287,0.460892,0.037311,8.089946,188.646487,1612.451745,-9.088065,0
0.077083,-60.649598,184.641895,-116.164967,-1.937591,1.840459,-5.563728,3.327448,-1.657541,5.511330,-3.231951,-0.064826,0.456138,0.003860,-1.862413,188.571111,1612.202153,-8.363007,0
0.078125,-117.386523,190.220775,-36.425697,-0.406326,3.946736,-5.473789,1.158551,-3.833741,5.481133,-1.141445,-0.039302,0.452556,0.003860,-7.750517,188.571170,1612.067487,-8.242710,0
0.079167,-160.947735,154.304534,30.116857,0.922271,5.249399,-4.627546,-0.952354,-5.174402,4.493282,1.029024,0.026329,0.453382,-0.007290,-17.871751,188.721880,1611.164989,-8.142374,0
0.080208,-193.118622,81.673392,81.919434,1.924349,5.832845,-2.779710,-3.210172,-5.816248,2.711698,3.302306,0.055498,0.453038,-0.014723,-24.761846,188.646422,1610.227346,-7.726116,0
0.081250,-180.191508,16.054021,140.198851,3.016501,5.612677,-0.972755,-4.605843,-5.565586,0.809330,4.619819,0.081021,0.465578,0.000144,-27.824110,188.571002,1610.075399,-8.064338,0
0.082292,-133.229018,-44.702917,185.208643,3.905986,4.581555,1.247100,-5.661296,-4.543949,-1.390689,5.666976,0.099252,0.475086,-0.018440,-27.689010,188.646496,1608.868231,-7.845643,0
0.083333,-62.932183,-97.038682,196.132996,4.108653,2.691777,3.434251,-5.680626,-2.538655,-3.495804,5.602242,0.110191,0.471090,-0.011006,-17.815459,188.721842,1609.351435,-8.438769,0
0.084375,0.177900,-157.513739,167.552264,3.556947,0.636872,4.946860,-5.034983,-0.457403,-5.074641,4.924447,0.095606,0.446492,-0.025873,-7.626676,188.646549,1609.012407,-8.725219,0
0.085417,61.061898,-184.515517,116.065631,2.622425,-1.535456,5.580521,-3.330022,1.764372,-5.497390,3.191879,0.044560,0.454140,0.003860,2.111775,188.571210,1608.530739,-8.860026,0
0.086458,117.312926,-190.669902,36.265603,1.034864,-3.623386,5.523287,-1.203652,3.925380,-5.458566,1.063295,0.011744,0.450351,0.007577,8.900545,188.648302,1607.902183,-9.075987,0
0.087500,160.828939,-154.272116,-30.082524,-0.226178,-4.977422,4.607545,0.876324,5.254647,-4.475028,-1.053865,-0.024718,0.450351,-0.007290,18.188663,188.721884,1606.948607,-9.294434,0
0.088542,192.954626,-81.640973,-81.690674,-1.228255,-5.520504,2.796503,3.126410,5.869908,-2.706386,-3.330954,-0.057533,0.457447,0.003860,25.360216,188.646451,1606.291651,-9.060249,0
0.089583,180.343910,-16.009857,-139.836423,-2.399222,-5.333361,0.948667,4.471822,5.581267,-0.838527,-4.637044,-0.083057,0.477497,-0.022156,28.748971,188.571170,1605.357855,-9.714007,0
0.090625,133.573519,44.794060,-184.797608,-3.277448,-4.335264,-1.287542,5.589132,4.624195,1.365805,-5.695624,-0.108580,0.469781,-0.003573,27.848305,188.646514,1604.719636,-9.781108,0
0.091667,63.502682,97.106335,-196.025753,-3.525153,-2.412460,-3.384754,5.581400,2.649284,3.445038,-5.604236,-0.101287,0.454002,0.015011,18.109855,188.721826,1603.708995,-10.041753,0
0.092708,0.347399,157.276022,-167.201988,-2.939669,-0.331869,-4.905539,4.947355,0.522457,5.032502,-4.960711,-0.115872,0.446079,-0.014723,7.425704,188.646360,1603.076691,-10.636791,0
0.093750,-60.739997,184.547935,-116.006995,-1.915073,1.756061,-5.539199,3.311984,-1.657541,5.463878,-3.205296,-0.072118,0.455725,-0.022156,-1.851155,188.571002,1602.287237,-10.734211,0
0.094792,-117.250924,190.162050,-36.182664,-0.417586,3.910042,-5.441084,1.174016,-3.837539,5.455251,-1.114791,-0.021072,0.452762,0.000144,-7.773034,188.722061,1601.875597,-11.090455,0
0.095833,-161.004235,154.680375,30.311284,0.877234,5.212704,-4.582576,-0.894362,-5.128827,4.445830,1.013793,0.004452,0.453176,-0.003573,-17.747909,188.721886,1601.075108,-11.031030,0
0.096875,-192.587526,82.166682,81.992344,1.868052,5.796151,-2.787886,-3.159912,-5.782066,2.720326,3.306114,0.084667,0.453658,0.007577,-24.592971,188.646496,1600.663533,-11.117799,0
0.097917,-180.654805,16.512076,140.271761,3.016501,5.542957,-0.993196,-4.578780,-5.489628,0.852467,4.581741,0.073729,0.467025,0.022444,-27.441327,188.571313,1599.769703,-10.856955,0
0.098958,-133.884414,-44.503252,184.831941,3.951023,4.555869,1.234836,-5.599438,-4.524960,-1.356179,5.636513,0.117483,0.471779,-0.014723,-27.925435,188.721813,1599.197873,-10.776496,0
0.100000,-63.915276,-97.120897,196.315271,4.119912,2.695446,3.405634,-5.676760,-2.599422,-3.465608,5.541317,0.132068,0.470194,-0.003573,-16.959827,188.721563,1598.808674,-10.263235,0
0.101042,-0.703494,-157.384543,167.430747,3.601985,0.636872,4.897803,-5.007920,-0.457403,-5.027190,4.916831,0.099252,0.477773,0.003860,-6.748526,188.571073,1598.209913,-10.349568,0
0.102083,60.655101,-184.903102,116.612456,2.599907,-1.491422,5.535551,-3.372549,1.718797,-5.462880,3.138569,0.059144,0.466129,-0.003573,1.706476,188.571026,1597.445690,-10.588825,0
0.103125,117.505025,-190.200102,37.043310,1.079901,-3.568344,5.449701,-1.234581,3.883603,-5.480135,1.040448,0.048206,0.453313,-0.003573,8.630345,188.721905,1597.229539,-10.615032,0
0.104167,161.506934,-154.800641,-29.474941,-0.214918,-4.970083,4.603457,0.814466,5.186285,-4.470715,-1.053865,-0.046595,0.454691,0.000144,17.986013,188.797206,1596.801138,-10.536065,0
0.105208,192.638228,-82.780239,-81.897252,-1.228255,-5.509495,2.825120,3.076150,5.835727,-2.723641,-3.289068,-0.072118,0.457792,0.022444,25.484057,188.569664,1596.392605,-10.218864,0
0.106250,180.829806,-17.313553,-140.140215,-2.354185,-5.333361,0.981372,4.506617,5.588863,-0.851469,-4.610389,-0.093995,0.466680,0.003860,28.084730,188.643418,1596.567247,-10.294925,0
0.107292,134.262814,44.089360,-184.761153,-3.243670,-4.397645,-1.250748,5.596865,4.593812,1.378746,-5.691816,-0.097641,0.477015,0.018727,27.578106,188.721891,1596.423223,-11.071404,0
0.108333,64.802173,97.106335,-195.977146,-3.480115,-2.489519,-3.384754,5.627794,2.649284,3.453665,-5.596620,-0.108580,0.481562,-0.003573,18.199921,188.797211,1596.595266,-11.580801,0
0.109375,1.658191,157.557902,-167.214139,-2.950928,-0.379572,-4.885098,4.966686,0.495872,5.010933,-4.987366,-0.123164,0.474052,-0.011006,8.134979,188.571055,1596.773917,-12.032332,0
0.110417,-60.378400,184.512700,-116.638882,-1.960110,1.770739,-5.535111,3.335181,-1.665137,5.494075,-3.197680,-0.075764,0.468540,-0.014723,-1.851155,188.646527,1597.169878,-12.550044,0
0.111458,-117.702921,189.903660,-37.288466,-0.417586,3.906372,-5.469701,1.243606,-3.822347,5.442309,-1.095751,-0.024718,0.455380,0.000144,-7.806809,188.721927,1596.944327,-12.915406,0
