1-Time,2-VGERA,3-VGERB,4-VGERC,5-VN,6-IGERAN,7-IGERBN,8-IGERCN,9-IGERAT,10-IGERBT,11-IGERCT,12-IN,13-IFD,14-IFAULT,15-VFAULT,16-Speed (rad/s),17-FAULT 
0.000000,183.637535,-109.329289,-19.438826,2.588748,-4.802511,-0.689655,5.705098,5.363049,0.553676,-5.572531,-0.007891,0.190836,-0.031958,1.970278,188.571542,0
0.001042,191.305065,-56.898166,-91.640531,1.242858,-3.567014,-2.853644,6.527865,4.025076,2.854136,-6.478572,-0.011544,0.190117,-0.031958,2.151238,188.496083,0
0.002083,153.273661,-8.610792,-161.724811,-0.091722,-1.436847,-4.244236,5.642411,1.974007,4.183648,-5.633441,-0.004238,0.203509,-0.035692,2.196478,188.646786,0
0.003125,93.203778,39.289992,-207.951137,-0.996522,1.037697,-5.261463,4.130086,-0.433609,5.235171,-4.148752,-0.048074,0.205795,-0.035692,2.207788,188.722252,0
0.004167,47.652296,114.046626,-181.704925,-0.555432,3.320526,-5.558631,2.049661,-2.764035,5.593737,-2.146325,-0.102869,0.194037,-0.076769,2.162548,188.571520,0
0.005208,2.554514,187.003205,-131.305303,0.417228,4.868447,-4.861430,-0.195318,-4.377689,5.041788,0.042641,-0.110175,0.189072,-0.013287,2.354818,188.496138,0
0.006250,-52.683463,196.196773,-75.328978,1.514298,6.068441,-3.188910,-3.090675,-5.484090,3.369825,2.848323,-0.183235,0.171238,-0.020755,2.637568,188.722366,0
0.007292,-140.735294,170.452367,-26.591288,2.430408,6.277907,-1.436383,-4.975203,-5.829610,1.665632,4.808874,-0.238030,0.174505,-0.009553,2.852458,188.722291,0
0.008333,-184.403921,108.791433,19.745833,3.289968,4.925251,0.872380,-5.844985,-4.491637,-0.610654,5.634971,-0.259948,0.187504,-0.028224,2.931628,188.571480,0
0.009375,-191.629094,57.012678,92.046023,4.669788,3.625849,3.104947,-6.648163,-3.212476,-2.919171,6.560046,-0.252642,0.186459,-0.035692,2.818528,188.496074,0
0.010417,-153.007880,9.534725,162.130304,6.004368,1.509884,4.438391,-5.762709,-1.109947,-4.224510,5.680653,-0.248989,0.197173,-0.002084,2.761978,188.722266,0
0.011458,-93.437067,-38.982185,207.741099,6.818688,-0.961110,5.455618,-4.258220,1.305021,-5.324379,4.237840,-0.216112,0.187962,-0.020755,2.739358,188.646802,0
0.012500,-47.806188,-114.113327,181.765720,6.366288,-3.236838,5.756596,-2.146451,3.624419,-5.662801,2.223992,-0.190541,0.193972,-0.058098,2.694118,188.571366,0
0.013542,-2.629008,-186.985340,131.390720,5.495418,-4.838014,5.025106,0.122035,5.271155,-5.090708,-0.022077,-0.124787,0.190640,-0.028224,2.524468,188.496011,0
0.014583,52.801792,-196.106423,75.463637,4.443588,-5.949251,3.371636,2.966459,6.381232,-3.402630,-2.797304,-0.069992,0.174962,-0.043161,2.264338,188.719228,0
0.015625,140.808253,-170.156641,26.873674,3.504858,-6.226173,1.619109,4.862741,6.719401,-1.674264,-4.799731,-0.029809,0.178882,-0.013287,2.094688,188.721018,0
0.016667,184.023180,-108.193684,-19.771212,2.577438,-4.855765,-0.674415,5.752113,5.363049,0.573821,-5.614407,-0.022503,0.189595,-0.024490,1.992898,188.571024,0
0.017708,191.327750,-56.535739,-92.453031,1.220238,-3.609618,-2.884123,6.480849,4.069185,2.781617,-6.501413,0.014027,0.193188,-0.035692,2.185168,188.495394,0
0.018750,152.751906,-8.514145,-162.364963,-0.114342,-1.433297,-4.194708,5.665918,1.962980,4.171561,-5.671510,-0.029809,0.212132,-0.043161,2.253028,188.721608,0
0.019792,93.113038,39.604095,-207.926516,-0.996522,1.030596,-5.280513,4.126168,-0.507124,5.279488,-4.205855,-0.059033,0.205861,-0.043161,2.185168,188.721730,0
0.020833,47.493501,114.372810,-181.495644,-0.487572,3.316975,-5.585300,2.041825,-2.767710,5.658198,-2.188200,-0.095563,0.184761,-0.054364,2.162548,188.571552,0
0.021875,2.384377,187.413956,-130.960606,0.439848,4.875547,-4.907148,-0.171810,-4.418122,5.090134,0.008378,-0.146705,0.195605,-0.028224,2.332198,188.495513,0
0.022917,-53.318643,196.100126,-75.008902,1.514298,6.054240,-3.246058,-3.051495,-5.462035,3.381912,2.833095,-0.183235,0.179077,-0.013287,2.637568,188.721067,0
0.023958,-141.404502,170.283234,-26.542046,2.430408,6.338262,-1.478292,-4.955613,-5.870043,1.693834,4.839329,-0.227071,0.177314,-0.058098,2.841148,188.721712,0
0.025000,-184.313181,108.718947,20.127462,3.278658,4.886198,0.860951,-5.841068,-4.543098,-0.614683,5.646391,-0.274560,0.193906,-0.058098,2.920318,188.570274,0
0.026042,-191.719834,56.916031,92.944697,4.681098,3.711056,3.013511,-6.659917,-3.278640,-2.826508,6.563853,-0.256295,0.188550,-0.043161,2.795908,188.570171,0
0.027083,-152.701632,8.785709,162.499622,6.049608,1.534736,4.400293,-5.750955,-1.161408,-4.228539,5.745371,-0.234377,0.198871,-0.013287,2.750668,188.722257,0
0.028125,-93.153505,-39.598311,208.048864,6.897858,-0.918507,5.459428,-4.285646,1.293994,-5.348552,4.294943,-0.238030,0.210629,-0.031958,2.728048,188.722367,0
0.029167,-47.420543,-114.584482,181.630304,6.377598,-3.183584,5.809934,-2.216974,3.580310,-5.691003,2.288709,-0.175929,0.200439,-0.035692,2.694118,188.571493,0
0.030208,-2.390816,-187.589385,131.021402,5.495418,-4.788310,5.120352,0.035840,5.249101,-5.094736,0.073096,-0.121134,0.198152,-0.028224,2.547088,188.571647,0
0.031250,53.334889,-196.021856,75.192803,4.420968,-5.967002,3.451642,2.935115,6.370204,-3.430832,-2.793497,-0.110175,0.177640,-0.024490,2.286958,188.722329,0
0.032292,141.511488,-170.072074,26.565909,3.493548,-6.215522,1.691496,4.847069,6.763510,-1.774985,-4.723593,-0.055380,0.183977,-0.058098,2.083378,188.647052,0
0.033333,184.216002,-108.435302,-20.128220,2.543508,-4.848665,-0.609648,5.795210,5.407158,0.493244,-5.606793,-0.040768,0.198740,-0.028224,1.958968,188.571645,0
0.034375,191.463860,-56.535739,-92.822349,1.163688,-3.645120,-2.826975,6.582716,4.168430,2.785646,-6.554710,0.006721,0.200177,-0.024490,2.128618,188.571404,0
0.035417,152.536398,-8.369174,-163.091288,-0.148272,-1.561107,-4.221377,5.748195,2.040171,4.187677,-5.717193,-0.000585,0.217227,-0.005818,2.207788,188.722404,0
0.036458,92.954243,40.135655,-208.197349,-0.985212,0.931188,-5.307181,4.255460,-0.389500,5.299633,-4.289607,-0.051727,0.202137,-0.035692,2.207788,188.647029,0
0.037500,47.051144,115.713791,-181.471023,-0.510192,3.299224,-5.665306,2.190707,-2.716250,5.722659,-2.310021,-0.102869,0.190836,-0.013287,2.162548,188.571531,0
0.038542,1.862622,187.836788,-131.071402,0.428538,4.886198,-4.971915,-0.077780,-4.403419,5.126393,-0.075373,-0.135746,0.200961,-0.020755,2.354818,188.571505,0
0.039583,-53.908453,196.450472,-74.701137,1.514298,6.107494,-3.291776,-2.988808,-5.531874,3.490690,2.791219,-0.201500,0.185675,-0.002084,2.648878,188.722366,0
0.040625,-141.767462,170.512771,-26.123485,2.430408,6.380865,-1.565918,-4.939942,-5.936207,1.794555,4.793647,-0.197847,0.182540,-0.039427,2.818528,188.646935,0
0.041667,-185.220581,108.054498,20.509091,3.312588,5.045961,0.788564,-5.915508,-4.653370,-0.554250,5.692074,-0.256295,0.199394,0.009119,2.886388,188.571498,0
0.042708,-191.776547,56.565685,93.510985,4.692408,3.750109,2.983032,-6.726522,-3.399939,-2.846652,6.613343,-0.259948,0.196911,-0.028224,2.795908,188.646884,0
0.043750,-151.941685,9.039408,163.915341,6.060918,1.623493,4.381243,-5.892001,-1.279032,-4.244654,5.787246,-0.216112,0.215268,-0.009553,2.728048,188.722261,0
0.044792,-92.926655,-39.924496,208.011932,6.886548,-0.861702,5.531815,-4.340497,1.213127,-5.356610,4.412957,-0.230724,0.211413,0.005384,2.716738,188.646846,0
0.045833,-46.966843,-115.949625,181.359470,6.366288,-3.176484,5.859462,-2.350184,3.572959,-5.771579,2.345813,-0.205153,0.199524,-0.005818,2.671498,188.571523,0
0.046875,-1.903088,-187.734356,130.799811,5.438868,-4.781209,5.166071,0.004497,5.223370,-5.179342,0.122585,-0.143052,0.192992,-0.020755,2.535778,188.647003,0
0.047917,54.162892,-196.468850,74.601894,4.409658,-6.013156,3.504980,2.911607,6.421665,-3.523495,-2.732587,-0.113828,0.186916,-0.043161,2.253028,188.722309,0
0.048958,141.715653,-170.289531,26.221212,3.448308,-6.279427,1.775312,4.796136,6.796592,-1.819302,-4.738821,-0.044421,0.187570,-0.058098,2.072068,188.571565,0
0.050000,184.930580,-107.311778,-20.337500,2.566128,-4.965824,-0.628697,5.775621,5.443915,0.525475,-5.652476,0.010374,0.197303,-0.002084,1.947658,188.571551,0
0.051042,191.157613,-56.076664,-93.659470,1.174998,-3.684173,-2.846024,6.582716,4.238269,2.757444,-6.581358,0.017680,0.198218,-0.039427,2.196478,188.647036,0
0.052083,151.538258,-8.151718,-164.273107,-0.103032,-1.546906,-4.232806,5.763867,2.091631,4.163504,-5.747648,-0.026156,0.218403,-0.058098,2.275648,188.722554,0
0.053125,92.613968,40.558487,-208.025001,-0.996522,0.995093,-5.303372,4.228035,-0.411555,5.311719,-4.304835,-0.044421,0.208474,-0.043161,2.219098,188.571612,0
0.054167,46.676841,116.281593,-181.150948,-0.487572,3.299224,-5.680546,2.202460,-2.756683,5.766976,-2.279566,-0.091910,0.201615,-0.024490,2.185168,188.571471,0
0.055208,1.771882,188.150891,-130.332766,0.428538,4.879098,-4.930007,-0.128713,-4.436501,5.126393,-0.056339,-0.132093,0.200635,-0.020755,2.366128,188.646871,0
0.056250,-54.566318,196.245097,-73.962500,1.525608,6.128796,-3.333684,-2.988808,-5.539226,3.462488,2.806447,-0.157664,0.182474,-0.020755,2.648878,188.722246,0
0.057292,-142.402642,169.908726,-25.914205,2.430408,6.370215,-1.512580,-4.955613,-5.903125,1.722036,4.801260,-0.252642,0.179992,-0.046895,2.818528,188.571440,0
0.058333,-185.345349,107.426291,20.582955,3.346518,5.021109,0.826662,-5.923344,-4.605585,-0.606625,5.688267,-0.227071,0.195997,-0.046895,2.909008,188.571504,0
0.059375,-191.481642,56.456957,94.089584,4.681098,3.746559,3.017320,-6.667753,-3.326424,-2.846652,6.598115,-0.241683,0.198871,-0.017021,2.773288,188.722396,0
0.060417,-151.578725,8.616577,164.210796,6.049608,1.648344,4.442201,-5.837150,-1.264329,-4.244654,5.768212,-0.259948,0.216378,-0.028224,2.739358,188.722250,0
0.061458,-92.506982,-40.335246,208.135039,6.841308,-0.918507,5.524196,-4.313071,1.246209,-5.417042,4.367274,-0.197847,0.221735,0.016587,2.728048,188.571561,0
0.062500,-46.694623,-116.299971,181.100948,6.354978,-3.229738,5.821363,-2.279661,3.576634,-5.723233,2.322971,-0.186888,0.211152,-0.024490,2.682808,188.571473,0
0.063542,-1.846376,-188.193430,130.405872,5.450178,-4.756357,5.093684,0.008415,5.249101,-5.199486,0.080709,-0.121134,0.208800,-0.050629,2.535778,188.722427,0
0.064583,54.378399,-196.203070,74.318750,4.420968,-6.002505,3.508790,2.939033,6.429016,-3.479178,-2.793497,-0.099216,0.187896,-0.017021,2.253028,188.722239,0
0.065625,142.350833,-169.794214,25.827273,3.482238,-6.265226,1.771503,4.800054,6.800267,-1.831388,-4.696945,-0.073645,0.186263,-0.035692,2.060758,188.571527,0
0.066667,185.157430,-106.913108,-20.780682,2.577438,-4.940972,-0.643936,5.838308,5.443915,0.549648,-5.663896,-0.044421,0.198544,0.001650,1.958968,188.496168,0
0.067708,191.032845,-55.677994,-94.151894,1.197618,-3.648671,-2.899362,6.570962,4.135348,2.821905,-6.550903,-0.007891,0.210172,-0.005818,2.173858,188.722223,0
0.068750,150.812338,-8.151718,-164.925569,-0.148272,-1.490101,-4.267095,5.799128,2.021792,4.227965,-5.759069,-0.029809,0.219710,-0.043161,2.241718,188.722328,0
0.069792,92.046843,40.824267,-208.025001,-0.985212,1.044797,-5.341470,4.224117,-0.448312,5.356036,-4.285800,-0.077298,0.210368,-0.028224,2.207788,188.571552,0
0.070833,46.313881,117.163499,-180.732387,-0.464952,3.338277,-5.711024,2.167199,-2.830198,5.710573,-2.199621,-0.099216,0.200569,-0.039427,2.173858,188.496063,0
0.071875,1.522347,187.957597,-130.123485,0.439848,4.882648,-4.945247,-0.195318,-4.458555,5.126393,0.015992,-0.088257,0.203705,-0.028224,2.332198,188.722391,0
0.072917,-55.122101,196.245097,-73.531629,1.525608,6.125245,-3.329874,-3.090675,-5.579659,3.438315,2.844516,-0.168623,0.183520,-0.013287,2.637568,188.797684,0
0.073958,-142.243847,169.860402,-25.520265,2.464338,6.377315,-1.501151,-4.951695,-5.939883,1.738151,4.820295,-0.234377,0.180841,-0.043161,2.841148,188.571601,0
0.075000,-186.059926,106.471899,20.755303,3.335208,5.028209,0.891429,-5.982113,-4.579855,-0.659000,5.764405,-0.259948,0.193057,-0.028224,2.931628,188.571638,0
0.076042,-191.232107,55.997882,94.446591,4.715028,3.739458,3.063039,-6.667753,-3.355830,-2.907084,6.624763,-0.234377,0.194298,-0.002084,2.818528,188.722290,0
0.077083,-150.365077,8.918599,165.626516,6.083538,1.538286,4.484109,-5.907672,-1.168759,-4.333289,5.821508,-0.278213,0.213242,-0.024490,2.728048,188.722199,0
0.078125,-92.291475,-40.407732,207.704167,6.875238,-1.007264,5.520386,-4.262138,1.341778,-5.425100,4.329205,-0.223418,0.227418,-0.024490,2.716738,188.571533,0
0.079167,-46.150183,-117.314767,180.657766,6.343668,-3.286542,5.886130,-2.248318,3.690583,-5.787694,2.243026,-0.164970,0.197826,-0.035692,2.694118,188.496787,0
0.080208,-1.619526,-187.758518,129.851894,5.393628,-4.830913,5.074634,0.125953,5.307913,-5.139054,0.027413,-0.132093,0.196650,-0.031958,2.535778,188.722034,0
0.081250,55.183717,-196.239313,73.592424,4.387038,-6.062860,3.436403,3.001720,6.484153,-3.434860,-2.823952,-0.095563,0.181625,-0.050629,2.253028,188.721911,0
0.082292,142.226066,-169.395544,25.642614,3.470928,-6.243924,1.687686,4.858823,6.767186,-1.742754,-4.765469,-0.051727,0.183258,-0.013287,2.094688,188.571228,0
0.083333,185.815295,-106.115769,-20.682197,2.554818,-4.923221,-0.693464,5.900995,5.429212,0.537561,-5.728614,-0.011544,0.196911,-0.031958,1.970278,188.495669,0
0.084375,190.783310,-55.677994,-94.311932,1.174998,-3.623819,-2.884123,6.606224,4.179457,2.854136,-6.585165,-0.004238,0.198022,-0.043161,2.219098,188.721898,0
0.085417,150.120446,-8.127556,-165.688826,-0.216132,-1.465250,-4.320433,5.810882,1.970332,4.219907,-5.759069,-0.029809,0.214092,-0.020755,2.286958,188.721886,0
0.086458,91.944761,41.222937,-207.680304,-0.996522,1.055448,-5.387188,4.137922,-0.518151,5.368123,-4.289607,-0.022503,0.215006,-0.035692,2.219098,188.571120,0
0.087500,45.905551,117.767544,-180.572349,-0.476262,3.348928,-5.676736,2.128020,-2.830198,5.734746,-2.226269,-0.102869,0.215921,-0.017021,2.139928,188.495776,0
0.088542,1.420264,188.259619,-129.544887,0.462468,4.943003,-4.914768,-0.238415,-4.451204,5.118335,0.019799,-0.102869,0.198022,-0.046895,2.320888,188.721947,0
0.089583,-55.473718,196.172611,-73.088447,1.559538,6.171399,-3.322254,-3.078921,-5.590686,3.434286,2.890199,-0.179582,0.182148,-0.009553,2.660188,188.721875,0
0.090625,-142.833657,169.401328,-25.335606,2.430408,6.366664,-1.558298,-4.975203,-5.895774,1.718007,4.858364,-0.248989,0.182082,-0.054364,2.795908,188.571051,0
0.091667,-186.127981,106.218200,21.210796,3.335208,5.017559,0.883810,-5.974277,-4.579855,-0.626769,5.756791,-0.259948,0.197368,-0.035692,2.920318,188.495756,0
0.092708,-191.130024,55.840830,95.049811,4.737648,3.707506,3.005891,-6.640327,-3.315397,-2.903056,6.628570,-0.270907,0.198806,-0.024490,2.784598,188.721916,0
0.093750,-150.387762,8.326635,165.700379,6.094848,1.577339,4.461250,-5.903755,-1.179786,-4.288971,5.802474,-0.241683,0.206253,-0.028224,2.750668,188.721835,0
0.094792,-92.007912,-40.927211,207.778031,6.897858,-0.946909,5.547055,-4.305236,1.327075,-5.445244,4.340626,-0.234377,0.208931,-0.031958,2.728048,188.571154,0
0.095833,-45.798565,-117.616789,180.522349,6.400218,-3.282992,5.897560,-2.240482,3.675880,-5.767550,2.277288,-0.150358,0.200700,-0.028224,2.705428,188.571219,0
0.096875,-1.369991,-188.314240,129.568750,5.461488,-4.798961,5.040346,0.063266,5.289534,-5.151140,0.061675,-0.150358,0.196062,-0.028224,2.547088,188.721920,0
0.097917,55.682787,-196.070180,73.247727,4.375728,-6.091262,3.489741,2.978212,6.451071,-3.487235,-2.827759,-0.102869,0.177248,-0.031958,2.241718,188.646661,0
0.098958,142.725136,-169.298897,25.137879,3.436998,-6.236823,1.714355,4.831397,6.737780,-1.766927,-4.735014,-0.051727,0.187112,-0.039427,2.072068,188.571000,0
0.100000,185.906035,-105.668775,-21.088447,2.543508,-4.887718,-0.723943,5.900995,5.410834,0.602022,-5.732421,-0.037115,0.194233,-0.054364,1.970278,188.571208,0
0.101042,190.647200,-55.291405,-95.050568,1.163688,-3.595416,-2.857454,6.567044,4.127997,2.850107,-6.600393,-0.011544,0.195670,-0.035692,2.196478,188.721940,0
0.102083,149.644061,-7.740967,-166.304357,-0.159582,-1.468800,-4.274715,5.799128,1.988710,4.248109,-5.747648,-0.029809,0.203966,-0.020755,2.230408,188.646518,0
0.103125,91.604486,41.452474,-207.741857,-0.996522,1.073199,-5.349090,4.165348,-0.477718,5.347978,-4.243924,-0.066339,0.196389,-0.017021,2.162548,188.571080,0
0.104167,45.553934,118.468237,-180.289205,-0.498882,3.345377,-5.680546,2.128020,-2.789765,5.702515,-2.218656,-0.095563,0.188288,-0.069301,2.151238,188.646513,0
0.105208,0.932537,188.162972,-129.434091,0.462468,4.918151,-4.880479,-0.214908,-4.462231,5.114307,0.038834,-0.128440,0.202203,-0.058098,2.343508,188.722020,0
0.106250,-56.199638,196.269259,-72.792993,1.525608,6.164298,-3.314635,-3.075003,-5.575983,3.442344,2.897812,-0.208806,0.183128,-0.009553,2.682808,188.646609,0
0.107292,-142.799629,169.365085,-24.806250,2.453028,6.327611,-1.474482,-4.994793,-5.921504,1.665632,4.900240,-0.252642,0.180123,-0.024490,2.841148,188.570986,0
0.108333,-186.740476,105.553750,21.432386,3.312588,5.006908,0.895239,-6.013457,-4.590882,-0.691231,5.794860,-0.230724,0.194494,-0.035692,2.920318,188.646484,0
0.109375,-190.857804,55.442161,95.431440,4.737648,3.682654,3.093517,-6.710850,-3.278640,-2.955430,6.594308,-0.289172,0.195474,-0.039427,2.784598,188.721896,0
0.110417,-149.412307,8.000451,167.091478,6.083538,1.563138,4.465060,-5.876329,-1.150380,-4.353433,5.798667,-0.241683,0.210760,-0.046895,2.728048,188.571120,0
0.111458,-91.747035,-41.265476,207.544129,6.875238,-1.014364,5.539435,-4.215123,1.374860,-5.457331,4.249260,-0.205153,0.207429,-0.035692,2.728048,188.571163,0
0.112500,-45.390235,-118.679909,180.325379,6.377598,-3.336246,5.859462,-2.185631,3.719989,-5.767550,2.265868,-0.154011,0.191228,-0.058098,2.694118,188.646659,0
0.113542,-0.893606,-187.891408,129.224053,5.404938,-4.866416,5.067015,0.145543,5.304237,-5.126967,-0.041111,-0.146705,0.195866,-0.017021,2.535778,188.721902,0
0.114583,56.397364,-196.275555,72.656818,4.375728,-6.105463,3.482121,2.970376,6.473126,-3.430832,-2.865828,-0.080951,0.178751,-0.054364,2.241718,188.571236,0
0.115625,142.645738,-168.839822,24.719318,3.436998,-6.233273,1.687686,4.835315,6.752483,-1.734696,-4.769276,-0.066339,0.183912,-0.024490,2.049448,188.571169,0
0.116667,186.461817,-105.149296,-21.396212,2.520888,-4.877067,-0.754422,5.885323,5.429212,0.666484,-5.701965,-0.000585,0.195213,-0.043161,1.981588,188.646692,0
0.117708,190.261555,-54.965221,-95.358334,1.163688,-3.588316,-2.906982,6.567044,4.091239,2.813847,-6.547096,-0.000585,0.198087,-0.031958,2.173858,188.722056,0
0.118750,149.269758,-7.523511,-166.735228,-0.148272,-1.429747,-4.301383,5.748195,1.959304,4.256167,-5.740034,-0.011544,0.217097,-0.028224,2.275648,188.574186,0
0.119792,91.252868,41.959872,-207.286364,-0.973902,1.066099,-5.326231,4.165348,-0.514476,5.376180,-4.236310,-0.048074,0.202464,0.009119,2.207788,188.497019,0
0.120834,44.941439,119.132687,-180.141478,-0.453642,3.395081,-5.665306,2.108430,-2.863280,5.698486,-2.172973,-0.117481,0.205142,0.001650,2.173858,188.646918,0
0.121875,0.660317,188.368347,-128.929356,0.496398,4.935902,-4.861430,-0.226661,-4.469583,5.065961,0.042641,-0.139399,0.204162,-0.065566,2.377438,188.722619,0
0.122917,-56.641996,196.245097,-72.349811,1.548228,6.182050,-3.261297,-3.098510,-5.634795,3.373854,2.909233,-0.172276,0.176922,-0.017021,2.694118,188.571712,0
0.123958,-143.219302,168.857687,-24.781629,2.453028,6.338262,-1.478292,-4.979121,-5.914152,1.593113,4.900240,-0.219765,0.177314,-0.039427,2.829838,188.496420,0
0.125000,-186.672421,105.203404,21.875568,3.380448,4.957204,0.956197,-5.997785,-4.543098,-0.715403,5.787246,-0.245336,0.193776,-0.058098,2.931628,188.721835,0
0.126042,-190.733037,55.260947,95.985417,4.760268,3.682654,3.070658,-6.636409,-3.289667,-2.939315,6.579081,-0.259948,0.199198,-0.061832,2.761978,188.722525,0
0.127084,-149.400965,7.625943,166.709849,6.094848,1.520534,4.457440,-5.848903,-1.161408,-4.301058,5.718722,-0.267254,0.221277,-0.043161,2.750668,188.572313,0
0.128125,-91.429445,-41.615822,207.482576,6.863928,-0.968211,5.516576,-4.215123,1.367509,-5.413014,4.264488,-0.223418,0.200112,-0.046895,2.728048,188.496225,0
