1-Time,2-VGERA,3-VGERB,4-VGERC,5-VN,6-IGERAN,7-IGERBN,8-IGERCN,9-IGERAT,10-IGERBT,11-IGERCT,12-IN,13-IFD,14-IFAULT,15-VFAULT,16-Speed (rad/s),17-FAULT 
0.000000,130.316440,-184.194651,41.006250,3.742368,0.341842,4.240279,-4.450199,-0.389500,-4.172135,4.447219,-0.219765,0.560184,0.027790,-20.174701,188.495546,0
0.001039,171.251524,-151.781586,-30.136743,2.385168,-1.436847,4.796516,-3.106346,1.327075,-4.728113,3.221399,-0.190541,0.556329,-0.028224,-30.545971,188.495566,0
0.002081,173.837614,-96.970524,-101.833712,1.027968,-3.208436,4.541257,-1.072936,3.175978,-4.546816,1.173289,-0.168623,0.546727,-0.024490,-33.147271,188.495173,0
0.003123,173.735532,-9.057786,-147.518372,0.145788,-4.369377,3.733570,0.882115,4.311784,-3.785368,-0.711125,-0.139399,0.541958,-0.002084,-38.225461,188.495226,0
0.004164,144.381141,65.686767,-169.997538,-0.283992,-4.781209,2.400126,2.613844,4.771253,-2.471971,-2.431842,-0.069992,0.555611,-0.017021,-34.832461,188.419884,0
0.005206,66.208627,123.904644,-178.898107,-0.476262,-4.571743,0.335193,4.463111,4.594817,-0.485760,-4.228697,-0.022503,0.554304,0.016587,-21.396181,188.495303,0
0.006248,-8.561136,160.908453,-169.295834,-0.329232,-3.897190,-1.070639,5.148750,3.947885,1.053251,-5.016724,0.010374,0.571419,0.009119,-9.611161,188.630720,0
0.007289,-80.143657,179.742582,-133.927463,0.439848,-2.139802,-2.914601,5.125243,2.216607,2.817876,-4.959621,-0.029809,0.551169,-0.002084,11.278408,188.482561,0
0.008331,-130.595099,184.828643,-40.994697,2.147658,-0.467621,-4.080413,4.463111,0.474301,4.070841,-4.441883,-0.029809,0.563646,-0.005818,24.398008,188.420206,0
0.009373,-170.883661,151.509509,31.687121,3.550098,1.335920,-4.636649,3.158438,-1.242274,4.630848,-3.170380,-0.055380,0.552736,-0.009553,36.703288,188.495845,0
0.010414,-174.377151,98.160237,100.737311,4.828128,3.146562,-4.411869,1.121109,-3.098528,4.514012,-1.129883,-0.117481,0.545943,-0.017021,38.060488,188.495765,0
0.011456,-173.118133,10.609926,147.012879,5.721618,4.293302,-3.699429,-0.786927,-4.208604,3.756592,0.697427,-0.132093,0.542676,-0.028224,41.430868,188.495633,0
0.012498,-145.102157,-65.511850,170.575379,6.128778,4.747737,-2.324076,-2.549999,-4.770994,2.507657,2.490475,-0.190541,0.552541,0.005384,42.788068,188.495613,0
0.013539,-68.857869,-123.741808,177.407766,6.332358,4.687383,-0.377248,-4.418856,-4.627640,0.537561,4.287329,-0.197847,0.557832,0.005384,27.564808,188.514217,0
0.014581,9.768345,-160.214057,177.149243,6.321048,4.012830,1.100971,-5.112331,-4.028493,-0.953104,5.082971,-0.245336,0.560902,-0.054364,13.551718,188.431772,0
0.015623,78.708063,-178.275008,141.079167,5.631138,2.390353,2.906835,-5.194608,-2.466299,-2.689528,5.128653,-0.241683,0.567108,-0.013287,-5.324671,188.420783,0
0.016664,130.225700,-184.931586,39.996780,3.708438,0.650716,4.061217,-4.559902,-0.661506,-4.006954,4.588074,-0.216112,0.558942,-0.031958,-20.536621,188.555699,0
0.017706,170.843194,-150.815113,-30.690720,2.407788,-1.071169,4.708890,-3.411946,0.985231,-4.595162,3.503109,-0.212459,0.564364,-0.009553,-30.161431,188.486180,0
0.018748,174.075807,-97.043010,-101.599811,1.039278,-2.949266,4.567926,-1.355028,2.959108,-4.546816,1.500682,-0.161317,0.522099,0.005384,-33.249061,188.496009,0
0.019789,172.261007,-12.259225,-147.518372,0.134478,-4.159911,3.954541,0.541255,4.116970,-3.990838,-0.334242,-0.110175,0.556264,-0.017021,-37.331971,188.495997,0
0.020831,144.256373,66.339136,-170.256061,-0.283992,-4.656950,2.666815,2.312163,4.719793,-2.697585,-2.146325,-0.099216,0.533204,-0.005818,-36.495031,188.495922,0
0.021874,70.881737,124.774469,-175.180304,-0.498882,-4.688902,0.674268,4.251542,4.664656,-0.804038,-4.000283,-0.015197,0.562013,-0.024490,-23.160541,188.495846,0
0.022914,-9.547934,160.268165,-172.435038,-0.363162,-4.049852,-0.800140,5.023376,4.105942,0.759147,-4.868255,-0.048074,0.552541,-0.061832,-9.531991,188.495911,0
0.023956,-79.565189,176.770680,-134.567614,0.371988,-2.430925,-2.628863,5.136997,2.492288,2.523772,-4.982462,-0.004238,0.568023,0.012853,10.565878,188.501223,0
0.024998,-130.776579,185.215231,-43.629167,2.068488,-0.737442,-3.912780,4.615911,0.746307,3.933861,-4.575124,-0.018850,0.566455,-0.024490,23.855128,188.435160,0
0.026039,-170.214453,150.543037,20.398296,3.312588,1.005744,-4.526164,3.393514,-0.904105,4.526098,-3.394986,-0.084604,0.559530,-0.013287,36.171718,188.495866,0
0.027081,-175.182468,99.054224,91.159659,4.669788,2.912244,-4.495685,1.418873,-2.896362,4.558329,-1.453470,-0.106522,0.554631,-0.002084,37.834288,188.495915,0
0.028123,-171.836431,11.346861,133.926705,5.472798,4.137090,-3.859442,-0.485245,-4.054223,3.954005,0.377647,-0.164970,0.532420,0.012853,41.363008,188.473410,0
0.029164,-145.351692,-63.446016,171.658713,6.196638,4.772589,-2.617434,-2.299251,-4.815103,2.781617,2.231606,-0.183235,0.564103,-0.024490,42.494008,188.494386,0
0.030206,-70.990259,-125.578105,172.754357,6.253188,4.747737,-0.621077,-4.207287,-4.675425,0.843752,4.074143,-0.201500,0.523144,-0.005818,27.621358,188.495875,0
0.031248,7.499845,-160.226138,173.394508,6.264498,4.197444,0.845711,-5.084905,-4.234335,-0.727490,5.056322,-0.208806,0.580173,-0.013287,12.465958,188.495951,0
0.032289,80.296013,-175.303106,134.357576,5.450178,2.539464,2.727773,-5.214197,-2.668465,-2.500173,5.159109,-0.256295,0.555023,-0.031958,-5.562181,188.495875,0
0.033334,130.554633,-185.161124,42.434280,3.753678,0.874384,4.011689,-4.759716,-0.926160,-3.962637,4.789840,-0.219765,0.568153,0.005384,-20.265181,188.571400,0
0.034373,169.788342,-150.102340,-28.696402,2.430408,-0.854602,4.678411,-3.607843,0.775713,-4.595162,3.659192,-0.216112,0.563384,-0.002084,-31.812691,188.495863,0
0.035416,175.130659,-98.637689,-100.688826,1.039278,-2.796604,4.693650,-1.554843,2.804727,-4.635450,1.683413,-0.154011,0.551691,-0.009553,-32.864521,188.495805,0
0.036461,171.104072,-11.896798,-136.512690,0.349368,-4.096006,4.076456,0.306178,3.973615,-4.019040,-0.117249,-0.117481,0.552410,-0.028224,-36.970051,188.495935,0
0.037506,144.256373,66.314974,-170.970076,-0.329232,-4.671151,2.723963,2.194625,4.705090,-2.766076,-2.058766,-0.091910,0.550058,0.024056,-35.115211,188.495899,0
0.038542,72.617140,125.789265,-174.909470,-0.363162,-4.727955,0.857141,4.106579,4.690387,-0.916845,-3.882269,-0.066339,0.565083,0.020321,-21.848581,188.478225,0
0.039581,-9.139604,160.231922,-178.701137,-0.498882,-4.127958,-0.689655,5.019458,4.172106,0.650368,-4.837800,-0.000585,0.571746,-0.024490,-9.113521,188.635616,0
0.040623,-79.463107,175.163919,-136.069508,0.371988,-2.551635,-2.541237,5.160504,2.631967,2.386792,-5.028145,-0.011544,0.569786,-0.031958,10.384918,188.495866,0
0.041664,-130.776579,186.097137,-45.968182,2.045868,-0.861702,-3.836583,4.666844,0.863931,3.849255,-4.586545,-0.015197,0.559857,0.001650,24.477178,188.496045,0
0.042706,-170.282508,150.458471,23.229735,3.369138,0.877934,-4.549023,3.565903,-0.775454,4.546242,-3.558683,-0.051727,0.572334,-0.031958,37.381888,188.495890,0
0.043748,-175.488716,98.667635,100.995834,4.839438,2.802185,-4.579502,1.567754,-2.793441,4.598617,-1.575290,-0.106522,0.547380,0.009119,38.173588,188.361608,0
0.044789,-171.666293,14.234197,139.552652,5.506728,4.073185,-3.954688,-0.332446,-4.035844,4.038610,0.252020,-0.132093,0.556264,-0.017021,40.265938,188.496590,0
0.045831,-145.090815,-63.941333,169.615152,6.174018,4.729986,-2.678391,-2.240482,-4.715858,2.858164,2.155468,-0.146705,0.538888,-0.020755,42.855928,188.496141,0
0.046877,-73.043251,-125.759319,174.231629,6.298428,4.772589,-0.746802,-4.179862,-4.774670,0.916271,4.017040,-0.212459,0.563384,-0.028224,28.198168,188.496016,0
0.047914,8.066970,-159.984520,171.855682,6.196638,4.275550,0.735226,-5.080987,-4.285795,-0.663029,5.018253,-0.212459,0.567957,-0.009553,13.879708,188.495978,0
0.048956,79.899025,-174.505766,142.987311,5.642448,2.635322,2.586808,-5.194608,-2.745656,-2.407510,5.159109,-0.256295,0.566063,-0.002084,-5.460391,188.481546,0
0.049998,130.565975,-185.414823,45.007197,3.832848,0.998644,3.950731,-4.834157,-0.992323,-3.894147,4.843136,-0.216112,0.572269,-0.009553,-20.547931,188.558968,0
0.051039,169.391354,-150.319796,-28.265530,2.453028,-0.719691,4.647932,-3.697955,0.632359,-4.546816,3.758171,-0.216112,0.561294,-0.024490,-30.704311,188.495861,0
0.052081,175.720469,-99.362543,-99.088447,1.073208,-2.690096,4.663172,-1.703724,2.683427,-4.631422,1.831882,-0.161317,0.547837,0.001650,-33.316921,188.495881,0
0.053123,171.024674,-12.078012,-145.881061,0.191028,-3.950444,4.053597,0.161214,3.892749,-4.031127,-0.014463,-0.139399,0.539476,-0.031958,-36.698611,188.571344,0
0.054164,144.585306,63.125616,-163.251326,-0.170892,-4.617897,2.849687,2.014399,4.672008,-2.915142,-1.853194,-0.102869,0.543003,0.024056,-36.449791,188.436161,0
0.055206,72.821305,126.200015,-166.956819,-0.272682,-4.621447,0.948577,3.918518,4.672008,-1.037709,-3.726186,-0.073645,0.548817,-0.009553,-23.341501,188.508067,0
0.056248,-6.995871,160.171517,-170.145266,-0.340542,-4.206064,-0.541071,4.898002,4.219891,0.505331,-4.773083,0.006721,0.567761,-0.020755,-9.622471,188.495635,0
0.057289,-80.461247,173.641725,-139.959660,0.326748,-2.629741,-2.369794,5.086063,2.687103,2.245783,-4.917745,-0.026156,0.559726,0.024056,10.158718,188.495490,0
0.058331,-130.855976,185.770953,-40.625379,2.136348,-1.003713,-3.710858,4.682516,1.003609,3.720333,-4.632228,-0.022503,0.563972,-0.046895,23.742028,188.495446,0
0.059373,-169.443163,150.035639,30.542235,3.493548,0.707521,-4.415679,3.636426,-0.576963,4.425377,-3.604366,-0.055380,0.562601,-0.039427,36.691978,188.495522,0
0.060414,-176.135238,99.380409,101.475947,4.816818,2.670825,-4.484256,1.634359,-2.613329,4.497896,-1.647621,-0.062686,0.545224,-0.020755,37.698568,188.699709,0
0.061467,-170.690838,13.110673,147.505303,5.687688,3.948925,-3.924209,-0.261923,-3.907193,4.026524,0.175882,-0.102869,0.554370,-0.005818,40.899298,188.494907,0
0.062506,-144.296840,-64.738672,171.412501,6.196638,4.630578,-2.647913,-2.095518,-4.587207,2.833992,2.041261,-0.146705,0.522818,-0.002084,42.369598,188.495712,0
0.063545,-74.631201,-126.025098,173.837690,6.264498,4.719335,-0.834428,-4.042734,-4.675425,1.033107,3.868571,-0.197847,0.558681,-0.013287,28.107688,188.495702,0
0.064589,9.462097,-160.383189,167.620834,6.162708,4.208095,0.697127,-4.967367,-4.260065,-0.566337,4.919274,-0.219765,0.574424,0.001650,11.945698,188.495618,0
0.065624,79.297873,-173.285595,126.638826,5.348388,2.699227,2.472513,-5.135839,-2.815495,-2.339020,5.082971,-0.230724,0.570897,-0.028224,-5.143711,188.495680,0
0.066664,130.622688,-185.910140,43.234470,3.832848,1.009294,3.908823,-4.767552,-1.018053,-3.809541,4.797453,-0.212459,0.561751,-0.024490,-20.231251,188.571098,0
0.067706,169.470752,-149.896965,-28.302462,2.396478,-0.659336,4.590785,-3.694037,0.529438,-4.490413,3.838116,-0.186888,0.567369,-0.024490,-32.265091,188.495642,0
0.068748,175.947319,-98.782660,-100.294887,1.027968,-2.693646,4.613644,-1.735068,2.650345,-4.623364,1.809040,-0.150358,0.550450,-0.002084,-32.887141,188.495727,0
0.069789,170.752454,-14.288817,-146.447349,0.157098,-3.900740,4.084076,0.118117,3.885397,-4.095588,0.027413,-0.117481,0.549405,-0.020755,-36.336691,188.495703,0
0.070833,144.562621,63.125616,-173.210607,-0.385782,-4.628547,2.849687,2.057497,4.638926,-2.915142,-1.891263,-0.066339,0.552214,-0.024490,-35.420581,188.552154,0
0.071873,74.636105,126.139611,-172.545834,-0.385782,-4.646299,0.960006,3.949861,4.679359,-1.053825,-3.749028,-0.044421,0.557701,-0.031958,-22.063471,188.494943,0
0.072914,-7.268091,160.340650,-173.592235,-0.385782,-4.238017,-0.575359,4.956771,4.142700,0.569792,-4.818766,-0.040768,0.569525,-0.020755,-9.554611,188.495772,0
0.073956,-80.483932,173.714211,-139.762690,0.258888,-2.608439,-2.407893,5.117407,2.705482,2.286071,-4.936779,-0.037115,0.564038,-0.046895,10.735528,188.495700,0
0.074998,-131.026114,185.928005,-56.542993,1.842288,-0.957560,-3.848012,4.725613,0.933770,3.841198,-4.662683,-0.004238,0.573249,-0.009553,24.217048,188.495687,0
0.076039,-169.341081,150.325581,19.684280,3.312588,0.764325,-4.457587,3.554149,-0.665181,4.433435,-3.524421,-0.066339,0.554631,-0.039427,37.415818,188.495812,0
0.077081,-176.237321,100.346881,91.085796,4.669788,2.756031,-4.529974,1.618688,-2.708898,4.606675,-1.655235,-0.062686,0.553390,-0.020755,38.331928,188.495703,0
0.078123,-171.110511,12.832812,140.463637,5.597208,4.002179,-3.897540,-0.246251,-3.932923,3.966091,0.221565,-0.132093,0.559400,-0.017021,40.028428,188.514378,0
0.079164,-145.419747,-62.262087,170.563069,6.185328,4.676732,-2.655532,-2.185631,-4.730561,2.813847,2.117399,-0.146705,0.556199,-0.039427,42.844618,188.566221,0
0.080206,-73.633061,-125.759319,174.059281,6.264498,4.712235,-0.800140,-4.074077,-4.660722,0.956559,3.952323,-0.219765,0.541697,-0.024490,28.695808,188.495579,0
0.081248,6.830637,-159.972439,171.855682,6.219258,4.218746,0.700937,-5.002629,-4.274768,-0.614683,4.964957,-0.216112,0.566259,-0.017021,13.755298,188.630544,0
0.082290,79.581435,-174.010449,139.798864,5.597208,2.645973,2.518231,-5.198526,-2.719926,-2.339020,5.136267,-0.234377,0.562731,0.016587,-5.098471,188.481490,0
0.083331,130.316440,-185.741007,43.271402,3.776298,0.980892,3.901203,-4.681358,-0.973944,-3.865945,4.778419,-0.205153,0.565671,-0.084238,-20.604481,188.495696,0
0.084373,169.482094,-150.211068,-19.845076,2.600058,-0.730342,4.602214,-3.690119,0.621331,-4.522643,3.723909,-0.205153,0.566651,-0.031958,-30.953131,188.495808,0
0.085414,175.777182,-99.157168,-94.275000,1.186308,-2.722048,4.659362,-1.660627,2.657697,-4.607249,1.763357,-0.194194,0.538692,-0.035692,-33.135961,188.495816,0
0.086465,171.104072,-13.286102,-139.590341,0.292818,-3.975296,4.084076,0.270917,3.958912,-4.095588,-0.086794,-0.113828,0.557571,-0.024490,-36.800401,188.495658,0
0.087502,144.358456,65.010237,-169.160417,-0.272682,-4.656950,2.781110,2.143691,4.697738,-2.838594,-1.959787,-0.106522,0.520858,-0.009553,-36.506341,188.571055,0
0.088539,75.225915,125.535566,-172.262690,-0.419712,-4.688902,0.895239,4.032138,4.660981,-0.989364,-3.832779,-0.062686,0.563580,0.001650,-23.669491,188.513108,0
0.089581,-8.753959,160.183598,-174.404735,-0.453642,-4.152810,-0.662986,4.941100,4.157403,0.614109,-4.807345,-0.015197,0.556591,-0.039427,-9.407581,188.506885,0
0.090623,-79.100147,174.149123,-133.730493,0.383298,-2.583587,-2.461230,5.109571,2.683427,2.382763,-4.986269,-0.037115,0.569329,0.005384,9.943828,188.495738,0
0.091678,-131.241621,185.505173,-44.897159,2.102418,-0.847501,-3.863252,4.659008,0.863931,3.849255,-4.578931,-0.059033,0.562209,-0.017021,24.036088,188.555574,0
0.092719,-170.566071,149.975234,30.345265,3.459618,0.920537,-4.514735,3.428775,-0.804860,4.505954,-3.501580,-0.066339,0.562666,-0.024490,36.533638,188.486509,0
0.093753,-176.123896,99.295842,100.331061,4.816818,2.873190,-4.476636,1.497232,-2.778738,4.538185,-1.483925,-0.084604,0.547772,-0.043161,37.856908,188.495839,0
0.094799,-171.269306,12.784489,147.049811,5.721618,4.073185,-3.874681,-0.422558,-3.969681,3.945947,0.335772,-0.143052,0.547249,-0.020755,41.057638,188.495922,0
0.095835,-145.294980,-62.829890,171.707955,6.174018,4.729986,-2.590765,-2.271825,-4.719534,2.757444,2.212571,-0.179582,0.557505,-0.017021,42.516628,188.571208,0
0.096873,-74.086761,-125.529781,174.108523,6.275808,4.715785,-0.670605,-4.140682,-4.708506,0.875982,4.039881,-0.201500,0.561425,-0.002084,28.164238,188.494191,0
0.097914,6.649157,-160.177814,168.987311,6.174018,4.236497,0.819042,-5.108413,-4.241686,-0.743605,5.071550,-0.230724,0.573249,-0.031958,12.692158,188.570517,0
0.098956,80.091848,-174.288310,140.229735,5.631138,2.560766,2.674435,-5.202444,-2.683168,-2.455856,5.121040,-0.238030,0.560314,-0.002084,-5.562181,188.498181,0
0.099998,130.305097,-185.922221,53.710796,3.968568,0.856632,4.030738,-4.716619,-0.885726,-3.954579,4.797453,-0.208806,0.569917,-0.046895,-20.016361,188.512058,0
0.101039,169.164504,-150.452686,-28.610227,2.407788,-0.886554,4.663172,-3.521648,0.783064,-4.550845,3.624930,-0.179582,0.559596,-0.020755,-31.925791,188.495347,0
0.102081,175.947319,-100.280692,-94.410417,1.152378,-2.853408,4.617454,-1.519581,2.834133,-4.643508,1.637730,-0.172276,0.553520,-0.002084,-32.966311,188.640634,0
0.103123,171.467032,-12.585410,-142.938826,0.224958,-4.106657,3.954541,0.415880,4.072861,-3.950550,-0.227649,-0.139399,0.526672,-0.028224,-36.709921,188.551500,0
0.104164,145.719556,63.137696,-168.421781,-0.250062,-4.703103,2.670625,2.272983,4.719793,-2.753989,-2.108256,-0.088257,0.554500,-0.043161,-35.556301,188.563613,0
0.105206,73.172922,125.209381,-174.564773,-0.419712,-4.621447,0.678078,4.161430,4.657305,-0.800009,-3.981248,-0.059033,0.551234,-0.076769,-22.040851,188.495866,0
0.106250,-7.846559,160.413136,-174.774054,-0.419712,-4.053402,-0.826809,5.019458,4.065509,0.795406,-4.849221,-0.037115,0.562797,0.009119,-9.317101,188.646364,0
0.107289,-79.100147,175.622994,-130.061932,0.428538,-2.413174,-2.640293,5.113489,2.451855,2.523772,-4.967234,-0.048074,0.563580,-0.043161,10.305748,188.494221,0
0.108331,-130.436304,186.447484,-43.247538,2.079798,-0.641585,-3.962308,4.537552,0.661765,3.958034,-4.514214,-0.037115,0.556852,-0.028224,24.284908,188.569722,0
0.109373,-170.429961,150.990030,28.929546,3.470928,1.023496,-4.575692,3.377842,-0.948214,4.586530,-3.368338,-0.073645,0.564299,-0.013287,37.268788,188.495600,0
0.110414,-175.545428,99.066305,99.974053,4.816818,3.029403,-4.465207,1.301335,-2.947822,4.526098,-1.301194,-0.095563,0.537908,0.016587,38.150968,188.511138,0
0.111456,-172.188048,14.596624,146.594319,5.732928,4.190344,-3.787055,-0.626291,-4.142441,3.877457,0.552765,-0.132093,0.550581,-0.031958,40.571308,188.508411,0
0.112498,-145.578542,-64.436650,170.870834,6.219258,4.765489,-2.484089,-2.467722,-4.712182,2.588233,2.391495,-0.161317,0.504527,-0.028224,43.002958,188.570839,0
0.113539,-73.689774,-124.007587,175.807387,6.275808,4.722885,-0.472494,-4.324825,-4.690128,0.678570,4.203578,-0.186888,0.561033,-0.002084,28.390438,188.548814,0
0.114581,8.566040,-159.791225,169.332008,6.151398,4.048333,1.013344,-5.143674,-4.076277,-0.876556,5.067743,-0.223418,0.557048,-0.017021,13.936258,188.645147,0
0.115623,78.027513,-176.378306,129.888826,5.404938,2.383252,2.891596,-5.147592,-2.510408,-2.669384,5.140074,-0.194194,0.567500,0.005384,-5.132401,188.495678,0
0.116664,129.794685,-185.922221,45.930493,3.844158,0.650716,4.095505,-4.626507,-0.665181,-4.055300,4.633757,-0.194194,0.561490,-0.039427,-20.333041,188.571105,0
0.117706,170.037877,-151.165460,-25.864962,2.464338,-1.156375,4.697460,-3.333587,1.010961,-4.675739,3.446005,-0.190541,0.559204,-0.017021,-30.274531,188.495803,0
0.118748,175.198714,-99.580000,-96.724811,1.163688,-2.988319,4.628883,-1.296259,3.047326,-4.583076,1.416930,-0.135746,0.542350,-0.013287,-33.396091,188.646629,0
0.119789,172.726049,-12.428358,-142.421781,0.258888,-4.216715,3.889774,0.654875,4.161079,-3.902204,-0.429415,-0.121134,0.548098,-0.013287,-37.264111,188.571174,0
0.120832,145.889693,63.379315,-171.019319,-0.306612,-4.742156,2.563949,2.449291,4.756550,-2.617009,-2.302407,-0.062686,0.558616,-0.024490,-36.721231,188.511328,0
0.121874,71.063217,124.629498,-174.417046,-0.374472,-4.639198,0.552354,4.365163,4.657305,-0.610654,-4.137331,-0.073645,0.543852,-0.031958,-23.330191,188.505360,0
0.122914,-6.655596,160.352731,-174.343182,-0.408402,-4.028550,-0.971583,5.125243,4.010373,0.960588,-5.024338,-0.037115,0.573118,-0.028224,-10.007011,188.721884,0
0.123956,-79.451764,177.133107,-126.725758,0.507708,-2.267612,-2.807926,5.148750,2.345258,2.725213,-4.990076,-0.062686,0.557113,-0.013287,10.396228,188.552213,0
0.124998,-130.062001,186.242108,-41.917993,2.091108,-0.503124,-4.065173,4.525798,0.569871,4.095014,-4.491372,-0.026156,0.570701,-0.050629,23.594998,188.558619,0
0.126039,-170.361906,151.509509,30.751515,3.516168,1.247163,-4.632840,3.260304,-1.168759,4.630848,-3.235097,-0.069992,0.558028,-0.035692,36.069928,188.495803,0
0.127081,-175.749593,100.117344,100.614205,4.782888,3.174964,-4.461397,1.172043,-3.105879,4.546242,-1.209828,-0.095563,0.549470,-0.013287,37.879528,188.721842,0
