1-Time,2-VGERA,3-VGERB,4-VGERC,5-VN,6-IGERAN,7-IGERBN,8-IGERCN,9-IGERAT,10-IGERBT,11-IGERCT,12-IN,13-IFD,14-IFAULT,15-VFAULT,16-Speed (rad/s),17-Active Power,18-Reactive Power,19-FAULT 
0.000000,-185.458774,125.801346,19.388826,3.335208,6.519326,-1.831011,-4.516627,-6.193509,2.183513,4.456528,-0.164970,0.316456,-0.024490,-209.492787,188.495915,1513.602141,-910.349204,0
0.001041,-195.406147,64.732376,83.945644,4.534068,5.645958,0.911281,-6.199475,-5.175327,-0.556928,5.961497,-0.219765,0.318024,-0.039427,-180.290368,188.722869,1515.589127,-911.507996,0
0.002079,-169.080203,11.793854,155.384091,5.857338,4.211645,3.030504,-6.557687,-3.848381,-2.755995,6.498732,-0.223418,0.329194,-0.020755,-122.202209,188.496129,1516.241293,-912.679208,0
0.003122,-107.445055,-39.549988,205.217425,6.784758,1.797456,4.931456,-5.904697,-1.473846,-4.506016,5.787162,-0.230724,0.327627,-0.024490,-45.610891,188.496462,1518.181480,-913.881389,0
0.004164,-52.615408,-108.314493,196.316857,6.682968,-0.854602,6.268869,-4.464388,1.238857,-6.092365,4.531243,-0.197847,0.316652,0.009119,31.206628,188.496985,1517.683138,-915.060475,0
0.005206,-2.572296,-175.593048,147.480682,5.755548,-3.162283,6.665727,-2.565121,3.628095,-6.411314,2.634910,-0.139399,0.321290,0.009119,98.863046,188.721596,1519.108643,-916.315893,0
0.006240,50.805512,-209.939058,88.032765,4.635858,-5.029729,5.594209,0.203556,5.506403,-5.492238,0.023451,-0.110175,0.311557,-0.005818,162.560965,188.495289,1518.083240,-917.303357,0
0.007281,127.322020,-179.060267,34.407765,3.617958,-6.364633,4.117896,2.819246,6.737780,-3.977232,-2.474158,-0.022503,0.302999,-0.017021,207.246774,188.478567,1518.649335,-918.066476,0
0.008323,185.157430,-126.677467,-18.084659,2.633988,-6.304279,2.109793,4.479706,6.840701,-2.101311,-4.210387,-0.015197,0.314431,-0.013287,213.297624,188.551469,1517.768846,-919.193845,0
0.009365,195.150173,-64.255436,-81.767424,1.423818,-5.398958,-0.604718,6.084195,5.826193,0.639130,-5.661988,0.017680,0.314496,-0.024490,185.769084,188.705878,1517.578150,-919.167297,0
0.010407,168.665434,-11.679342,-154.929357,0.032688,-3.964645,-2.755691,6.498377,4.458814,2.871770,-6.277496,0.043251,0.341867,-0.028224,126.154076,188.492729,1517.094855,-919.578945,0
0.011448,108.720319,39.060455,-202.891478,-0.894732,-1.607261,-4.541554,5.852850,2.139416,4.596611,-5.541022,0.021333,0.334616,-0.009553,51.021747,188.558072,1516.842112,-920.473433,0
0.012490,53.584424,107.474614,-197.228599,-0.770322,1.027046,-5.946432,4.431198,-0.521827,6.115814,-4.352701,-0.007891,0.317828,-0.020755,-23.635561,188.551652,1516.260224,-920.828808,0
0.013531,2.713309,174.149123,-148.170834,0.157098,3.391531,-6.319479,2.509542,-2.892686,6.497713,-2.449253,-0.026156,0.315019,-0.046895,-94.119479,188.703708,1515.906503,-920.767126,0
0.014573,-51.016115,210.597211,-86.950190,1.322028,5.287380,-5.275742,-0.274060,-4.818779,5.645784,0.137302,-0.077298,0.315019,-0.020755,-155.419678,188.554593,1516.035051,-920.177639,0
0.015622,-128.371969,178.751948,-33.669886,2.260758,6.597432,-3.827209,-2.904675,-6.053831,4.067828,2.741646,-0.128440,0.300517,-0.024490,-203.080017,188.498959,1515.718239,-920.438208,0
0.016667,-185.957844,126.308744,19.142614,3.312588,6.519326,-1.779419,-4.542747,-6.160428,2.179316,4.417391,-0.172276,0.317371,-0.046895,-206.303367,188.500128,1515.446290,-920.165942,0
0.017711,-195.315407,63.693418,83.896402,4.522758,5.670810,0.958904,-6.192012,-5.127542,-0.594698,5.943708,-0.223418,0.315607,-0.002084,-178.797448,188.493071,1514.573569,-919.975791,0
0.018746,-168.422338,10.754897,155.408713,5.868648,4.200995,3.030504,-6.535298,-3.811623,-2.705634,6.466711,-0.230724,0.322401,-0.028224,-120.731909,188.565425,1513.948740,-918.766733,0
0.019791,-106.685108,-40.045305,204.232576,6.829998,1.772604,4.875896,-5.852458,-1.422386,-4.522802,5.769373,-0.241683,0.321094,-0.039427,-44.344171,188.502135,1513.111790,-918.753472,0
0.020831,-53.851741,-108.278250,196.476895,6.682968,-0.801347,6.284743,-4.468119,1.209451,-6.033612,4.552590,-0.179582,0.321290,-0.043161,28.729738,188.576002,1512.995447,-918.434364,0
0.021876,-2.742433,-175.907151,147.062122,5.721618,-3.197785,6.633978,-2.509150,3.587662,-6.381937,2.617121,-0.143052,0.320310,-0.035692,100.514306,188.494820,1512.530543,-917.852629,0
0.022917,51.644857,-209.830330,86.075379,4.613238,-5.051031,5.566429,0.259526,5.499052,-5.513222,-0.061938,-0.073645,0.310838,-0.005818,161.226385,188.567058,1512.406721,-917.615303,0
0.023958,128.433585,-178.492465,32.671970,3.617958,-6.396586,4.117896,2.849097,6.781889,-3.977232,-2.538199,-0.048074,0.301497,0.001650,207.269394,188.500264,1513.168155,-917.778315,0
0.024999,185.429650,-125.964694,-19.094129,2.611368,-6.275877,2.097887,4.472243,6.873782,-2.105507,-4.213945,-0.000585,0.319592,0.009119,212.766054,188.514622,1513.867710,-917.392567,0
0.026043,195.172858,-64.617863,-84.217235,1.389888,-5.402508,-0.640436,6.173748,5.833545,0.723064,-5.736703,0.043251,0.318612,-0.035692,184.898214,188.445524,1514.885961,-918.784262,0
0.027083,168.223077,-10.483333,-155.520266,0.021378,-3.904291,-2.779502,6.528228,4.462490,2.892754,-6.284612,0.054210,0.331285,-0.024490,124.536746,188.508791,1515.310268,-918.494930,0
0.028119,106.587929,40.002765,-204.060985,-0.872112,-1.593060,-4.624894,5.905089,2.065901,4.651168,-5.573042,0.024986,0.360746,-0.024490,48.375207,188.516901,1515.779238,-918.872418,0
0.029165,52.041844,108.839756,-196.280682,-0.725082,1.090951,-5.966275,4.446123,-0.562260,6.161978,-4.349143,-0.007891,0.304697,-0.020755,-24.065341,188.523629,1516.257174,-918.651095,0
0.030208,2.770022,177.229754,-146.484281,0.157098,3.483838,-6.402819,2.494617,-2.947822,6.506106,-2.467042,-0.037115,0.318024,-0.002084,-95.499299,188.432579,1517.486778,-918.702945,0
0.031240,-51.208938,210.234784,-87.541099,1.242858,5.329983,-5.351145,-0.288985,-4.859212,5.645784,0.190669,-0.088257,0.312145,-0.009553,-157.840018,188.445028,1517.252722,-919.758806,0
0.032281,-128.201831,178.957323,-33.571402,2.283378,6.643586,-3.858957,-2.904675,-6.057507,4.126582,2.777224,-0.124787,0.301235,-0.017021,-202.163907,188.515906,1517.844557,-920.016743,0
0.033323,-185.458774,126.212096,18.637879,3.278658,6.593882,-1.850854,-4.535284,-6.219240,2.250660,4.435181,-0.194194,0.313582,-0.002084,-209.605887,188.444051,1518.773238,-919.989102,0
0.034365,-195.485544,64.671971,82.763826,4.545378,5.692111,0.911281,-6.199475,-5.182678,-0.556928,5.972170,-0.208806,0.318350,-0.043161,-180.708838,188.358941,1519.394646,-920.446169,0
0.035406,-169.193628,12.325414,155.211743,5.834718,4.240048,3.010661,-6.587538,-3.877787,-2.755995,6.523637,-0.256295,0.326647,-0.002084,-122.903429,188.489300,1520.433028,-921.910385,0
0.036463,-106.015900,-40.335246,205.635985,6.841308,1.751303,4.990985,-5.900965,-1.426062,-4.568966,5.840530,-0.230724,0.336445,0.001650,-44.366791,188.474512,1521.975325,-922.438535,0
0.037501,-52.377215,-108.701082,195.725948,6.649038,-0.922057,6.276806,-4.464388,1.249885,-6.067185,4.520569,-0.197847,0.331285,0.009119,31.930468,188.476173,1521.728245,-922.364315,0
0.038540,-2.345446,-176.921947,146.483523,5.721618,-3.211986,6.697476,-2.520344,3.598689,-6.432297,2.627795,-0.175929,0.319396,-0.017021,99.790466,188.625339,1522.760263,-922.355974,0
0.039585,51.712912,-209.032990,86.653978,4.613238,-5.097184,5.586272,0.293109,5.579918,-5.513222,-0.047706,-0.095563,0.315215,-0.050629,163.262185,188.472775,1522.966328,-923.129220,0
0.040627,130.044220,-178.528707,33.102841,3.606648,-6.421438,4.094085,2.886411,6.803943,-3.968839,-2.552430,-0.037115,0.305089,-0.017021,208.999824,188.478387,1523.604555,-923.491832,0
0.041666,184.998635,-125.324406,-19.241856,2.588748,-6.240374,2.085981,4.531945,6.870107,-2.084524,-4.221060,0.006721,0.315737,0.005384,212.324964,188.474733,1523.182875,-923.415623,0
0.042708,195.581188,-63.071508,-83.934091,1.378578,-5.402508,-0.695996,6.121508,5.822518,0.723064,-5.750935,0.010374,0.320767,-0.017021,185.022624,188.547734,1523.234637,-923.073166,0
0.043752,167.667294,-9.939692,-155.594129,0.066618,-3.879439,-2.795377,6.513302,4.422057,2.905344,-6.291727,0.043251,0.322988,-0.031958,124.016486,188.473210,1522.860217,-923.080401,0
0.044797,106.236311,40.510163,-205.402842,-0.917352,-1.497202,-4.668548,5.826730,2.043847,4.676348,-5.537464,0.032292,0.345460,-0.017021,48.793677,188.477982,1522.978257,-923.388672,0
0.045830,53.232807,108.658543,-196.157576,-0.759012,1.087401,-5.998024,4.378959,-0.580639,6.132601,-4.313565,-0.011544,0.332983,-0.013287,-24.732631,188.495761,1522.100306,-923.877171,0
0.046874,2.248267,177.374725,-145.954925,0.179718,3.483838,-6.375039,2.457303,-2.929443,6.493516,-2.378096,-0.110175,0.308748,-0.028224,-96.268379,188.496842,1521.175614,-923.795027,0
0.047908,-51.481158,210.077732,-86.248485,1.288098,5.358385,-5.275742,-0.303911,-4.833482,5.591227,0.212017,-0.102869,0.316521,-0.013287,-155.532778,188.432581,1520.319340,-923.088611,0
0.048948,-128.111091,178.945242,-33.534470,2.317308,6.636485,-3.823240,-2.871093,-6.057507,4.122385,2.748761,-0.161317,0.300125,-0.002084,-202.876437,188.493964,1520.308903,-922.771287,0
0.049990,-185.980529,126.936951,18.367046,3.256038,6.529977,-1.831011,-4.516627,-6.204537,2.229676,4.463643,-0.179582,0.316848,-0.039427,-206.857557,188.488456,1520.256464,-923.576044,0
0.051032,-195.451517,64.998156,82.776137,4.488828,5.624656,0.923186,-6.195744,-5.160624,-0.548534,5.925918,-0.238030,0.317175,-0.035692,-179.543908,188.431099,1519.736225,-923.160748,0
0.052073,-168.615161,11.383104,155.310228,5.846028,4.186793,3.074159,-6.572612,-3.811623,-2.743405,6.495174,-0.267254,0.325340,-0.020755,-121.139069,188.411531,1518.844442,-922.611046,0
0.053115,-106.775848,-39.344612,203.629357,6.762138,1.836509,4.891770,-5.859920,-1.466495,-4.489229,5.758700,-0.201500,0.338470,-0.039427,-44.683471,188.495551,1516.980287,-921.446609,0
0.054157,-53.488781,-107.710448,196.833902,6.682968,-0.847501,6.272837,-4.445731,1.220479,-6.046202,4.591726,-0.201500,0.300386,-0.035692,28.062448,188.419439,1517.630480,-921.686854,0
0.055199,-3.468353,-175.097731,147.813069,5.744238,-3.187134,6.649853,-2.550195,3.580310,-6.390331,2.649142,-0.146705,0.318220,-0.039427,99.417236,188.347700,1516.642330,-921.959747,0
0.056241,51.247869,-209.842410,86.740152,4.590618,-5.090084,5.586272,0.300571,5.532133,-5.492238,-0.047706,-0.069992,0.310315,-0.065566,160.977565,188.439951,1516.311806,-921.740549,0
0.057281,127.877802,-178.758244,33.201326,3.572718,-6.353983,4.117896,2.837903,6.774537,-3.960445,-2.563104,-0.015197,0.299863,-0.054364,206.669964,188.473195,1515.136617,-921.998752,0
0.058323,185.293540,-126.061341,-18.441667,2.667918,-6.290078,2.149479,4.505825,6.892161,-2.059344,-4.181924,-0.018850,0.316848,-0.002084,212.947014,188.486506,1515.054236,-922.344888,0
0.059365,195.195543,-65.233989,-82.936932,1.412508,-5.416709,-0.660279,6.121508,5.826193,0.706277,-5.740261,0.017680,0.319592,-0.013287,185.508954,188.296587,1514.550632,-922.982285,0
0.060406,168.778859,-11.739747,-155.384849,0.021378,-3.925592,-2.791408,6.561810,4.458814,2.863377,-6.305959,0.061516,0.332395,-0.002084,125.871326,188.440592,1514.979235,-923.415132,0
0.061448,106.814779,39.664500,-203.962501,-0.917352,-1.525604,-4.656643,5.852850,2.091631,4.651168,-5.590831,0.014027,0.338209,-0.009553,48.771057,188.435253,1515.158783,-923.100343,0
0.062490,52.314064,108.090740,-196.711554,-0.747702,1.108702,-5.990087,4.423735,-0.562260,6.153584,-4.338469,-0.011544,0.299145,-0.039427,-23.827831,188.365574,1515.670429,-922.888755,0
0.063531,2.849419,175.780045,-147.259849,0.134478,3.419933,-6.371071,2.502080,-2.911065,6.489320,-2.403001,-0.033462,0.313255,0.012853,-94.153409,188.282862,1515.309195,-923.145462,0
0.064573,-51.469815,210.017327,-87.221023,1.288098,5.322882,-5.343208,-0.318836,-4.848185,5.620604,0.187112,-0.095563,0.308748,-0.035692,-157.896568,188.437031,1515.855705,-923.457254,0
0.065624,-130.356906,178.594896,-32.537311,2.272068,6.671988,-3.815303,-2.964377,-6.079561,4.097205,2.823476,-0.146705,0.301170,0.012853,-203.441937,188.441500,1516.528856,-923.871311,0
0.066664,-185.299979,125.173139,19.708902,3.278658,6.529977,-1.779419,-4.594986,-6.156752,2.154136,4.467201,-0.194194,0.315149,-0.028224,-208.848117,188.433038,1515.249359,-923.227776,0
0.067710,-195.814477,63.137696,84.807387,4.545378,5.670810,0.974778,-6.229326,-5.175327,-0.619878,6.021980,-0.230724,0.318938,-0.024490,-179.724868,188.288560,1516.589521,-923.954347,0
0.068754,-168.002666,10.742816,155.999622,5.891268,4.161941,3.117813,-6.576343,-3.785893,-2.814748,6.502290,-0.223418,0.335531,-0.009553,-121.014659,188.419542,1516.569478,-924.525697,0
0.069788,-107.002698,-39.852010,204.934281,6.762138,1.811657,4.947330,-5.934548,-1.422386,-4.568966,5.808510,-0.248989,0.338340,-0.005818,-45.452551,188.497750,1517.744075,-926.049613,0
0.070833,-52.728833,-108.906457,195.578220,6.637728,-0.872353,6.296649,-4.434537,1.238857,-6.054595,4.509895,-0.194194,0.329782,-0.013287,31.896538,188.415420,1516.931591,-925.682503,0
0.071875,-2.277391,-177.525992,145.929546,5.732928,-3.254590,6.681601,-2.494225,3.635446,-6.449084,2.581543,-0.135746,0.315999,-0.017021,100.310726,188.341019,1517.821096,-926.002819,0
0.072919,52.087214,-208.815534,85.890720,4.613238,-5.075882,5.518806,0.356542,5.576242,-5.471255,-0.072611,-0.099216,0.312732,-0.031958,163.431835,188.413390,1517.532038,-925.957666,0
0.073956,129.964822,-178.552869,33.213636,3.606648,-6.396586,4.137739,2.886411,6.807619,-4.023396,-2.570220,-0.037115,0.302738,-0.050629,208.965894,188.484642,1519.254874,-925.782120,0
0.075002,185.021320,-125.167354,-19.685038,2.577438,-6.247474,2.042327,4.517019,6.825998,-2.021573,-4.210387,0.024986,0.317044,-0.024490,212.155314,188.483750,1518.412941,-925.436476,0
0.076041,195.649243,-63.059427,-84.291099,1.355958,-5.374106,-0.668216,6.140165,5.804139,0.756637,-5.790071,0.046904,0.315803,-0.035692,184.886904,188.252962,1518.948771,-925.494557,0
0.077080,167.769377,-9.770559,-155.434091,0.055308,-3.882989,-2.787440,6.509571,4.444111,2.943114,-6.266822,0.054210,0.298165,-0.002084,123.767666,188.485867,1518.483070,-925.206017,0
0.078126,106.054831,40.643053,-205.292046,-0.962592,-1.536255,-4.632831,5.811805,2.021792,4.655365,-5.555253,0.014027,0.349641,0.005384,48.906777,188.494397,1518.240803,-925.399591,0
0.079163,53.459657,108.851837,-196.071402,-0.747702,1.133554,-5.954369,4.390153,-0.584315,6.128404,-4.299333,0.021333,0.326255,-0.043161,-24.529051,188.421267,1517.553969,-925.692359,0
0.080209,2.146184,177.821718,-145.770266,0.179718,3.473187,-6.331385,2.423721,-2.955174,6.464139,-2.356749,-0.051727,0.319396,-0.031958,-96.652919,188.268968,1517.583885,-925.632381,0
0.081245,-52.082310,209.872357,-85.903788,1.265478,5.308681,-5.232087,-0.318836,-4.862888,5.553457,0.272500,-0.080951,0.310903,-0.028224,-155.883388,188.428158,1516.466219,-925.867672,0
0.082290,-129.574274,178.474087,-32.131061,2.373858,6.576131,-3.795460,-2.889750,-6.024425,4.034254,2.727414,-0.128440,0.300778,-0.031958,-204.063987,188.410579,1515.269210,-924.474363,0
0.083327,-185.912474,126.453714,19.007197,3.301278,6.505125,-1.791325,-4.494239,-6.186158,2.196103,4.406718,-0.172276,0.320571,-0.028224,-206.653977,188.484807,1516.021224,-924.281631,0
0.084368,-195.383462,64.575324,83.588637,4.500138,5.621106,0.931123,-6.158430,-5.142245,-0.624075,5.886782,-0.230724,0.317958,-0.046895,-179.295088,188.262624,1514.112721,-923.667152,0
0.085409,-168.376968,10.911948,155.630304,5.891268,4.133539,3.050347,-6.494253,-3.774866,-2.760191,6.463153,-0.234377,0.321878,-0.028224,-120.641429,188.478295,1513.575331,-923.005609,0
0.086451,-106.605710,-39.984900,203.875569,6.852618,1.765504,4.856053,-5.848726,-1.374601,-4.468245,5.723121,-0.212459,0.286668,-0.005818,-43.778671,188.401699,1511.456955,-921.732367,0
0.087496,-52.365873,-108.664839,196.193751,6.660348,-0.854602,6.209340,-4.412149,1.235182,-5.995841,4.513453,-0.216112,0.297904,-0.035692,29.453578,188.480825,1511.156300,-921.228623,0
0.088547,-2.368131,-177.211889,146.212690,5.755548,-3.190685,6.598261,-2.460642,3.569283,-6.318987,2.595774,-0.117481,0.320245,-0.020755,101.498276,188.263461,1509.811118,-919.847012,0
0.089583,52.109899,-209.492064,86.247728,4.601928,-5.033279,5.518806,0.322960,5.473321,-5.446075,-0.065495,-0.106522,0.309793,-0.035692,161.350795,188.344301,1509.328653,-918.944631,0
0.090625,129.261587,-178.275008,32.142614,3.584028,-6.353983,4.014713,2.860291,6.708374,-3.918479,-2.559546,-0.066339,0.299014,-0.050629,207.518214,188.420050,1507.194959,-918.049758,0
0.091662,185.282197,-125.264002,-19.352652,2.645298,-6.258125,2.093919,4.431198,6.785564,-2.059344,-4.210387,-0.015197,0.316848,-0.009553,212.358894,188.495394,1507.117546,-917.734168,0
0.092704,195.002720,-64.134627,-83.700190,1.389888,-5.335053,-0.644404,6.069269,5.756354,0.710474,-5.661988,0.039598,0.318089,-0.017021,185.000004,188.246079,1505.513240,-916.385955,0
0.093742,168.676777,-11.510209,-155.483334,0.043998,-3.900740,-2.803314,6.416287,4.436760,2.838197,-6.252591,0.021333,0.327757,-0.013287,125.746916,188.480714,1505.308844,-916.007807,0
0.094783,107.257136,40.014846,-203.568561,-0.906042,-1.525604,-4.585208,5.781954,2.073253,4.584021,-5.501885,0.014027,0.334159,-0.050629,48.771057,188.418589,1504.152511,-915.035943,0
0.095823,52.223324,108.139064,-196.871592,-0.770322,1.122903,-5.962307,4.401347,-0.580639,6.099027,-4.342027,-0.000585,0.333898,-0.046895,-24.223681,188.435079,1504.450760,-914.459259,0
0.096865,2.157527,175.055191,-147.419887,0.111858,3.416383,-6.323448,2.494617,-2.874307,6.409582,-2.370980,-0.029809,0.308356,-0.013287,-94.232579,188.290397,1503.153632,-913.688587,0
0.097906,-51.787405,210.005246,-87.257955,1.276788,5.269628,-5.263836,-0.285254,-4.767318,5.587031,0.212017,-0.121134,0.311818,-0.046895,-158.077528,188.222907,1503.444110,-912.760693,0
0.098948,-128.598819,178.764029,-33.559091,2.283378,6.569030,-3.819271,-2.874824,-6.009722,4.063631,2.738088,-0.164970,0.302934,-0.031958,-202.322247,188.441480,1503.091553,-913.359678,0
0.099990,-185.560856,126.405391,19.044129,3.278658,6.462522,-1.783388,-4.509164,-6.153076,2.166726,4.413834,-0.212459,0.312994,-0.043161,-209.617197,188.290415,1502.361029,-913.486063,0
0.101031,-195.258694,63.850470,82.973106,4.545378,5.589153,0.931123,-6.158430,-5.094460,-0.565321,5.918803,-0.219765,0.312602,-0.005818,-179.724868,188.291135,1502.075357,-912.982931,0
0.102073,-168.603818,11.044838,155.187122,5.868648,4.137090,3.038441,-6.516642,-3.771190,-2.743405,6.441806,-0.238030,0.317828,-0.076769,-122.451029,188.210507,1501.703057,-912.781148,0
0.103115,-108.080235,-39.453340,203.161554,6.762138,1.786805,4.828273,-5.848726,-1.466495,-4.485032,5.740910,-0.216112,0.334747,-0.017021,-46.764511,188.420857,1502.432480,-912.853659,0
0.104156,-53.352671,-107.698367,196.710796,6.694278,-0.804898,6.169654,-4.412149,1.209451,-6.029415,4.499222,-0.186888,0.323119,-0.050629,30.573268,188.420761,1502.363421,-913.563563,0
0.105199,-2.232021,-174.964841,147.468372,5.778168,-3.137431,6.542701,-2.479299,3.576634,-6.339970,2.563753,-0.168623,0.314300,-0.043161,99.077936,188.244516,1501.603358,-914.301188,0
0.106250,52.314064,-209.057152,85.496781,4.613238,-5.004877,5.506901,0.304303,5.502727,-5.374731,-0.037033,-0.080951,0.304371,0.009119,163.443145,188.404597,1501.019254,-913.859244,0
0.107288,129.170847,-178.395817,32.733523,3.572718,-6.286527,4.010745,2.856560,6.686319,-3.901692,-2.545315,0.003068,0.301954,-0.043161,208.558734,188.403551,1500.591718,-913.843873,0
0.108333,185.123402,-125.855966,-19.943561,2.577438,-6.091262,2.042327,4.438661,6.756158,-2.021573,-4.146346,0.028639,0.317044,0.005384,212.539854,188.478554,1499.986644,-913.325940,0
0.109376,195.206885,-63.047346,-84.512690,1.355958,-5.296000,-0.711870,6.065538,5.708569,0.748244,-5.686893,0.006721,0.315672,-0.028224,184.592844,188.254973,1499.805846,-913.476840,0
0.110414,167.848774,-9.553103,-155.372538,0.010068,-3.829735,-2.735848,6.393898,4.344866,2.892754,-6.170761,0.065169,0.344611,0.020321,123.688496,188.328787,1498.117346,-913.043031,0
