1-Time,2-VGERA,3-VGERB,4-VGERC,5-VN,6-IGERAN,7-IGERBN,8-IGERCN,9-IGERAT,10-IGERBT,11-IGERCT,12-IN,13-IFD,14-IFAULT,15-VFAULT,16-Speed (rad/s),17-Active Power,18-Reactive Power,19-FAULT 
0.000000,153.534539,-171.654673,-7.792992,2.860188,-0.833300,5.114011,-3.695726,0.878634,-5.022209,3.666686,-0.175929,0.561229,-0.046895,34.226398,188.722538,988.073403,1013.187683,0
0.001041,171.047359,-123.693484,-79.046781,1.457748,-2.761101,5.078294,-1.736757,2.690779,-5.018012,1.809490,-0.194194,0.546335,-0.028224,35.594908,188.495712,988.274984,1012.134678,0
0.002083,186.223625,-40.951372,-130.185038,0.541638,-4.131508,4.483006,0.117734,4.234594,-4.480835,-0.022801,-0.135746,0.537254,-0.028224,43.353567,188.571875,988.137488,1010.332154,0
0.003128,152.468343,27.970185,-170.846970,-0.306612,-4.838014,3.197185,1.975956,4.837417,-3.267991,-1.712779,-0.073645,0.555088,-0.020755,43.308327,188.496706,989.132972,1009.684116,0
0.004166,103.990496,98.256884,-177.346970,-0.442332,-4.866416,1.141458,3.796865,4.951365,-1.203218,-3.609111,-0.033462,0.558028,-0.009553,35.843728,188.722654,990.410889,1009.283989,0
0.005208,22.642083,146.133507,-177.568561,-0.442332,-4.074704,-0.795210,4.759558,4.127997,0.706277,-4.470110,-0.022503,0.557309,-0.009553,21.412168,188.496675,991.616524,1008.957628,0
0.006250,-56.097556,169.606703,-148.995644,0.111858,-2.707847,-2.569167,5.002097,2.819430,2.565412,-4.818779,-0.037115,0.556395,-0.061832,-1.094732,188.571884,991.638556,1008.270528,0
0.007291,-116.258178,179.960038,-72.756061,1.593468,-0.701940,-4.255816,4.528213,0.856579,4.185335,-4.345585,-0.011544,0.556721,-0.050629,-11.974951,188.496945,991.410317,1007.570942,0
0.008333,-153.960650,172.047046,7.792235,3.029838,0.952490,-4.993972,3.561789,-0.885726,5.083428,-3.488144,-0.044421,0.561490,-0.031958,-28.498861,188.723607,992.103561,1007.908152,0
0.009375,-171.439443,124.363718,78.738258,4.387038,2.898042,-4.930475,1.599088,-2.749332,4.986904,-1.630948,-0.095563,0.550058,0.005384,-31.914481,188.495817,992.323675,1007.634108,0
0.010417,-186.751819,41.549121,130.368940,5.382318,4.311053,-4.358999,-0.229283,-4.241686,4.487497,0.236922,-0.139399,0.544114,-0.013287,-36.856951,188.571129,991.563065,1007.710377,0
0.011458,-152.463440,-28.773821,170.427652,6.174018,4.953654,-3.045398,-2.091237,-4.840833,3.274653,1.909109,-0.154011,0.528958,-0.035692,-38.462971,188.495687,990.568579,1007.032156,0
0.012499,-104.042305,-98.359828,177.703220,6.287118,4.964304,-0.985703,-3.882294,-4.936403,1.155323,3.769863,-0.241683,0.551953,-0.039427,-31.235881,188.721940,990.445631,1006.827372,0
0.013541,-23.692032,-145.970671,177.457008,6.309738,4.158391,0.883500,-4.837525,-4.138765,-0.632468,4.637978,-0.227071,0.558746,-0.020755,-15.605461,188.571044,989.786214,1007.328041,0
0.014583,55.149689,-169.685486,149.179546,5.766858,2.866090,2.713018,-5.169617,-2.892686,-2.541963,5.011552,-0.252642,0.563711,-0.058098,3.825118,188.495765,989.843194,1008.452131,0
0.015624,116.455904,-179.688474,72.706061,4.330488,0.838881,4.379823,-4.684539,-0.874699,-4.229034,4.591726,-0.216112,0.555676,0.020321,18.482878,188.495828,989.623682,1008.561307,0
0.016666,153.511854,-171.715077,-9.036364,2.837568,-0.843951,5.129885,-3.699457,0.885985,-5.072569,3.638223,-0.208806,0.555676,-0.035692,32.167978,188.722016,989.956168,1008.748089,0
0.017708,171.285552,-123.947183,-78.874432,1.491678,-2.761101,5.086231,-1.673323,2.727536,-5.001225,1.845068,-0.172276,0.549601,-0.058098,36.420538,188.571140,990.242482,1008.921640,0
0.018749,186.076172,-42.219867,-130.640531,0.473778,-4.177662,4.526660,0.132660,4.264000,-4.522802,-0.026359,-0.132093,0.553847,-0.046895,40.899298,188.495732,991.050315,1009.355880,0
0.019791,152.105383,28.755444,-170.846970,-0.295302,-4.859316,3.189248,1.987151,4.885201,-3.251204,-1.734126,-0.080951,0.549209,-0.046895,41.724928,188.495676,991.487285,1009.578507,0
0.020833,102.731479,99.428732,-177.346970,-0.431022,-4.845114,1.054150,3.834179,4.940338,-1.169645,-3.626900,-0.040768,0.515501,-0.005818,33.581728,188.721954,991.343943,1009.572191,0
0.021874,22.630740,146.447611,-177.679357,-0.464952,-4.007249,-0.826959,4.733439,4.098591,0.718867,-4.484341,-0.055380,0.556591,-0.039427,19.647808,188.571160,991.610016,1009.323468,0
0.022916,-55.122101,169.582542,-149.032576,0.089238,-2.690096,-2.608853,4.987172,2.760618,2.569609,-4.825894,-0.022503,0.562470,-0.028224,-1.083422,188.495749,992.063209,1008.447158,0
0.023958,-116.212808,180.552003,-72.534470,1.570848,-0.652236,-4.271690,4.528213,0.790416,4.214712,-4.352701,-0.026156,0.557113,-0.039427,-12.630931,188.571102,992.989506,1008.082478,0
0.024999,-153.620375,171.781266,9.380303,3.086388,1.030596,-4.974129,3.539400,-0.948214,5.016280,-3.424103,-0.062686,0.553194,-0.017021,-27.888121,188.646592,992.488704,1006.792806,0
0.026041,-172.222076,123.131466,79.304546,4.375728,2.951297,-4.918569,1.490878,-2.800792,5.007887,-1.513539,-0.069992,0.541305,-0.013287,-31.654351,188.571161,993.436456,1006.042090,0
0.027083,-186.513626,42.225652,130.590531,5.371008,4.332355,-4.299470,-0.352418,-4.267416,4.466514,0.308078,-0.132093,0.549470,-0.058098,-34.979491,188.495794,994.384121,1005.201993,0
0.028124,-152.769687,-27.795268,171.412501,6.140088,4.978505,-3.009680,-2.184521,-4.914348,3.211703,2.012287,-0.190541,0.559269,-0.046895,-37.162321,188.571152,996.695389,1004.562543,0
0.029166,-103.305043,-99.181330,177.136932,6.321048,4.953654,-0.898394,-3.945728,-4.925376,1.100766,3.862367,-0.227071,0.544702,-0.024490,-31.462081,188.571167,997.619223,1004.083317,0
0.030208,-21.310107,-146.321017,178.158713,6.377598,4.101587,1.014464,-4.882301,-4.039520,-0.838106,4.673556,-0.208806,0.545420,-0.035692,-15.141751,188.571190,999.346843,1002.246309,0
0.031249,55.682787,-169.045198,148.884091,5.778168,2.731179,2.776515,-5.083795,-2.760359,-2.630094,4.993763,-0.241683,0.558158,-0.050629,5.318038,188.495604,1000.285450,1000.304995,0
0.032291,115.695957,-181.077778,72.533712,4.330488,0.764325,4.455226,-4.621106,-0.797508,-4.279394,4.545474,-0.270907,0.560575,-0.017021,18.675148,188.571096,1001.555322,999.216435,0
0.033333,153.636621,-171.171437,-8.310038,2.837568,-0.925607,5.149728,-3.654681,0.955825,-5.051586,3.645339,-0.168623,0.559204,-0.061832,34.350808,188.646458,1002.032878,998.598213,0
0.034374,172.181609,-122.449151,-79.268371,1.502988,-2.839207,5.050513,-1.557651,2.815754,-4.988635,1.716986,-0.143052,0.542415,-0.005818,35.685388,188.571136,1003.171133,997.356580,0
0.035416,185.906035,-40.178195,-130.505114,0.496398,-4.216715,4.427446,0.229675,4.293406,-4.459852,-0.111747,-0.124787,0.546857,-0.031958,43.466667,188.495758,1003.411388,996.289491,0
0.036458,152.593111,28.187641,-171.179357,-0.283992,-4.841564,3.109876,2.072972,4.899904,-3.217631,-1.837303,-0.059033,0.552018,-0.069301,43.410117,188.495788,1005.026046,995.510360,0
0.037499,103.514111,98.933415,-177.088448,-0.431022,-4.848665,1.054150,3.834179,4.907256,-1.115088,-3.619784,-0.051727,0.552998,-0.002084,35.798488,188.646536,1005.283877,994.366979,0
0.038541,21.632600,146.459691,-177.937879,-0.442332,-4.007249,-0.910299,4.744633,4.054482,0.790211,-4.512804,-0.018850,0.560184,-0.046895,20.982388,188.571107,1006.000865,993.690370,0
0.039583,-56.846161,169.183872,-148.589394,0.157098,-2.611989,-2.660445,4.979709,2.764294,2.624166,-4.808105,-0.018850,0.557309,-0.028224,-1.230452,188.495732,1005.960000,993.765856,0
0.040624,-116.019986,181.301019,-71.537311,1.627398,-0.623834,-4.335187,4.539408,0.779389,4.265072,-4.381164,-0.022503,0.556787,-0.028224,-11.827921,188.571136,1006.674154,994.262082,0
0.041666,-154.085417,171.539648,8.223106,3.041148,1.051898,-5.045564,3.539400,-0.970269,5.083428,-3.424103,-0.059033,0.556852,-0.028224,-28.431001,188.646527,1007.771745,994.385148,0
0.042708,-172.471611,123.228113,78.959849,4.398348,2.976149,-4.946349,1.520729,-2.822847,4.991100,-1.513539,-0.099216,0.550711,-0.017021,-31.880551,188.571113,1008.019422,994.153735,0
0.043749,-186.513626,40.679296,130.455114,5.382318,4.353657,-4.303439,-0.318836,-4.289471,4.416153,0.325868,-0.146705,0.536863,-0.002084,-36.992671,188.495741,1007.834746,993.721662,0
0.044791,-152.508810,-29.510756,170.907766,6.174018,4.971405,-2.966026,-2.191984,-4.862888,3.186522,2.005171,-0.154011,0.536405,-0.017021,-38.734411,188.571165,1006.845357,993.395227,0
0.045833,-103.611290,-99.108844,177.272349,6.298428,4.957204,-0.902362,-3.990504,-4.947430,1.096569,3.819673,-0.227071,0.552083,-0.009553,-31.088851,188.646495,1006.626058,993.559981,0
0.046874,-22.818659,-146.308936,177.887879,6.321048,4.112238,1.030338,-4.904690,-4.094656,-0.762566,4.691346,-0.241683,0.560053,-0.035692,-15.322711,188.569958,1006.518619,994.508344,0
0.047916,56.079774,-169.129764,148.847160,5.778168,2.752481,2.780484,-5.117378,-2.760359,-2.630094,4.997320,-0.245336,0.555415,-0.046895,4.062628,188.495553,1006.483871,994.666170,0
0.048958,116.240397,-181.126102,71.093371,4.319178,0.735923,4.455226,-4.654688,-0.779130,-4.245821,4.538358,-0.230724,0.556133,-0.024490,18.347158,188.571067,1005.769711,994.727201,0
0.049999,153.591251,-171.171437,-9.442614,2.814948,-0.929158,5.177508,-3.613636,0.974203,-5.118733,3.577740,-0.201500,0.555807,-0.024490,32.382868,188.571082,1006.390093,994.456215,0
0.051041,172.442487,-122.980711,-78.849811,1.480368,-2.899562,5.102105,-1.594965,2.845160,-5.022209,1.734775,-0.146705,0.552998,-0.054364,36.465778,188.571098,1007.148507,994.832800,0
0.052083,185.996775,-41.350042,-130.726705,0.473778,-4.234467,4.467132,0.218481,4.344866,-4.485032,-0.115305,-0.117481,0.553847,-0.050629,40.865368,188.495790,1008.185257,995.122847,0
0.053124,151.935246,29.733997,-171.290152,-0.227442,-4.884167,3.105907,2.084166,4.863147,-3.192451,-1.865766,-0.066339,0.548360,-0.035692,42.007678,188.646587,1007.707370,994.845727,0
0.054166,102.345834,100.117344,-177.076137,-0.431022,-4.809612,1.002558,3.875224,4.903580,-1.052137,-3.683826,-0.048074,0.544310,-0.002084,33.400768,188.571020,1008.358754,994.622777,0
0.055208,22.018245,146.810038,-178.048675,-0.408402,-3.978847,-0.930142,4.763290,4.028752,0.798604,-4.523477,-0.015197,0.554631,-0.020755,19.466848,188.571113,1008.660146,994.370390,0
0.056249,-55.779966,169.087225,-148.737122,0.145788,-2.611989,-2.708068,5.013292,2.701806,2.645149,-4.829452,-0.018850,0.558681,-0.024490,-1.060802,188.495689,1009.465917,993.472665,0
0.057291,-116.258178,181.868821,-70.823296,1.593468,-0.609632,-4.355030,4.513288,0.709549,4.290253,-4.349143,-0.044421,0.555480,-0.013287,-12.585691,188.646462,1010.037190,992.787781,0
0.058333,-153.824540,171.298030,9.958902,3.097698,1.066099,-5.001909,3.490893,-1.010702,5.091821,-3.360062,-0.062686,0.551887,-0.054364,-28.114321,188.571107,1010.069999,992.138614,0
0.059374,-173.390353,122.177074,79.366099,4.375728,3.075556,-4.950318,1.401325,-2.918416,4.974314,-1.435266,-0.113828,0.543591,-0.005818,-31.801381,188.571154,1011.192327,991.381849,0
0.060416,-186.218721,41.537040,130.812122,5.371008,4.357207,-4.235973,-0.412120,-4.337256,4.428743,0.397025,-0.106522,0.548033,-0.028224,-35.047351,188.495662,1012.527179,990.986478,0
0.061458,-152.622235,-28.689255,171.781819,6.196638,5.010458,-2.930309,-2.262880,-4.951106,3.123572,2.104791,-0.205153,0.554174,-0.035692,-37.433761,188.646601,1014.837571,990.464104,0
0.062499,-102.703890,-100.026993,176.804546,6.264498,4.918151,-0.822991,-4.001698,-4.903321,0.983259,3.897946,-0.194194,0.547837,-0.024490,-31.416841,188.571131,1015.711089,989.135637,0
0.063541,-20.754324,-146.635121,178.577273,6.343668,4.048333,1.109710,-4.915884,-4.021141,-0.892663,4.726924,-0.219765,0.556133,0.001650,-14.779831,188.571067,1016.877387,988.079524,0
0.064583,56.431392,-168.586123,148.465531,5.789478,2.660174,2.859855,-5.053944,-2.708898,-2.726618,4.990205,-0.216112,0.555937,-0.061832,5.476378,188.495642,1017.788378,987.101102,0
0.065624,115.514477,-182.213383,70.994887,4.296558,0.640065,4.506817,-4.613643,-0.694587,-4.363328,4.509895,-0.227071,0.557179,-0.050629,18.776938,188.646505,1019.911581,986.183174,0
0.066666,153.681991,-170.494906,-8.839394,2.792328,-1.017914,5.157665,-3.557665,1.036691,-5.122929,3.531488,-0.190541,0.557962,-0.028224,34.441288,188.571053,1020.499351,985.134647,0
0.067708,173.168407,-121.398112,-79.280682,1.502988,-2.917313,5.054482,-1.501680,2.896621,-4.963455,1.652945,-0.150358,0.540717,-0.035692,35.696698,188.571064,1020.628130,984.011531,0
0.068749,185.622472,-39.791606,-130.603599,0.507708,-4.284170,4.387760,0.296840,4.363245,-4.392705,-0.172231,-0.117481,0.514391,-0.043161,43.523217,188.495541,1020.506671,982.719374,0
0.069791,152.661166,28.936657,-171.647160,-0.306612,-4.877067,3.058284,2.147599,4.929310,-3.129500,-1.926249,-0.077298,0.555611,-0.009553,43.545837,188.646527,1022.301465,982.110249,0
0.070833,103.173836,99.658269,-176.842235,-0.385782,-4.806061,0.978746,3.920000,4.899904,-1.014367,-3.690941,-0.022503,0.552671,-0.017021,35.730628,188.571123,1022.817680,981.440325,0
0.071874,20.736543,146.737552,-178.356440,-0.476262,-3.932693,-0.953954,4.811798,4.032427,0.840571,-4.491457,-0.022503,0.551299,-0.013287,20.688328,188.571047,1022.623147,981.283880,0
0.072916,-57.617451,168.857687,-148.269319,0.134478,-2.558735,-2.739817,4.968515,2.701806,2.649346,-4.790316,-0.040768,0.531441,-0.017021,-1.298312,188.495568,1021.856568,981.378526,0
0.073958,-116.076698,182.339976,-70.023106,1.593468,-0.549278,-4.339156,4.472243,0.713225,4.323826,-4.363374,-0.044421,0.553324,-0.043161,-11.816611,188.646437,1022.193701,981.758654,0
0.074999,-154.198842,170.838956,8.703220,3.075078,1.076750,-5.077312,3.464773,-1.054811,5.112804,-3.399198,-0.044421,0.562405,-0.050629,-28.668511,188.571024,1022.988123,981.877944,0
0.076041,-173.367668,122.285803,79.070644,4.398348,3.036503,-4.930475,1.449833,-2.863280,5.016280,-1.449498,-0.084604,0.547902,-0.028224,-31.903171,188.571136,1022.645000,982.411860,0
0.077083,-186.173351,39.628257,130.738258,5.404938,4.328805,-4.263753,-0.412120,-4.322553,4.420350,0.386351,-0.106522,0.543722,-0.020755,-37.105771,188.495609,1021.828198,982.664254,0
0.078124,-152.406727,-30.042316,171.215531,6.185328,4.971405,-2.930309,-2.277805,-4.884942,3.136162,2.101233,-0.201500,0.534054,0.012853,-38.870131,188.721793,1020.760891,982.550532,0
0.079166,-103.418468,-99.555838,177.038448,6.309738,4.928802,-0.866645,-3.983041,-4.940079,1.042012,3.844578,-0.194194,0.552606,-0.005818,-31.020991,188.495658,1020.306889,983.357986,0
0.080208,-21.899917,-146.623040,178.109470,6.354978,4.066084,1.046212,-4.878570,-4.072602,-0.867483,4.719808,-0.219765,0.557962,-0.005818,-15.039961,188.571160,1020.232959,983.835274,0
0.081249,56.919119,-168.827741,148.539394,5.823408,2.724079,2.816201,-5.121109,-2.764035,-2.693044,5.029341,-0.227071,0.558746,-0.009553,4.334068,188.495674,1020.001429,985.077854,0
0.082291,116.217712,-182.225464,69.739205,4.285248,0.696870,4.542535,-4.613643,-0.690912,-4.338148,4.513453,-0.223418,0.551887,-0.024490,18.324538,188.722944,1019.368756,985.428566,0
0.083333,153.897499,-170.676120,-9.454924,2.781018,-0.985962,5.141791,-3.576322,1.003609,-5.076766,3.567066,-0.197847,0.557113,-0.031958,32.518588,188.495618,1018.515139,985.990801,0
0.084374,173.259147,-122.171290,-78.997538,1.480368,-2.967017,5.117979,-1.538994,2.914999,-5.022209,1.688523,-0.154011,0.549470,-0.017021,36.522328,188.570971,1019.273017,986.793053,0
0.085416,185.701870,-40.492298,-131.046781,0.485088,-4.269969,4.443320,0.259526,4.366921,-4.443065,-0.154442,-0.124787,0.554239,-0.046895,40.854058,188.495703,1019.535342,987.548798,0
0.086458,151.980616,30.615903,-171.585607,-0.283992,-4.866416,3.050347,2.162525,4.918283,-3.171467,-1.908460,-0.095563,0.554827,-0.035692,42.143398,188.721811,1018.637171,988.428306,0
0.087499,102.153011,100.709308,-176.965341,-0.408402,-4.806061,0.946998,3.923732,4.896229,-1.043744,-3.683826,-0.059033,0.555349,-0.031958,33.355528,188.495669,1017.997748,989.117633,0
0.088541,21.417093,147.112060,-178.257955,-0.476262,-3.957545,-0.997608,4.811798,4.043455,0.874145,-4.523477,-0.022503,0.548948,-0.046895,19.319818,188.571011,1018.841377,989.139915,0
0.089582,-56.641996,168.978496,-148.330872,0.100548,-2.576487,-2.739817,5.031948,2.687103,2.708099,-4.879262,-0.026156,0.562535,-0.009553,-1.185212,188.495767,1020.489500,989.318011,0
0.090624,-116.314891,182.847374,-69.715341,1.616088,-0.552828,-4.422496,4.528213,0.654413,4.365793,-4.334912,-0.026156,0.556525,-0.031958,-12.630931,188.721558,1021.297330,988.738946,0
0.091666,-153.994677,170.826875,10.328220,3.142938,1.119353,-5.029689,3.431191,-1.054811,5.091821,-3.356504,-0.051727,0.555219,-0.039427,-28.283971,188.495732,1020.731407,988.421032,0
0.092707,-174.104931,121.524706,79.501515,4.387038,3.100408,-4.942381,1.405057,-2.955174,5.028871,-1.417477,-0.095563,0.546139,-0.009553,-31.880551,188.571073,1021.871898,988.399333,0
0.093749,-185.957844,40.932995,131.181440,5.393628,4.396260,-4.232004,-0.415852,-4.388716,4.399367,0.400582,-0.106522,0.554958,-0.020755,-35.013421,188.495618,1022.983965,988.114202,0
0.094791,-152.554180,-29.329543,171.966478,6.128778,5.067262,-2.878717,-2.341239,-4.921700,3.127769,2.158159,-0.208806,0.556852,-0.031958,-37.558171,188.721744,1024.239901,988.050087,0
0.095833,-102.227505,-100.727685,176.669129,6.298428,4.946553,-0.791242,-4.053937,-4.910673,0.970669,3.905062,-0.238030,0.553586,-0.054364,-31.348981,188.495577,1024.667210,987.420723,0
0.096874,-20.028404,-147.057952,178.663448,6.321048,4.055433,1.113678,-4.956929,-4.032168,-0.888466,4.751829,-0.245336,0.549732,-0.046895,-14.497081,188.571040,1024.855621,987.493720,0
0.097916,56.828379,-168.404910,148.317803,5.755548,2.638872,2.875730,-5.102452,-2.712574,-2.751798,5.036457,-0.234377,0.561229,-0.020755,5.544238,188.495624,1025.604030,986.663818,0
0.098958,115.695957,-182.901995,70.182387,4.273938,0.647166,4.566346,-4.632300,-0.690912,-4.392705,4.552590,-0.208806,0.563254,-0.028224,18.878728,188.721876,1026.740554,987.084400,0
0.099999,153.954211,-169.999589,-9.393371,2.803638,-1.042766,5.225131,-3.561397,1.033015,-5.181683,3.549277,-0.197847,0.558093,0.001650,34.520458,188.495564,1027.895895,987.277039,0
0.101041,173.667477,-120.926957,-79.674621,1.525608,-2.981218,5.082262,-1.535263,2.948081,-5.022209,1.592461,-0.161317,0.545877,-0.009553,35.730628,188.571062,1028.321243,986.552548,0
0.102082,185.452335,-39.525826,-130.837500,0.496398,-4.241567,4.411571,0.311765,4.348542,-4.443065,-0.175789,-0.161317,0.542350,-0.013287,43.568457,188.495779,1027.956358,986.384568,0
0.103124,152.411631,29.347408,-171.770266,-0.295302,-4.930321,3.082096,2.207301,4.944013,-3.175664,-1.897787,-0.077298,0.555480,-0.028224,43.579767,188.646303,1028.468241,986.395458,0
0.104166,102.549999,100.407285,-176.645266,-0.397092,-4.869966,0.970809,3.931194,4.918283,-1.047941,-3.687383,-0.048074,0.555545,-0.031958,35.640148,188.495797,1028.683858,986.468091,0
0.105207,19.999280,147.039575,-178.405682,-0.442332,-3.957545,-1.001577,4.867768,3.999346,0.886735,-4.551940,-0.055380,0.568741,-0.009553,20.439508,188.570973,1028.719484,986.254202,0
0.106249,-57.901013,168.676474,-148.121591,0.145788,-2.551635,-2.719974,5.009560,2.679751,2.687116,-4.808105,-0.048074,0.557179,-0.009553,-1.388792,188.495597,1027.589096,985.893888,0
0.107291,-116.382946,182.654080,-69.506061,1.616088,-0.549278,-4.382810,4.531945,0.680143,4.349006,-4.327796,-0.022503,0.557962,-0.013287,-11.861851,188.721666,1027.068178,986.040444,0
0.108332,-154.584487,170.512771,9.183333,3.075078,1.076750,-5.069375,3.483430,-1.069514,5.129591,-3.406314,-0.062686,0.561294,-0.028224,-28.815541,188.495631,1027.772915,986.658640,0
0.109374,-173.878081,121.790485,79.378409,4.398348,3.075556,-4.982066,1.472222,-2.896362,4.999494,-1.460171,-0.059033,0.548425,-0.035692,-31.925791,188.571056,1026.748757,986.832360,0
0.110416,-185.980529,39.181264,130.959849,5.404938,4.382059,-4.299470,-0.404658,-4.318877,4.395170,0.354330,-0.139399,0.533662,-0.039427,-37.094461,188.493879,1025.081684,987.202895,0
