1-Time,2-VGERA,3-VGERB,4-VGERC,5-VN,6-IGERAN,7-IGERBN,8-IGERCN,9-IGERAT,10-IGERBT,11-IGERCT,12-IN,13-IFD,14-IFAULT,15-VFAULT,16-Speed (rad/s),17-FAULT 
0.000000,103.207864,96.046079,-183.145266,-0.589362,-5.693631,-0.513441,6.069269,5.752678,0.357951,-5.768724,-0.037115,0.608851,-0.035692,19.466848,188.721891,0
0.001042,20.611775,143.354899,-189.583713,-0.736392,-4.110207,-2.934277,6.673751,4.150051,2.884361,-6.473177,-0.022503,0.609896,-0.069301,-4.646071,188.495658,0
0.002083,-52.263790,172.421554,-148.601705,0.043998,-1.770573,-4.859040,6.024493,1.863735,4.802249,-5.925269,-0.007891,0.605780,-0.050629,-24.653461,188.495707,0
0.003125,-104.439293,201.355319,-64.077084,1.695258,1.034146,-6.359165,4.688662,-0.948214,6.388599,-4.619539,-0.051727,0.599183,-0.061832,-39.107641,188.495707,0
0.004167,-152.939825,171.140978,5.367045,2.961978,3.221118,-6.537751,2.643872,-3.146313,6.602630,-2.698302,-0.110175,0.595328,-0.080503,-51.265890,188.646409,0
0.005208,-185.492801,122.152913,72.484470,4.285248,5.344184,-5.835312,-0.001670,-5.267220,5.918569,-0.051264,-0.154011,0.584942,-0.050629,-59.850180,188.495604,0
0.006250,-187.749959,40.051089,125.850947,5.269218,6.306310,-4.251847,-2.453180,-6.314809,4.449727,2.222200,-0.205153,0.568023,-0.076769,-54.681510,188.495731,0
0.007292,-161.321933,-31.588672,171.252463,6.140088,6.732343,-2.096906,-4.665882,-6.682384,2.317807,4.420949,-0.219765,0.598399,-0.076769,-40.600561,188.495727,0
0.008333,-103.214303,-95.979890,182.812122,6.366288,5.766667,0.601731,-6.124848,-5.803880,-0.313519,5.879666,-0.252642,0.605127,-0.076769,-17.505541,188.646404,0
0.009375,-21.083257,-143.228306,189.570645,6.490698,4.229397,3.050347,-6.815151,-4.256389,-2.844125,6.587678,-0.311090,0.609373,-0.046895,9.932518,188.495655,0
0.010417,51.508747,-171.896291,148.982576,5.721618,1.882663,4.959236,-6.162161,-1.999479,-4.753620,6.054001,-0.278213,0.610745,-0.069301,29.679778,188.495767,0
0.011458,104.478224,-200.805894,64.839584,4.115598,-0.890104,6.495078,-4.871107,0.830849,-6.386134,4.812312,-0.245336,0.601142,-0.054364,45.932247,188.495718,0
0.012500,152.763248,-171.038547,-4.875379,2.803638,-3.077076,6.665727,-2.826317,3.021596,-6.579182,2.891075,-0.216112,0.592846,-0.061832,55.568367,188.646534,0
0.013542,185.157430,-122.014238,-72.509849,1.548228,-5.164639,5.959319,-0.165850,5.157207,-5.937088,0.276058,-0.150358,0.582525,-0.039427,64.989597,188.495752,0
0.014583,187.403245,-39.187560,-125.777841,0.507708,-6.187120,4.356011,2.222227,6.289338,-4.438868,-2.040100,-0.128440,0.549928,-0.020755,61.800177,188.495519,0
0.015625,160.725684,32.403877,-170.748485,-0.351852,-6.595402,2.292348,4.524482,6.605453,-2.294358,-4.249523,-0.048074,0.580434,-0.061832,45.072687,188.495671,0
0.016667,102.504629,96.529315,-182.763637,-0.578052,-5.700731,-0.477724,5.994642,5.715921,0.307591,-5.740261,-0.011544,0.598203,-0.073035,21.683608,188.571055,0
0.017708,20.384925,143.318656,-189.325190,-0.747702,-4.124408,-2.878717,6.662557,4.175782,2.854984,-6.466062,-0.018850,0.612640,-0.020755,-4.442491,188.495731,0
0.018750,-52.059625,172.409473,-148.897160,0.077928,-1.802526,-4.835229,6.043150,1.929898,4.764479,-5.932385,-0.015197,0.611006,-0.069301,-24.415951,188.495794,0
0.019792,-104.745540,200.666708,-65.357387,1.593468,0.952490,-6.347259,4.752096,-0.856320,6.392796,-4.626655,-0.059033,0.599770,-0.076769,-39.695761,188.495633,0
0.020833,-153.552320,171.116816,4.308333,2.916738,3.196266,-6.490128,2.699842,-3.061770,6.543877,-2.740996,-0.084604,0.597745,-0.073035,-51.435540,188.571123,0
0.021875,-185.095814,122.587825,72.459849,4.240008,5.251877,-5.787689,0.028181,-5.160624,5.943750,-0.115305,-0.128440,0.581218,-0.058098,-59.691840,188.495714,0
0.022917,-187.727274,39.628257,126.023296,5.269218,6.292108,-4.239941,-2.393478,-6.270700,4.416153,2.143927,-0.175929,0.597027,-0.046895,-57.101850,188.495595,0
0.023958,-160.947630,-32.615549,170.760038,6.128778,6.696840,-2.140560,-4.591255,-6.619896,2.363971,4.385371,-0.223418,0.584223,-0.065566,-41.629771,188.495655,0
0.025000,-102.216163,-96.620178,182.664394,6.354978,5.763117,0.514422,-6.102459,-5.763447,-0.275749,5.797836,-0.281866,0.581349,-0.050629,-16.238821,188.571190,0
0.026042,-19.983034,-142.865879,189.422917,6.535938,4.222296,3.014630,-6.740524,-4.285795,-2.705634,6.541426,-0.318396,0.606303,-0.073035,9.943828,188.495676,0
0.027083,52.416147,-171.678835,149.081061,5.732928,1.957219,4.883833,-6.165893,-2.091372,-4.694867,6.014865,-0.292825,0.606891,-0.061832,29.035108,188.495611,0
0.028125,104.671046,-200.141445,65.849053,4.172148,-0.794247,6.403801,-4.897227,0.702198,-6.335774,4.840775,-0.270907,0.607609,-0.073035,44.688147,188.495658,0
0.029167,153.126208,-170.978142,-3.730492,2.826258,-2.967017,6.606198,-2.889750,2.892945,-6.512035,2.937327,-0.208806,0.597288,-0.084238,56.133867,188.495559,0
0.030208,184.896552,-122.859902,-72.214394,1.559538,-5.061681,5.955351,-0.281522,4.980771,-5.995841,0.411256,-0.146705,0.591213,-0.084238,64.175277,188.495803,0
0.031250,187.357875,-40.371489,-125.962500,0.519018,-6.098363,4.431414,2.080435,6.149659,-4.459852,-1.912018,-0.110175,0.578083,-0.028224,61.065027,188.495754,0
0.032292,160.237956,31.981045,-170.896213,-0.329232,-6.510195,2.351876,4.349108,6.553992,-2.420259,-4.100094,-0.066339,0.554043,-0.069301,44.801247,188.495658,0
0.033333,102.493286,97.060875,-182.135796,-0.634602,-5.651028,-0.303106,5.905089,5.704894,0.194280,-5.565927,-0.007891,0.595132,-0.076769,19.274578,188.571145,0
0.034375,18.989798,143.366980,-189.152841,-0.725082,-4.170562,-2.719974,6.587930,4.219891,2.636756,-6.348653,-0.048074,0.560510,-0.073035,-4.680001,188.495741,0
0.035417,-53.545493,171.261787,-149.414205,-0.012552,-1.905484,-4.644737,6.084195,1.999738,4.609201,-5.857670,-0.022503,0.607283,-0.061832,-24.958831,188.495758,0
0.036458,-105.369378,199.881449,-65.849811,1.616088,0.817579,-6.244076,4.815529,-0.731345,6.216535,-4.712043,-0.048074,0.603755,-0.043161,-39.469561,188.495716,0
0.037500,-152.917140,171.624214,3.889773,2.939358,2.937095,-6.430600,2.845366,-2.874307,6.518696,-2.869079,-0.073645,0.602971,-0.076769,-50.836110,188.646545,0
0.038542,-184.993731,123.155628,71.967424,4.206078,5.138268,-5.795626,0.181168,-5.020945,5.914373,-0.268293,-0.132093,0.586836,-0.065566,-60.076380,188.495600,0
0.039583,-187.863384,41.851144,125.949432,5.269218,6.171399,-4.303439,-2.191984,-6.138373,4.500087,1.962477,-0.205153,0.591670,-0.069301,-54.692820,188.495857,0
0.040625,-160.199025,-30.791332,171.498675,6.162708,6.576131,-2.227869,-4.412149,-6.579463,2.477281,4.211036,-0.234377,0.596374,-0.046895,-40.068991,188.495617,0
0.041667,-103.883510,-96.596016,181.765720,6.332358,5.759567,0.375522,-5.930816,-5.785501,-0.116275,5.683985,-0.292825,0.576711,-0.065566,-17.448991,188.571069,0
0.042708,-19.688129,-143.035011,188.955114,6.479388,4.303953,2.784452,-6.624851,-4.285795,-2.592324,6.434691,-0.311090,0.589318,-0.061832,10.226578,188.495627,0
0.043750,53.743219,-170.651958,149.819697,5.778168,2.109881,4.733027,-6.180818,-2.161212,-4.497622,6.036212,-0.285519,0.591017,-0.076769,30.222658,188.495647,0
0.044792,105.476364,-199.416590,65.664394,4.149528,-0.595431,6.316492,-4.964392,0.544141,-6.180496,4.855007,-0.256295,0.599705,-0.069301,46.282857,188.495662,0
0.045833,152.309548,-171.582187,-4.222917,2.882808,-2.764651,6.554607,-3.042736,2.723860,-6.478461,3.086757,-0.234377,0.597484,-0.065566,55.195137,188.571009,0
0.046875,184.374797,-122.678688,-72.189773,1.582158,-4.937422,5.963288,-0.415852,4.863147,-5.958071,0.528665,-0.154011,0.587620,-0.020755,64.921737,188.495738,0
0.047917,187.664122,-41.809117,-126.011743,0.519018,-5.991854,4.471100,1.931180,6.043063,-4.560573,-1.737683,-0.117481,0.595067,-0.065566,61.992447,188.495749,0
0.048958,159.897681,30.072262,-171.585607,-0.329232,-6.474692,2.419342,4.233435,6.458423,-2.508390,-3.968453,-0.055380,0.597157,-0.061832,44.846487,188.495741,0
0.050000,104.319429,96.855500,-181.557198,-0.555432,-5.675880,-0.160237,5.748371,5.749003,0.043199,-5.434286,-0.040768,0.600489,-0.091706,21.909808,188.495779,0
0.051042,20.226130,143.354899,-188.635796,-0.713772,-4.230916,-2.573136,6.487183,4.249297,2.531838,-6.252591,-0.007891,0.594022,-0.069301,-4.827031,188.495741,0
0.052083,-53.829056,170.983927,-149.758902,0.055308,-1.994241,-4.545522,5.968522,2.121037,4.449727,-5.871901,-0.026156,0.592519,-0.058098,-25.038001,188.495700,0
0.053125,-105.925160,199.241161,-65.382008,1.627398,0.728822,-6.132956,4.804335,-0.606369,6.115814,-4.736948,-0.011544,0.595459,-0.058098,-39.673141,188.495778,0
0.054167,-152.440755,171.889994,5.083902,2.995908,2.876741,-6.355196,2.890142,-2.778738,6.438959,-2.926004,-0.059033,0.594936,-0.073035,-50.836110,188.495604,0
0.055208,-184.143044,122.817362,72.582955,4.240008,4.999807,-5.811500,0.326691,-4.906997,5.918569,-0.435512,-0.143052,0.587359,-0.024490,-59.612670,188.495591,0
0.056250,-187.783986,41.573283,126.121781,5.257908,6.100393,-4.307407,-2.098700,-6.083237,4.542054,1.887762,-0.150358,0.588012,-0.073035,-57.237570,188.495725,0
0.057292,-160.153655,-29.716132,171.597160,6.140088,6.533527,-2.299304,-4.333790,-6.550057,2.544428,4.082954,-0.205153,0.609569,-0.069301,-41.573221,188.495765,0
0.058333,-105.017760,-96.426884,181.359470,6.332358,5.763117,0.276307,-5.822607,-5.825934,0.030609,5.584365,-0.292825,0.605127,-0.080503,-17.290651,188.495674,0
0.059375,-21.502929,-143.047092,188.438069,6.456768,4.289751,2.709049,-6.561418,-4.311525,-2.495800,6.338629,-0.292825,0.609373,-0.039427,9.728938,188.495707,0
0.060417,52.949244,-170.374097,150.361364,5.755548,2.163135,4.590158,-6.124848,-2.256781,-4.380115,5.936592,-0.274560,0.604801,-0.065566,29.498818,188.495664,0
0.061458,105.816639,-198.583008,65.922917,4.160838,-0.517325,6.181560,-4.956929,0.463274,-6.083972,4.876354,-0.238030,0.594675,-0.061832,44.823867,188.495779,0
0.062500,151.889876,-171.690916,-5.367803,2.814948,-2.682995,6.487141,-3.076318,2.606236,-6.402921,3.093872,-0.216112,0.591213,-0.073035,55.342167,188.495796,0
0.063542,183.524110,-122.207533,-72.879167,1.525608,-4.816712,5.951382,-0.516599,4.734496,-5.869941,0.642516,-0.143052,0.584223,-0.065566,64.243137,188.495841,0
0.064583,187.493985,-40.733916,-125.974811,0.519018,-5.913748,4.463163,1.811776,5.910736,-4.531196,-1.638064,-0.099216,0.585138,-0.065566,61.166817,188.495604,0
0.065625,159.217131,30.241395,-171.708713,-0.363162,-6.400136,2.589992,4.065524,6.395935,-2.609110,-3.811908,-0.069992,0.601600,-0.065566,45.072687,188.495720,0
0.066667,104.931924,96.952147,-180.917046,-0.555432,-5.626176,-0.025305,5.628968,5.701218,-0.070111,-5.370245,-0.022503,0.602318,-0.073035,20.303788,188.495674,0
0.067708,21.575888,143.463627,-187.897160,-0.691152,-4.220265,-2.465984,6.390167,4.245621,2.376561,-6.156529,-0.004238,0.608197,-0.087972,-4.272841,188.495711,0
0.068750,-53.261931,170.307396,-150.854546,0.021378,-2.118501,-4.355030,5.968522,2.201904,4.302843,-5.846996,-0.011544,0.608328,-0.058098,-25.298131,188.495586,0
0.069792,-106.514970,197.912262,-66.686932,1.650018,0.547758,-6.013898,4.849111,-0.470367,5.989913,-4.722717,-0.044421,0.597680,-0.046895,-39.741001,188.495613,0
0.070833,-152.179877,172.373231,5.133144,2.973288,2.670825,-6.275825,2.983426,-2.617005,6.367616,-3.014950,-0.110175,0.595198,-0.069301,-49.942620,188.495705,0
0.071875,-183.394439,122.406612,72.915341,4.251318,4.864897,-5.775783,0.431169,-4.734237,5.851422,-0.510226,-0.124787,0.583439,-0.065566,-60.042450,188.495598,0
0.072917,-188.044864,40.449759,125.900190,5.269218,5.944181,-4.410590,-1.912131,-5.972964,4.563038,1.688523,-0.190541,0.596896,-0.050629,-54.681510,188.495510,0
0.073958,-158.769870,-30.477229,171.769508,6.117468,6.469622,-2.426298,-4.162147,-6.395676,2.624166,3.929966,-0.252642,0.595198,-0.073035,-39.741001,188.495627,0
0.075000,-104.949705,-96.898039,180.780872,6.332358,5.759567,0.101689,-5.695740,-5.822259,0.148117,5.445609,-0.248989,0.610484,-0.054364,-18.399031,188.420314,0
0.076042,-21.423532,-143.228306,187.748675,6.456768,4.378508,2.542369,-6.520373,-4.388716,-2.311145,6.278145,-0.267254,0.603494,-0.065566,9.389638,188.495682,0
0.077083,53.028642,-169.975427,151.321591,5.766858,2.283844,4.475069,-6.087534,-2.396460,-4.250017,5.975728,-0.267254,0.607871,-0.061832,30.414928,188.495774,0
0.078125,106.644641,-197.229947,67.707955,4.194768,-0.393065,6.129968,-4.994243,0.297865,-5.937088,4.926164,-0.238030,0.601142,-0.080503,46.610847,188.495732,0
0.079167,152.082698,-172.270799,-4.419886,2.814948,-2.555185,6.423643,-3.150946,2.473909,-6.344167,3.175703,-0.205153,0.593957,-0.076769,54.810597,188.420347,0
0.080208,182.911615,-122.098805,-73.026894,1.548228,-4.660500,5.935508,-0.617346,4.616872,-5.836367,0.706557,-0.179582,0.583635,-0.084238,64.650297,188.495725,0
0.081250,187.720835,-40.613107,-125.753220,0.507708,-5.800139,4.506817,1.692372,5.881330,-4.560573,-1.552675,-0.110175,0.571485,-0.031958,62.105547,188.495702,0
0.082292,158.309731,31.050815,-171.597917,-0.397092,-6.368184,2.597929,3.957314,6.333447,-2.684651,-3.698057,-0.066339,0.575404,-0.054364,44.473257,188.495693,0
0.083333,103.979154,97.544111,-180.732387,-0.544122,-5.661678,0.069941,5.539415,5.715921,-0.158242,-5.263510,-0.044421,0.589318,-0.046895,22.350898,188.420197,0
0.084375,20.384925,143.463627,-187.367804,-0.702462,-4.269969,-2.402487,6.390167,4.304433,2.280037,-6.120951,-0.000585,0.593499,-0.076769,-4.306771,188.495676,0
0.085417,-53.658918,170.307396,-150.891478,0.066618,-2.182406,-4.295501,5.990910,2.286446,4.277663,-5.807860,-0.029809,0.605846,-0.080503,-25.230271,188.495745,0
0.086458,-106.911958,197.163246,-67.856440,1.593468,0.498054,-5.966275,4.849111,-0.378473,5.922766,-4.790316,-0.048074,0.603559,-0.058098,-40.001131,188.495819,0
0.087500,-152.622235,172.385311,3.926705,2.939358,2.638872,-6.259950,3.050591,-2.565544,6.338239,-3.061202,-0.080951,0.601338,-0.043161,-50.609910,188.420423,0
0.088542,-183.269671,123.457650,72.607576,4.251318,4.804542,-5.775783,0.461020,-4.657046,5.872406,-0.542247,-0.146705,0.585399,-0.069301,-59.510880,188.495810,0
0.089583,-187.942781,41.319584,126.281819,5.212668,5.926430,-4.351062,-1.871086,-5.862692,4.504284,1.713428,-0.227071,0.554827,-0.069301,-57.282810,188.495645,0
0.090625,-158.985378,-30.404743,171.523296,6.140088,6.427019,-2.442173,-4.094982,-6.392000,2.678723,3.880157,-0.248989,0.605976,-0.069301,-41.064271,188.495656,0
0.091667,-104.167073,-97.490003,180.682387,6.343668,5.741815,0.101689,-5.647232,-5.763447,0.211067,5.417146,-0.281866,0.586640,-0.046895,-17.313271,188.344943,0
0.092708,-19.892294,-143.385358,187.637879,6.479388,4.378508,2.506651,-6.501716,-4.392392,-2.269178,6.206988,-0.322049,0.589841,-0.069301,9.672388,188.495602,0
0.093750,54.321687,-169.818375,150.939963,5.812098,2.283844,4.399666,-6.098728,-2.381757,-4.216444,5.979286,-0.270907,0.605192,-0.028224,29.792878,188.495705,0
0.094792,106.826121,-197.048733,67.744887,4.228698,-0.332711,6.058534,-4.997974,0.250081,-5.878334,4.936837,-0.278213,0.603037,-0.013287,45.253647,188.495703,0
0.095833,152.162096,-172.101666,-3.976705,2.848878,-2.505481,6.360146,-3.229305,2.415097,-6.356757,3.246860,-0.223418,0.600097,-0.061832,55.229067,188.344883,0
0.096875,182.854902,-123.270652,-72.645265,1.525608,-4.635648,5.939476,-0.639734,4.547032,-5.865744,0.781272,-0.146705,0.591213,-0.043161,64.209207,188.495759,0
0.097917,187.641437,-42.147382,-126.270266,0.530328,-5.800139,4.574283,1.684910,5.829869,-4.615130,-1.474403,-0.121134,0.594283,-0.054364,61.178127,188.495711,0
0.098958,158.536581,29.758159,-171.807197,-0.351852,-6.311379,2.637615,3.901343,6.322420,-2.709831,-3.616227,-0.059033,0.597811,-0.069301,44.846487,188.495843,0
0.100000,104.591649,97.749486,-180.436932,-0.498882,-5.668779,0.105658,5.490907,5.771057,-0.175029,-5.220815,-0.062686,0.566651,-0.054364,19.806148,188.420258,0
0.101042,19.931225,143.584436,-187.318561,-0.691152,-4.266419,-2.275492,6.300614,4.297081,2.246463,-6.071141,-0.007891,0.613685,-0.031958,-4.747861,188.495763,0
0.102083,-55.031361,169.799998,-151.125379,0.010068,-2.225009,-4.228035,5.953597,2.312176,4.227302,-5.811418,-0.044421,0.603755,-0.024490,-25.671361,188.495741,0
0.103125,-107.535795,196.885385,-67.216288,1.582158,0.373795,-5.902778,4.897619,-0.297606,5.864012,-4.790316,-0.026156,0.599379,-0.035692,-40.023751,188.495680,0
0.104167,-152.270617,172.639010,4.763826,2.950668,2.479110,-6.252013,3.110293,-2.506732,6.367616,-3.121686,-0.099216,0.596896,-0.031958,-49.840830,188.344985,0
0.105208,-182.827314,123.276437,72.829167,4.228698,4.744187,-5.783720,0.569230,-4.631316,5.893389,-0.656098,-0.121134,0.590625,-0.076769,-60.053760,188.495705,0
0.106250,-188.135604,42.684726,126.392614,5.303148,5.862525,-4.454245,-1.751682,-5.873719,4.663758,1.631597,-0.194194,0.595982,-0.058098,-54.760680,188.495676,0
0.107292,-158.747185,-29.051682,172.052652,6.140088,6.458971,-2.501702,-4.012892,-6.392000,2.716493,3.784095,-0.245336,0.608851,-0.043161,-39.684451,188.495743,0
0.108333,-105.630255,-97.067172,180.423864,6.309738,5.773768,0.022318,-5.636038,-5.859016,0.219461,5.402915,-0.263601,0.612248,-0.058098,-18.308551,188.344950,0
0.109375,-20.890434,-143.482005,187.256251,6.468078,4.417562,2.466965,-6.464402,-4.440177,-2.185244,6.231893,-0.296478,0.593042,-0.054364,9.898588,188.495658,0
0.110417,54.582564,-169.685486,151.296970,5.800788,2.340649,4.359980,-6.098728,-2.455272,-4.187067,5.954381,-0.256295,0.609047,-0.043161,30.833398,188.495812,0
0.111458,107.438616,-196.662144,66.846212,4.217388,-0.297208,6.054565,-5.031556,0.194944,-5.865744,4.919048,-0.263601,0.599575,-0.058098,46.746567,188.495653,0
0.112500,151.855848,-172.439932,-5.244697,2.837568,-2.416724,6.419675,-3.251693,2.400394,-6.339970,3.293112,-0.219765,0.594806,-0.076769,54.776667,188.345030,0
0.113542,182.412545,-122.606203,-73.150000,1.536918,-4.646299,5.955351,-0.710630,4.558060,-5.903514,0.823966,-0.172276,0.589384,-0.054364,64.503267,188.495790,0
0.114583,187.822918,-41.845359,-126.368750,0.541638,-5.771737,4.602064,1.632670,5.818842,-4.686473,-1.435266,-0.132093,0.588861,-0.039427,62.105547,188.495664,0
0.115625,158.457184,29.371570,-172.238069,-0.340542,-6.343332,2.693175,3.897612,6.322420,-2.760191,-3.644689,-0.066339,0.601012,-0.035692,44.654217,188.495732,0
0.116667,105.680529,97.350817,-180.523107,-0.544122,-5.714933,0.113595,5.531952,5.745327,-0.200209,-5.274183,-0.051727,0.605715,-0.080503,22.611028,188.344927,0
0.117708,21.462463,143.789812,-187.195455,-0.691152,-4.287721,-2.303272,6.337928,4.319136,2.271643,-6.099604,-0.018850,0.608459,-0.065566,-4.510351,188.495676,0
0.118750,-54.339468,170.234911,-150.879167,0.077928,-2.203707,-4.303439,5.942403,2.301149,4.239892,-5.818534,-0.037115,0.601404,-0.058098,-25.626121,188.495716,0
0.119792,-107.751303,197.090760,-66.465341,1.593468,0.448350,-5.926589,4.901350,-0.349067,5.905979,-4.779642,-0.037115,0.597745,-0.043161,-39.967201,188.495864,0
0.120833,-152.281960,172.409473,5.748674,2.984598,2.567867,-6.255982,3.072979,-2.561868,6.304665,-3.068318,-0.077298,0.595263,-0.058098,-50.451570,188.344867,0
0.121875,-182.861341,122.503259,73.604735,4.240008,4.772589,-5.819438,0.513259,-4.660722,5.901783,-0.570710,-0.161317,0.585138,-0.046895,-59.397780,188.495731,0
0.122917,-187.806671,41.017561,126.577273,5.303148,5.922879,-4.430433,-1.826310,-5.917828,4.613398,1.628040,-0.201500,0.586314,-0.095440,-57.237570,188.495660,0
0.123958,-158.837925,-29.933588,171.917235,6.174018,6.444770,-2.477890,-4.124833,-6.443460,2.720690,3.862367,-0.223418,0.606630,-0.009553,-41.245231,188.495747,0
0.125000,-105.335350,-97.308790,180.485417,6.366288,5.809271,0.065972,-5.680815,-5.825934,0.135527,5.395799,-0.292825,0.601077,-0.065566,-17.856151,188.344903,0
0.126042,-21.831862,-143.639056,187.391667,6.456768,4.382059,2.514588,-6.505447,-4.436501,-2.290162,6.263914,-0.307437,0.602645,-0.046895,9.434878,188.495579,0
0.127083,53.595767,-169.963346,150.976894,5.744238,2.312247,4.447289,-6.094997,-2.367054,-4.212247,5.968613,-0.289172,0.598072,-0.058098,29.894668,188.495825,0
