1-Time,2-VGERA,3-VGERB,4-VGERC,5-VN,6-IGERAN,7-IGERBN,8-IGERCN,9-IGERAT,10-IGERBT,11-IGERCT,12-IN,13-IFD,14-IFAULT,15-VFAULT,16-Speed (rad/s),17-Active Power,18-Reactive Power,19-FAULT 
0.000000,143.485083,68.537861,-169.123485,-0.340542,-4.919670,2.316159,2.763276,5.013853,-2.424456,-2.623587,-0.069992,0.565214,-0.031958,13.020148,188.495660,993.283611,1015.329768,0
0.001042,64.166977,125.511404,-187.810985,-0.691152,-4.664050,0.300119,4.408810,4.738171,-0.384863,-4.178366,-0.044421,0.531375,-0.020755,15.078568,188.495629,994.239901,1014.566494,0
0.002083,-10.217141,162.756831,-166.070455,-0.216132,-3.645120,-1.378592,4.822992,3.742043,1.327387,-4.658676,-0.022503,0.550515,-0.024490,15.146428,188.420189,994.870992,1013.895525,0
0.003125,-80.948974,183.548067,-114.513637,0.722598,-1.720870,-3.406539,4.767021,1.826977,3.366980,-4.569729,-0.044421,0.561686,-0.046895,16.775068,188.495655,995.952123,1012.666929,0
0.004167,-131.752034,184.937371,-33.546780,2.249448,-0.023837,-4.462182,3.972239,0.036887,4.437137,-3.907970,-0.077298,0.559922,-0.050629,16.085158,188.495702,995.580431,1011.973904,0
0.005208,-172.312816,153.224998,38.654924,3.617958,1.943018,-5.065407,2.628946,-1.826718,5.062444,-2.602240,-0.066339,0.559792,-0.050629,9.027718,188.495649,995.971492,1011.743460,0
0.006250,-174.490576,95.454115,110.475000,4.929918,3.718157,-4.787606,0.681171,-3.616809,4.881986,-0.759276,-0.143052,0.556656,-0.031958,3.089968,188.420202,996.446149,1011.006534,0
0.007292,-176.418801,9.764263,153.229735,5.755548,4.740637,-3.878800,-1.169588,-4.679100,4.009074,1.069458,-0.146705,0.562731,-0.017021,-2.712061,188.495703,996.857221,1010.806968,0
0.008333,-143.457494,-68.145487,169.024243,6.083538,5.031760,-2.188183,-2.912138,-5.028297,2.418528,2.766551,-0.205153,0.563711,-0.035692,-8.016451,188.495747,997.309440,1010.185126,0
0.009375,-64.218786,-125.167354,187.871781,6.456768,4.779690,-0.140394,-4.505433,-4.726885,0.274018,4.317772,-0.227071,0.551103,-0.046895,-9.577231,188.495698,997.783715,1009.736634,0
0.010417,10.267415,-162.690642,166.057387,6.060918,3.725257,1.514505,-4.960660,-3.756487,-1.379479,4.794523,-0.256295,0.579454,-0.058098,-10.662991,188.420300,998.229551,1009.431735,0
0.011458,80.885823,-183.348988,114.660606,5.110878,1.861361,3.566263,-4.960660,-1.856124,-3.377105,4.762503,-0.230724,0.562927,-0.058098,-11.816611,188.495629,998.959336,1009.313886,0
0.012500,131.189813,-184.955748,33.976894,3.572718,0.029418,4.629844,-4.094982,-0.077061,-4.514409,4.040260,-0.252642,0.562797,-0.043161,-10.787401,188.495687,999.197784,1009.726156,0
0.013542,171.966102,-153.074243,-38.409470,2.204208,-1.894833,5.185445,-2.710644,1.830653,-5.076766,2.723856,-0.208806,0.561751,-0.031958,-4.736551,188.495698,999.724997,1009.314708,0
0.014583,174.155204,-95.085903,-110.094129,0.847008,-3.659321,4.907644,-0.762869,3.653825,-4.988635,0.841755,-0.146705,0.556591,-0.031958,2.128618,188.344934,1001.426379,1009.705277,0
0.015625,176.162827,-9.335647,-152.910417,-0.012552,-4.681802,4.018682,1.091622,4.686711,-4.002412,-0.976304,-0.106522,0.558746,-0.035692,6.720478,188.495743,1002.723991,1009.336042,0
0.016667,143.303603,68.477456,-169.234281,-0.306612,-4.951623,2.339971,2.852828,4.999150,-2.424456,-2.648492,-0.062686,0.563580,-0.028224,12.579058,188.495747,1002.863162,1009.161200,0
0.017708,63.747305,125.306029,-188.217235,-0.725082,-4.639198,0.248527,4.449855,4.708765,-0.313519,-4.221060,-0.055380,0.563842,-0.039427,14.648788,188.495727,1003.773057,1008.332437,0
0.018750,-10.115059,162.938044,-166.267425,-0.250062,-3.620268,-1.430184,4.830454,3.690583,1.369354,-4.683581,-0.000585,0.528436,-0.054364,15.293458,188.344834,1004.578456,1007.705944,0
0.019792,-81.017029,183.838008,-114.525947,0.722598,-1.713769,-3.489879,4.770753,1.760814,3.417341,-4.626655,-0.022503,0.564560,-0.039427,16.899478,188.495658,1005.925130,1007.594263,0
0.020833,-131.627266,185.021937,-33.435985,2.238138,0.089772,-4.521711,3.920000,-0.036628,4.529464,-3.875949,-0.033462,0.558224,-0.043161,15.858958,188.495741,1007.515436,1006.962585,0
0.021875,-172.380871,153.647829,39.024243,3.606648,2.010473,-5.081281,2.520736,-1.878179,5.079231,-2.523968,-0.062686,0.561229,-0.024490,9.005098,188.495785,1008.479872,1006.094058,0
0.022917,-174.604001,95.152092,110.388826,4.907298,3.757210,-4.739983,0.599081,-3.712378,4.865200,-0.648982,-0.132093,0.554762,-0.017021,2.886388,188.344802,1010.147988,1004.876667,0
0.023958,-176.997268,9.655534,153.008144,5.755548,4.797441,-3.839114,-1.262873,-4.712182,3.925140,1.144172,-0.157664,0.560249,-0.061832,-2.406691,188.495740,1011.273453,1003.557705,0
0.025000,-143.230644,-68.254215,169.184281,6.060918,5.045961,-2.120717,-2.975571,-5.020945,2.305217,2.834150,-0.190541,0.555545,-0.050629,-8.378371,188.495667,1012.349436,1002.107805,0
0.026042,-63.481523,-124.599552,188.733523,6.535938,4.761938,-0.017368,-4.583792,-4.690128,0.198477,4.353350,-0.270907,0.539084,-0.080503,-9.599851,188.495734,1013.213206,1001.141556,0
0.027083,10.403525,-162.871856,165.749622,6.083538,3.700405,1.617688,-4.997974,-3.686648,-1.438233,4.830102,-0.245336,0.570374,-0.046895,-10.436791,188.344827,1014.103943,1000.304802,0
0.028125,80.670315,-183.892629,114.586743,5.065638,1.793906,3.613886,-4.900958,-1.804664,-3.427465,4.755387,-0.205153,0.559073,-0.069301,-12.008881,188.495846,1015.016502,999.711862,0
0.029167,131.269210,-184.557078,33.755303,3.584028,-0.027387,4.665561,-4.057669,0.033211,-4.547982,4.008239,-0.234377,0.558224,-0.028224,-9.701641,188.420318,1016.081269,998.581866,0
0.030208,171.875362,-153.642045,-38.680303,2.192898,-1.955188,5.189414,-2.636017,1.926223,-5.118733,2.670489,-0.183235,0.563254,-0.028224,-4.589521,188.495698,1017.745656,997.942269,0
0.031250,173.917012,-94.759719,-110.167993,0.847008,-3.680623,4.867959,-0.706899,3.701610,-4.892111,0.774156,-0.157664,0.557309,-0.020755,1.981588,188.420323,1018.051414,996.257642,0
0.032292,176.741295,-9.347728,-152.898107,0.032688,-4.696003,3.951216,1.188637,4.727144,-3.952052,-0.986978,-0.117481,0.564103,-0.050629,7.025848,188.495691,1018.710009,995.837350,0
0.033333,143.110781,68.562022,-169.086554,-0.272682,-4.905469,2.240756,2.912530,5.035907,-2.336325,-2.712533,-0.059033,0.562993,-0.050629,13.020148,188.420329,1019.968947,994.972700,0
0.034375,63.463742,124.919440,-188.734281,-0.736392,-4.639198,0.153281,4.442392,4.694062,-0.225389,-4.267312,-0.073645,0.563319,-0.080503,15.055948,188.495671,1021.186912,994.101499,0
0.035417,-10.205799,162.889721,-166.045834,-0.261372,-3.623819,-1.533367,4.841649,3.683231,1.440698,-4.687138,-0.044421,0.548882,-0.058098,15.180358,188.420305,1021.892845,993.643012,0
0.036458,-80.710782,184.164193,-114.427462,0.711288,-1.664065,-3.505753,4.793141,1.735084,3.455111,-4.615981,-0.044421,0.559204,-0.073035,16.876858,188.495626,1022.469150,993.223206,0
0.037500,-131.525184,184.973613,-33.571402,2.238138,0.111074,-4.505836,3.908806,-0.073385,4.550448,-3.858160,-0.015197,0.561033,-0.028224,16.017298,188.420307,1022.993868,992.734762,0
0.038542,-172.335501,153.696153,38.901136,3.595338,2.067277,-5.085250,2.509542,-1.944342,5.100214,-2.513294,-0.059033,0.561555,-0.073035,9.005098,188.495602,1023.957008,992.449833,0
0.039583,-174.558631,95.260820,110.327273,5.009088,3.796263,-4.739983,0.606544,-3.701351,4.861003,-0.645424,-0.102869,0.554958,-0.061832,3.022108,188.420262,1023.854120,992.327601,0
0.040625,-176.997268,9.510564,153.045076,5.732928,4.811642,-3.819271,-1.255410,-4.719534,3.937730,1.161962,-0.154011,0.559269,-0.073035,-2.666821,188.495633,1024.085381,992.435016,0
0.041667,-143.582262,-68.012597,169.147349,6.106158,5.028209,-2.116749,-3.005422,-5.050351,2.317807,2.795013,-0.172276,0.563319,-0.046895,-7.982521,188.420325,1023.964901,992.842474,0
0.042708,-63.436153,-124.623714,188.671970,6.456768,4.783240,-0.013399,-4.580061,-4.704831,0.194280,4.399602,-0.227071,0.547837,-0.031958,-9.588541,188.495662,1024.566398,993.067175,0
0.043750,10.346812,-162.787289,165.934281,6.038298,3.696855,1.574034,-5.001705,-3.763839,-1.446626,4.822986,-0.230724,0.589906,-0.069301,-10.685611,188.420296,1024.625843,993.845472,0
0.044792,80.590918,-183.808062,114.549811,5.065638,1.804557,3.637698,-4.964392,-1.808340,-3.423269,4.812312,-0.227071,0.556264,-0.061832,-11.839231,188.495763,1024.919502,994.401151,0
0.045833,131.144443,-184.822858,33.804546,3.572718,-0.034487,4.633812,-4.053937,0.022184,-4.535392,4.029586,-0.197847,0.559596,-0.031958,-10.742161,188.495734,1024.823192,994.680160,0
0.046875,171.852677,-153.593721,-38.520265,2.215518,-1.983590,5.201320,-2.624823,1.922547,-5.152306,2.638468,-0.205153,0.562731,-0.058098,-4.770481,188.495694,1025.166504,994.535173,0
0.047917,174.177889,-94.892609,-109.958712,0.835698,-3.684173,4.899707,-0.677048,3.734692,-4.887915,0.777714,-0.132093,0.555415,-0.058098,2.173858,188.344961,1025.616307,994.515801,0
0.048958,176.605185,-9.226919,-152.811932,0.043998,-4.713754,3.939310,1.169981,4.701414,-3.918479,-1.011883,-0.106522,0.558812,-0.073035,6.686548,188.495721,1025.475032,993.811179,0
0.050000,143.269576,68.272081,-169.209660,-0.329232,-4.965824,2.244725,2.905068,5.043259,-2.382489,-2.740996,-0.073645,0.561555,-0.046895,12.579058,188.420224,1025.808313,994.276998,0
0.051042,63.191522,124.822792,-188.758902,-0.691152,-4.688902,0.141375,4.502094,4.686711,-0.204405,-4.267312,-0.051727,0.564952,-0.076769,14.558308,188.495718,1025.868587,994.012230,0
0.052083,-10.228484,163.022611,-166.082766,-0.250062,-3.559914,-1.529398,4.908813,3.639122,1.436502,-4.687138,-0.033462,0.573445,-0.035692,15.338698,188.344862,1025.854277,993.568476,0
0.053125,-80.665412,184.079626,-114.464394,0.745218,-1.614361,-3.561313,4.815529,1.694650,3.463504,-4.619539,-0.059033,0.563058,-0.061832,16.956028,188.495745,1026.166609,993.126590,0
0.054167,-131.275649,185.058180,-33.571402,2.215518,0.174979,-4.565365,3.923732,-0.110143,4.537857,-3.797677,-0.026156,0.558420,-0.061832,15.802408,188.420211,1026.207335,992.018541,0
0.055208,-172.358186,154.022337,38.987311,3.595338,2.124082,-5.065407,2.468497,-1.970073,5.096018,-2.491947,-0.080951,0.558681,-0.054364,9.027718,188.495756,1026.587972,991.666170,0
0.056250,-174.649371,94.995040,110.179546,4.929918,3.799813,-4.720140,0.505797,-3.752811,4.835823,-0.609846,-0.113828,0.553259,-0.050629,2.841148,188.420200,1027.225180,991.060947,0
0.057292,-177.337543,9.474321,152.885038,5.789478,4.836494,-3.791491,-1.292724,-4.715858,3.912550,1.186867,-0.143052,0.556787,-0.046895,-2.384071,188.495718,1027.483891,990.576857,0
0.058333,-143.332727,-68.109245,169.368940,6.083538,5.017559,-2.037377,-3.057662,-5.028297,2.217086,2.869728,-0.183235,0.551561,-0.043161,-8.367061,188.420347,1028.483434,989.141380,0
0.059375,-63.141248,-124.176720,189.225948,6.524628,4.705134,0.002475,-4.583792,-4.701155,0.131330,4.413834,-0.241683,0.553194,-0.050629,-9.509371,188.495770,1029.188827,988.538388,0
0.060417,10.324127,-162.896017,165.885038,6.038298,3.647151,1.621657,-5.005437,-3.671945,-1.463413,4.830102,-0.223418,0.573640,-0.046895,-10.448101,188.420260,1029.462449,987.446395,0
0.061458,80.398095,-184.073842,114.537500,5.065638,1.751303,3.661509,-4.893496,-1.742176,-3.498809,4.730482,-0.252642,0.563580,-0.050629,-12.031501,188.498070,1030.203176,985.877500,0
0.062500,131.212498,-184.569159,33.718371,3.561408,-0.027387,4.657624,-4.046475,0.084672,-4.556376,3.994008,-0.205153,0.558158,-0.039427,-9.701641,188.420216,1030.787848,985.040462,0
0.063542,171.829992,-153.931987,-38.631061,2.204208,-1.994241,5.165602,-2.580046,1.922547,-5.127126,2.645584,-0.161317,0.558681,-0.061832,-4.657381,188.495651,1030.630095,984.957386,0
0.064583,173.951039,-94.735557,-109.909470,0.847008,-3.691274,4.840179,-0.624808,3.727340,-4.858538,0.727904,-0.139399,0.552606,-0.058098,1.925038,188.420292,1030.606179,984.100541,0
0.065625,176.956802,-9.190676,-152.836553,0.021378,-4.713754,3.943279,1.181175,4.719793,-3.939462,-1.051019,-0.102869,0.555154,-0.069301,7.003228,188.495703,1031.301001,984.231659,0
0.066667,142.940643,68.477456,-169.012690,-0.306612,-4.951623,2.212976,2.938650,5.024880,-2.327932,-2.712533,-0.062686,0.552410,-0.046895,13.020148,188.420390,1030.854531,983.536605,0
0.067708,63.293605,124.617417,-188.906629,-0.747702,-4.639198,0.153281,4.524482,4.675684,-0.208602,-4.277986,-0.048074,0.546661,-0.076769,15.010708,188.495660,1030.971773,983.422755,0
0.068750,-10.217141,162.829316,-166.033523,-0.317922,-3.567014,-1.497650,4.837917,3.609716,1.386141,-4.640886,-0.029809,0.568023,-0.069301,15.169048,188.495674,1029.952336,982.995301,0
0.069792,-80.393192,184.188355,-114.476705,0.733908,-1.621462,-3.525596,4.778215,1.709353,3.396357,-4.576845,-0.029809,0.556395,-0.061832,16.865548,188.495749,1028.853902,982.747968,0
0.070833,-131.230279,185.021937,-33.829924,2.272068,0.153677,-4.505836,3.878955,-0.121170,4.533661,-3.822582,-0.059033,0.559857,-0.065566,16.017298,188.420265,1029.012397,982.865110,0
0.071875,-172.290131,153.816962,38.704167,3.629268,2.085029,-5.069375,2.472229,-1.911261,5.012084,-2.488389,-0.084604,0.555611,-0.054364,9.072958,188.495749,1027.583974,982.324401,0
0.072917,-174.615343,95.309144,110.019508,4.975158,3.803363,-4.724108,0.576693,-3.716054,4.852609,-0.620520,-0.117481,0.552998,-0.039427,3.033418,188.420318,1027.273635,982.512549,0
0.073958,-177.190091,9.498483,152.774243,5.732928,4.822293,-3.799428,-1.311380,-4.708506,3.883173,1.183309,-0.154011,0.557962,-0.054364,-2.610271,188.495658,1027.085759,982.096051,0
0.075000,-143.763742,-67.855546,169.270455,6.049608,5.003357,-2.136592,-2.994228,-5.013594,2.246463,2.844823,-0.208806,0.557832,-0.035692,-7.925971,188.420256,1026.727372,982.270015,0
0.076042,-63.504208,-124.370015,188.819698,6.468078,4.708684,-0.001494,-4.609911,-4.708506,0.190084,4.406718,-0.238030,0.560575,-0.058098,-9.565921,188.495781,1026.216700,982.823910,0
0.077083,10.278757,-162.787289,166.217425,6.072228,3.668453,1.605783,-4.968123,-3.701351,-1.467610,4.812312,-0.241683,0.542219,-0.099175,-10.696921,188.420197,1026.176886,983.001358,0
0.078125,80.454808,-184.025519,114.660606,5.099568,1.769054,3.633729,-4.927078,-1.789961,-3.465236,4.773176,-0.216112,0.574424,-0.050629,-11.861851,188.495723,1025.857074,983.956042,0
0.079167,131.008333,-184.943667,33.939962,3.584028,-0.027387,4.641749,-4.042743,0.025860,-4.594146,4.001123,-0.245336,0.559400,-0.050629,-10.776091,188.420291,1025.971186,984.599813,0
0.080208,171.864019,-153.666207,-38.286364,2.215518,-1.958738,5.169571,-2.594972,1.885789,-5.093552,2.613563,-0.164970,0.561359,-0.058098,-4.793101,188.495640,1025.307217,984.038315,0
0.081250,174.200574,-95.194631,-109.490909,0.835698,-3.698375,4.875896,-0.636003,3.697934,-4.829161,0.777714,-0.179582,0.552998,-0.073035,2.162548,188.420363,1024.698460,984.094795,0
0.082292,176.661897,-9.311485,-152.602652,0.010068,-4.742156,3.915499,1.196100,4.719793,-3.931069,-1.033230,-0.095563,0.559073,-0.043161,6.675238,188.495711,1024.442603,983.984679,0
0.083333,143.280918,68.284162,-169.209660,-0.317922,-4.951623,2.236788,2.912530,5.021204,-2.319539,-2.755228,-0.088257,0.555676,-0.073035,12.545128,188.420341,1025.107042,983.744309,0
0.084375,63.338975,124.653660,-188.758902,-0.691152,-4.642749,0.113595,4.479706,4.642602,-0.187619,-4.224618,-0.044421,0.572530,-0.061832,14.580928,188.495707,1024.484156,983.061515,0
0.085417,-10.092374,162.877640,-166.255114,-0.250062,-3.549263,-1.505587,4.875231,3.631771,1.428108,-4.704928,-0.022503,0.563123,-0.035692,15.327388,188.420254,1025.659339,983.495425,0
0.086458,-80.415877,184.055465,-114.722917,0.722598,-1.596610,-3.549408,4.796872,1.679947,3.429931,-4.608866,-0.015197,0.552475,-0.035692,16.922098,188.495797,1026.454708,983.416061,0
0.087500,-131.173566,185.178989,-33.879167,2.215518,0.189180,-4.541554,3.912537,-0.113819,4.554644,-3.847487,-0.059033,0.558224,-0.009553,15.813718,188.420269,1026.750714,983.834904,0
0.088542,-172.188048,153.974014,38.494886,3.617958,2.124082,-5.061438,2.442378,-1.988451,5.096018,-2.449253,-0.084604,0.555284,-0.005818,9.106888,188.495707,1028.511099,983.622686,0
0.089583,-174.683398,95.357467,109.847159,4.952538,3.796263,-4.704266,0.531916,-3.719730,4.823233,-0.599172,-0.117481,0.553455,-0.069301,2.909008,188.420318,1028.567502,983.057309,0
0.090625,-177.326201,9.703858,152.761932,5.744238,4.857796,-3.799428,-1.348694,-4.723209,3.908354,1.211772,-0.161317,0.558877,-0.076769,-2.338832,188.495685,1029.114828,983.205482,0
0.091667,-143.582262,-67.819303,169.307387,6.060918,5.028209,-2.085000,-3.035273,-4.991539,2.254857,2.841265,-0.179582,0.546073,-0.054364,-8.344441,188.420305,1028.819253,983.124155,0
0.092708,-63.526893,-124.043830,189.065910,6.513318,4.680282,0.050098,-4.572598,-4.638667,0.127133,4.403160,-0.190541,0.532747,-0.050629,-9.543301,188.495785,1029.046852,981.713500,0
0.093750,10.335470,-162.678561,166.118940,6.060918,3.622299,1.633563,-4.949466,-3.631512,-1.517970,4.808755,-0.248989,0.546073,-0.024490,-10.482031,188.420301,1029.511631,980.575226,0
0.094792,80.148560,-183.953033,114.845266,5.099568,1.754853,3.653572,-4.889764,-1.753203,-3.427465,4.748271,-0.270907,0.540586,-0.050629,-12.008881,188.495754,1029.140300,979.857551,0
0.095833,130.996990,-184.665807,34.063068,3.595338,-0.030937,4.645718,-4.027818,0.033211,-4.556376,3.990450,-0.205153,0.560118,-0.065566,-9.735571,188.420555,1028.694879,979.472167,0
0.096875,171.807307,-153.823259,-38.163258,2.226828,-1.990691,5.149728,-2.591240,1.918871,-5.080962,2.634910,-0.197847,0.556199,-0.005818,-4.600831,188.495676,1028.955656,979.437093,0
0.097917,173.996409,-95.206712,-109.515531,0.801768,-3.694824,4.848116,-0.658391,3.690583,-4.875324,0.781272,-0.139399,0.553063,-0.043161,1.947658,188.495797,1029.056867,979.923725,0
0.098958,176.718610,-9.383970,-152.627273,0.021378,-4.713754,3.931373,1.218488,4.730820,-3.973036,-1.029672,-0.106522,0.561555,-0.069301,6.980608,188.495655,1029.217994,980.499037,0
0.100000,143.417028,68.284162,-168.988069,-0.295302,-4.909019,2.264568,2.882679,5.021204,-2.353112,-2.712533,-0.077298,0.538234,-0.039427,12.986218,188.420338,1028.606194,980.933061,0
0.101042,63.633880,124.726145,-188.561932,-0.702462,-4.621447,0.161218,4.461049,4.679359,-0.254766,-4.274428,-0.044421,0.555872,-0.054364,15.044638,188.495626,1028.853466,982.007714,0
0.102083,-10.047004,162.636022,-166.464394,-0.261372,-3.581215,-1.422247,4.845380,3.650149,1.419715,-4.658676,-0.037115,0.581022,-0.046895,15.180358,188.495577,1028.349786,981.897643,0
0.103125,-80.268424,183.946737,-114.796781,0.745218,-1.667615,-3.466067,4.781947,1.764490,3.404750,-4.555498,-0.033462,0.556068,-0.069301,16.842928,188.495653,1027.312152,982.232369,0
0.104167,-131.082826,185.130665,-34.162311,2.238138,0.174979,-4.509805,3.897612,-0.099116,4.508481,-3.833255,-0.055380,0.558224,-0.061832,16.085158,188.420339,1026.681122,981.932162,0
0.105208,-172.188048,153.647829,38.125568,3.572718,2.056626,-5.029689,2.520736,-1.911261,5.033067,-2.516852,-0.062686,0.558616,-0.050629,9.005098,188.495721,1025.077548,982.454439,0
0.106250,-174.706083,95.647409,109.810228,4.929918,3.735908,-4.712203,0.599081,-3.701351,4.840019,-0.673887,-0.135746,0.554239,-0.065566,3.044728,188.495749,1024.571842,983.334251,0
0.107292,-176.940556,9.764263,152.725000,5.766858,4.783240,-3.811334,-1.251679,-4.704831,3.908354,1.140615,-0.175929,0.555219,-0.065566,-2.689441,188.495741,1023.583250,983.656893,0
0.108333,-144.001935,-67.710575,169.282766,6.106158,4.996257,-2.160403,-2.945720,-5.013594,2.363971,2.805687,-0.183235,0.558028,-0.084238,-7.925971,188.420361,1023.097473,985.137346,0
0.109375,-64.105361,-124.442500,188.290341,6.513318,4.744187,-0.029274,-4.535284,-4.671749,0.248837,4.367582,-0.248989,0.563776,-0.046895,-9.565921,188.495781,1021.842215,986.466739,0
0.110417,9.949825,-162.497348,166.463637,6.083538,3.703956,1.542285,-4.934541,-3.727081,-1.408856,4.790965,-0.248989,0.548752,-0.050629,-10.696921,188.495788,1020.652947,987.940282,0
