1-Time,2-VGERA,3-VGERB,4-VGERC,5-VN,6-IGERAN,7-IGERBN,8-IGERCN,9-IGERAT,10-IGERBT,11-IGERCT,12-IN,13-IFD,14-IFAULT,15-VFAULT,16-Speed (rad/s),17-Active Power,18-Reactive Power,19-FAULT 
0.000000,-60.634556,-89.625335,196.587690,6.569868,-2.530333,6.264900,-2.945720,2.999542,-6.197283,3.029831,-0.190541,0.182474,0.016587,-54.771990,188.495743,970.997130,-1285.348601,0
0.001042,-17.896014,-158.921400,153.832955,5.778168,-4.408430,5.665644,-0.594957,4.833741,-5.592959,0.759925,-0.139399,0.209388,-0.043161,-13.060711,188.495703,971.701452,-1285.620530,0
0.002083,32.419318,-206.737618,91.615152,4.669788,-5.746885,4.232985,1.934911,6.164362,-4.304574,-1.691431,-0.106522,0.180123,0.001650,37.675948,188.571149,972.383299,-1285.498841,0
0.003125,107.393246,-177.296455,44.773296,3.742368,-6.148067,2.284411,4.102837,6.656913,-2.315342,-3.801235,-0.048074,0.177248,-0.046895,113.385086,188.495627,971.705484,-1285.973764,0
0.004167,181.403062,-128.719140,-0.468182,2.894118,-5.477064,0.208841,5.211054,6.072469,-0.313519,-4.982440,-0.026156,0.189987,-0.065566,180.826614,188.495749,971.605256,-1285.790722,0
0.005208,190.477063,-73.328195,-61.405682,1.751808,-3.851036,-2.366770,6.035687,4.411030,2.275840,-5.683336,-0.011544,0.191620,-0.039427,188.347764,188.495830,971.047812,-1285.533964,0
0.006250,168.722147,-26.224750,-147.075190,0.134478,-2.178855,-4.101041,5.845387,2.687103,4.130778,-5.686893,-0.000585,0.201353,-0.035692,165.614665,188.571114,970.668549,-1285.790073,0
0.007292,113.518197,19.948465,-193.055304,-0.781632,0.274387,-5.057470,4.319257,0.297865,5.041461,-4.142788,-0.040768,0.211544,-0.031958,108.725366,188.495682,969.849542,-1285.602640,0
0.008333,60.594089,89.848575,-196.637690,-0.826872,2.653073,-6.049615,2.822977,-2.150184,6.136797,-2.787248,-0.073645,0.194886,-0.046895,59.357217,188.495698,969.569731,-1286.140042,0
0.009375,17.583328,158.601000,-153.993750,-0.046482,4.524070,-5.462265,0.461020,-3.966005,5.549260,-0.513784,-0.095563,0.188680,-0.050629,17.419738,188.495749,968.974661,-1285.730758,0
0.010417,-32.561867,207.033344,-90.692614,1.095828,5.812821,-4.065324,-2.087505,-5.326032,4.290253,1.866415,-0.168623,0.180515,-0.017021,-32.853211,188.571132,969.651463,-1285.145824,0
0.011458,-107.274918,177.628424,-43.703030,2.068488,6.260156,-2.128655,-4.169610,-5.719338,2.355577,3.954871,-0.216112,0.176073,-0.024490,-108.223049,188.495743,969.331923,-1283.877828,0
0.012500,-181.704406,128.640358,0.910606,2.894118,5.592704,-0.100708,-5.292752,-5.175327,0.315985,5.175213,-0.205153,0.189725,-0.013287,-176.365798,188.495835,968.820716,-1283.301274,0
0.013542,-190.755722,73.660164,61.663447,4.059048,3.984428,2.506651,-6.113654,-3.561672,-2.256588,5.876109,-0.267254,0.190705,-0.043161,-183.344068,188.495743,968.629396,-1282.300436,0
0.014583,-169.136916,27.088279,147.529925,5.642448,2.329998,4.288545,-5.942011,-1.881855,-4.073756,5.826299,-0.274560,0.200700,-0.054364,-161.040748,188.571089,967.592273,-1281.220291,0
0.015625,-114.511433,-19.338635,192.475948,6.524628,-0.158747,5.213225,-4.386029,0.459598,-5.005422,4.364024,-0.238030,0.206579,-0.050629,-104.513369,188.495774,967.096933,-1279.807527,0
0.016667,-61.428531,-89.697820,196.686175,6.592488,-2.558735,6.201403,-2.938258,3.003217,-6.146922,3.004926,-0.234377,0.198610,-0.046895,-54.919020,188.495671,966.384166,-1279.724629,0
0.017708,-18.043466,-158.136141,154.374622,5.823408,-4.355176,5.578335,-0.587495,4.804335,-5.576172,0.756367,-0.146705,0.189138,-0.028224,-12.506521,188.495725,965.914675,-1279.454561,0
0.018750,32.544086,-207.015479,91.048864,4.635858,-5.665229,4.193299,1.953568,6.149659,-4.275197,-1.698547,-0.062686,0.173133,-0.046895,37.789048,188.571011,965.666096,-1279.167462,0
0.019792,107.075656,-177.586397,43.788447,3.742368,-6.080611,2.300285,4.046867,6.627507,-2.348915,-3.790561,-0.040768,0.175158,-0.024490,112.842206,188.571105,966.003929,-1278.535575,0
0.020833,181.573200,-128.260066,-0.923674,2.894118,-5.487715,0.260433,5.155084,6.068793,-0.275749,-5.000229,-0.015197,0.190183,-0.058098,181.075434,188.495645,965.847403,-1278.747463,0
0.021875,190.420350,-72.458370,-61.516477,1.729188,-3.836835,-2.323115,5.994642,4.388975,2.271643,-5.658431,0.014027,0.190705,-0.013287,188.098944,188.495720,965.633757,-1278.122168,0
0.022917,168.722147,-25.753595,-147.296781,0.123168,-2.129152,-4.045481,5.841656,2.727536,4.076221,-5.672662,0.028639,0.212981,-0.054364,165.987895,188.571093,966.222318,-1277.168623,0
0.023958,113.881157,20.057193,-192.685985,-0.781632,0.270837,-5.069375,4.319257,0.349326,5.007887,-4.171251,-0.015197,0.187308,-0.035692,109.664096,188.571075,966.800084,-1276.556821,0
0.025000,61.308667,89.969384,-196.576137,-0.804252,2.681475,-6.037710,2.871485,-2.109751,6.120011,-2.847732,-0.095563,0.187178,-0.013287,60.047127,188.495678,967.495125,-1276.163337,0
0.026042,18.071055,158.818456,-154.116857,-0.035172,4.531170,-5.486077,0.487140,-3.921896,5.553457,-0.599172,-0.150358,0.186916,-0.013287,17.679868,188.571105,968.368188,-1275.442703,0
0.027083,-32.550525,206.876292,-91.209659,1.129758,5.848324,-4.061355,-2.053923,-5.303978,4.273466,1.909109,-0.146705,0.177706,-0.020755,-32.898451,188.571113,967.693662,-1275.702292,0
0.028125,-107.558480,177.628424,-44.072349,2.023248,6.260156,-2.120717,-4.233043,-5.778150,2.338790,3.983334,-0.227071,0.175223,-0.069301,-108.381389,188.571187,967.869548,-1276.652656,0
0.029167,-181.602324,128.724924,1.292235,2.882808,5.617556,-0.072928,-5.341260,-5.167975,0.274018,5.168097,-0.234377,0.187178,-0.031958,-176.037808,188.495745,967.498210,-1276.762603,0
0.030208,-190.778407,72.681611,61.872727,4.059048,4.016380,2.518557,-6.121116,-3.565348,-2.298555,5.922361,-0.248989,0.187635,-0.028224,-183.389308,188.495622,967.753968,-1277.292837,0
0.031250,-169.307053,25.988917,147.049811,5.665068,2.326448,4.272671,-5.968130,-1.918612,-4.107330,5.868993,-0.234377,0.201027,-0.046895,-161.142538,188.571033,968.590948,-1277.555085,0
0.032292,-113.297786,-19.688981,192.919129,6.547248,-0.133895,5.276723,-4.419612,0.485329,-5.051586,4.349792,-0.223418,0.215986,-0.017021,-103.834769,188.571053,968.599126,-1277.784891,0
0.033333,-60.509788,-89.649496,196.538448,6.581178,-2.540984,6.193466,-2.934526,2.995866,-6.138529,3.029831,-0.186888,0.189072,-0.020755,-54.964260,188.495734,968.960924,-1277.239779,0
0.034375,-17.771246,-158.667701,154.177652,5.800788,-4.376478,5.606115,-0.606152,4.796983,-5.550992,0.735020,-0.143052,0.189203,-0.031958,-12.857131,188.495653,968.762305,-1277.053482,0
0.035417,32.498716,-206.580566,91.824432,4.647168,-5.643927,4.236954,1.919986,6.145984,-4.237427,-1.666527,-0.088257,0.177444,-0.046895,37.800358,188.571138,968.347239,-1276.836692,0
0.036458,107.495329,-177.477669,44.625568,3.731058,-6.091262,2.264568,4.095375,6.598101,-2.353112,-3.762098,-0.026156,0.177379,-0.046895,113.305916,188.571174,968.220260,-1276.475681,0
0.037500,181.300980,-128.839949,-0.911364,2.882808,-5.430910,0.220747,5.192397,6.043063,-0.305126,-4.996671,-0.022503,0.190052,-0.046895,180.849234,188.495797,968.132511,-1276.289957,0
0.038542,190.443035,-72.567098,-61.528788,1.706568,-3.840386,-2.323115,5.998373,4.403678,2.267447,-5.647757,-0.011544,0.188550,-0.005818,188.245974,188.495682,968.258025,-1276.195770,0
0.039583,168.722147,-25.898566,-147.124432,0.111858,-2.161104,-4.105009,5.774491,2.654021,4.088811,-5.647757,-0.022503,0.202856,-0.017021,165.727765,188.646360,967.150863,-1276.439253,0
0.040625,113.654307,20.274649,-192.759849,-0.770322,0.306339,-5.077312,4.240898,0.308893,5.049854,-4.174808,-0.015197,0.205273,-0.017021,108.849776,188.571158,967.062219,-1277.101135,0
0.041667,60.253814,90.066032,-196.686932,-0.792942,2.670825,-6.025804,2.778201,-2.139157,6.120011,-2.790806,-0.037115,0.199394,-0.054364,59.131017,188.495678,966.492081,-1277.123983,0
0.042708,17.243053,158.371463,-154.227652,-0.035172,4.477916,-5.394799,0.438632,-3.984384,5.549260,-0.524458,-0.113828,0.189334,-0.028224,17.182228,188.495705,965.737699,-1277.954760,0
0.043750,-32.686635,206.985020,-90.828031,1.141068,5.812821,-4.041512,-2.065117,-5.259869,4.252482,1.869973,-0.172276,0.181299,-0.039427,-33.068101,188.642257,965.748771,-1276.988364,0
0.044792,-107.263575,177.725071,-43.949243,2.068488,6.228203,-2.132623,-4.132296,-5.715662,2.305217,3.940640,-0.212459,0.176791,-0.084238,-108.268289,188.560016,964.998150,-1276.089087,0
0.045833,-181.761119,128.821572,1.132197,2.882808,5.592704,-0.080865,-5.289021,-5.212084,0.311788,5.146750,-0.238030,0.189791,-0.039427,-176.433658,188.481993,965.758095,-1275.898527,0
0.046875,-190.687667,73.684326,61.848106,4.059048,3.995078,2.514588,-6.091265,-3.521239,-2.264982,5.872551,-0.270907,0.191816,-0.013287,-183.264898,188.704083,965.034250,-1275.368202,0
0.047917,-169.159601,26.750014,147.566857,5.676378,2.322897,4.260765,-5.945742,-1.841421,-4.128313,5.836972,-0.259948,0.204685,-0.028224,-161.018128,188.633114,963.877238,-1275.853457,0
0.048958,-114.375323,-19.725224,192.389773,6.490698,-0.140996,5.197351,-4.389761,0.477977,-4.997029,4.335561,-0.205153,0.212655,-0.024490,-104.524679,188.552117,963.489794,-1275.441015,0
0.050000,-60.952146,-89.963600,196.698485,6.581178,-2.491280,6.181560,-2.923332,2.981163,-6.100759,2.990695,-0.175929,0.190967,-0.054364,-54.500550,188.480407,962.941588,-1275.199350,0
0.051042,-17.487684,-158.087818,154.436175,5.834718,-4.333874,5.594209,-0.606152,4.771253,-5.521615,0.720789,-0.135746,0.191424,-0.039427,-12.144601,188.569027,962.423195,-1274.764498,0
0.052083,32.691538,-206.930913,90.913447,4.624548,-5.654578,4.181394,1.934911,6.149659,-4.203854,-1.716336,-0.099216,0.183520,-0.035692,38.003938,188.561761,961.965065,-1274.928598,0
0.053125,107.086999,-177.646801,43.579167,3.742368,-6.048659,2.268536,4.043135,6.616480,-2.323735,-3.715846,-0.011544,0.175289,-0.005818,112.898756,188.569970,962.046698,-1274.411712,0
0.054167,181.357692,-128.308389,-1.096023,2.882808,-5.445111,0.264401,5.158815,6.024684,-0.296733,-4.946861,-0.011544,0.191489,-0.028224,181.052814,188.478359,961.805991,-1273.595003,0
0.055208,190.397665,-72.446289,-61.664205,1.751808,-3.794232,-2.370738,5.946134,4.396327,2.267447,-5.679778,0.010374,0.190771,-0.024490,187.940604,188.640958,961.950461,-1273.853104,0
0.056250,168.654092,-26.079780,-147.370644,0.134478,-2.143353,-4.093104,5.796879,2.701806,4.072025,-5.654873,-0.022503,0.211609,-0.046895,165.931345,188.567139,962.572608,-1273.597362,0
0.057292,114.244117,20.178002,-192.575190,-0.747702,0.313440,-5.041595,4.274480,0.319920,5.054051,-4.110767,-0.051727,0.208016,-0.050629,109.652786,188.569342,961.885519,-1273.547177,0
0.058333,61.217927,90.271407,-196.613069,-0.849492,2.677925,-5.990087,2.815515,-2.102400,6.124207,-2.805037,-0.106522,0.182670,-0.028224,59.775687,188.491160,962.166211,-1273.513023,0
0.059375,17.742123,158.818456,-154.190720,-0.069102,4.499218,-5.446391,0.502065,-3.892490,5.536670,-0.574268,-0.110175,0.191293,-0.017021,17.329258,188.638921,962.623732,-1272.332654,0
0.060417,-32.970197,206.840050,-91.135796,1.129758,5.837673,-4.069292,-2.027803,-5.281923,4.256679,1.869973,-0.139399,0.182932,-0.031958,-33.090721,188.561598,962.778451,-1272.602688,0
0.061458,-107.739960,177.712990,-43.641477,2.068488,6.242405,-2.132623,-4.210655,-5.745068,2.347184,3.997566,-0.205153,0.176464,-0.035692,-108.494489,188.568127,963.513506,-1273.271041,0
0.062500,-181.579639,128.688682,1.698485,2.894118,5.628206,-0.064991,-5.322603,-5.197381,0.307591,5.196560,-0.234377,0.188092,-0.024490,-176.060428,188.491171,963.504156,-1273.618752,0
0.063542,-190.733037,72.597044,61.995834,4.081668,4.016380,2.538400,-6.094997,-3.576375,-2.252391,5.868993,-0.267254,0.190183,-0.024490,-183.355378,188.710813,964.375489,-1273.134570,0
0.064583,-169.216313,25.807703,147.012879,5.653758,2.376152,4.264734,-5.945742,-1.896558,-4.065363,5.879666,-0.259948,0.227679,-0.031958,-161.153848,188.565265,965.488832,-1272.257596,0
0.065625,-113.433896,-20.063489,192.783713,6.490698,-0.130345,5.244974,-4.430806,0.481653,-5.013815,4.364024,-0.234377,0.209911,-0.013287,-104.140139,188.567597,966.046593,-1272.243020,0
0.066667,-60.498446,-89.987762,196.563069,6.592488,-2.501931,6.217277,-2.930795,2.948081,-6.134332,3.008484,-0.168623,0.191489,-0.031958,-54.975570,188.492200,966.686557,-1271.994648,0
0.067708,-17.759904,-158.716025,154.239205,5.823408,-4.355176,5.594209,-0.613614,4.782280,-5.550992,0.770599,-0.117481,0.187831,-0.024490,-12.563071,188.643266,967.594359,-1272.100429,0
0.068750,32.975101,-206.665133,91.775190,4.658478,-5.668779,4.244891,1.938643,6.142308,-4.258411,-1.652295,-0.095563,0.187504,-0.050629,38.196208,188.567461,968.571114,-1271.746644,0
0.069792,107.563384,-177.513911,43.776136,3.731058,-6.148067,2.320128,4.065524,6.605453,-2.332129,-3.747867,-0.033462,0.177052,-0.058098,113.430326,188.567023,968.591400,-1271.997767,0
0.070833,181.414405,-128.719140,-1.206818,2.871498,-5.452212,0.232653,5.188666,6.046738,-0.284143,-4.953977,-0.048074,0.191424,-0.043161,180.860544,188.492173,968.765277,-1272.409572,0
0.071875,190.465720,-72.820797,-61.848864,1.729188,-3.897190,-2.331052,5.972254,4.396327,2.242267,-5.694009,-0.022503,0.193449,-0.017021,188.313834,188.567423,969.024350,-1272.452885,0
0.072917,168.586037,-25.511977,-147.321402,0.123168,-2.136252,-4.120884,5.796879,2.676076,4.051041,-5.651315,-0.011544,0.202594,-0.039427,165.637285,188.554199,968.876088,-1272.106270,0
0.073958,113.382087,20.480024,-192.722917,-0.736392,0.281487,-5.037627,4.300600,0.330947,4.986904,-4.174808,-0.048074,0.194429,-0.046895,108.759296,188.566989,969.638549,-1271.167296,0
0.075000,60.049649,90.307650,-196.600758,-0.838182,2.642422,-6.037710,2.834172,-2.076669,6.132601,-2.808595,-0.088257,0.162485,-0.013287,59.051847,188.495671,970.050067,-1270.571719,0
0.076042,17.050230,158.576838,-154.104546,-0.012552,4.477916,-5.422579,0.490871,-3.951302,5.503097,-0.528016,-0.117481,0.187374,-0.039427,17.125678,188.571051,969.330002,-1271.030475,0
0.077083,-32.992882,206.948778,-91.061932,1.118448,5.837673,-4.041512,-2.031535,-5.256193,4.273466,1.880647,-0.168623,0.175093,-0.039427,-33.328231,188.646489,969.390505,-1270.882716,0
0.078125,-107.762645,177.700909,-43.998485,2.068488,6.256606,-2.140560,-4.184535,-5.708310,2.322004,3.940640,-0.205153,0.178424,-0.035692,-108.664139,188.571078,968.958434,-1270.121607,0
0.079167,-182.010654,128.894057,1.329167,2.928048,5.606905,-0.064991,-5.300215,-5.175327,0.303394,5.139634,-0.241683,0.192404,-0.024490,-176.591998,188.495812,968.670031,-1269.602311,0
0.080208,-190.710352,73.466869,62.229735,4.047738,3.977327,2.474903,-6.057683,-3.532266,-2.239801,5.840530,-0.274560,0.192796,0.009119,-183.287518,188.646491,968.068905,-1269.451071,0
0.081250,-169.136916,26.580881,147.628410,5.676378,2.319347,4.244891,-5.938279,-1.874503,-4.044379,5.836972,-0.267254,0.208343,-0.043161,-161.006818,188.571132,967.507357,-1269.234363,0
0.082292,-114.182501,-20.099732,192.463637,6.535938,-0.137445,5.233068,-4.371104,0.481653,-5.047389,4.335561,-0.223418,0.211740,-0.009553,-104.275859,188.571174,967.200319,-1269.710483,0
0.083333,-60.611871,-90.132733,196.673864,6.592488,-2.537434,6.197434,-2.927064,2.955433,-6.092365,2.994253,-0.194194,0.198218,-0.017021,-54.308280,188.495794,966.780408,-1269.494149,0
0.084375,-17.226806,-158.172384,154.313069,5.800788,-4.319673,5.586272,-0.609883,4.819038,-5.546795,0.738578,-0.132093,0.189203,-0.050629,-11.895781,188.639229,966.357216,-1269.864724,0
0.085417,32.929731,-206.967155,90.765720,4.669788,-5.647477,4.225048,1.890135,6.116578,-4.233230,-1.652295,-0.095563,0.182932,-0.028224,38.252758,188.566257,966.157814,-1269.282486,0
0.086458,107.370561,-177.634720,43.517614,3.753678,-6.080611,2.328065,4.009553,6.587074,-2.319539,-3.722962,-0.059033,0.179143,-0.043161,113.271986,188.566940,965.972733,-1268.857709,0
0.087500,181.561857,-128.187580,-1.329924,2.882808,-5.469963,0.248527,5.177472,6.050414,-0.338700,-4.950419,-0.007891,0.191751,-0.024490,181.245084,188.492247,966.582859,-1268.281092,0
0.088542,190.477063,-72.796635,-62.095076,1.695258,-3.879439,-2.295335,5.979716,4.425733,2.208693,-5.661988,0.006721,0.195082,-0.005818,188.076324,188.702277,967.025423,-1267.643731,0
0.089583,168.869599,-26.007294,-147.727652,0.100548,-2.189506,-4.053418,5.845387,2.709157,4.067828,-5.686893,0.010374,0.211740,-0.065566,165.953965,188.552255,967.712930,-1268.242699,0
0.090625,114.221432,20.419620,-192.747538,-0.770322,0.292138,-5.057470,4.296869,0.371380,5.024674,-4.181924,-0.026156,0.206775,-0.024490,109.403966,188.563749,968.204430,-1268.713787,0
0.091667,60.820939,90.670077,-196.526895,-0.792942,2.663724,-6.037710,2.845366,-2.098724,6.115814,-2.808595,-0.048074,0.196454,-0.017021,59.368527,188.490935,967.988222,-1269.022146,0
0.092708,17.447218,159.192964,-153.969129,-0.023862,4.538271,-5.458296,0.516991,-3.969681,5.545064,-0.545805,-0.113828,0.191489,-0.020755,17.091748,188.641295,968.653646,-1269.508183,0
0.093750,-33.106307,207.009182,-90.988068,1.163688,5.876726,-4.077229,-2.042729,-5.300302,4.298646,1.891320,-0.183235,0.184957,-0.039427,-33.282991,188.490074,969.078976,-1270.081019,0
0.094792,-108.012180,177.568019,-43.456818,2.045868,6.274357,-2.184215,-4.173341,-5.778150,2.359774,3.990450,-0.227071,0.177510,-0.024490,-108.867719,188.563872,970.039866,-1270.908638,0
0.095833,-181.749776,128.579953,1.760038,2.928048,5.670810,-0.112614,-5.303946,-5.234139,0.311788,5.182328,-0.248989,0.190052,-0.031958,-176.105668,188.480969,970.794470,-1271.392815,0
0.096875,-190.801092,72.331264,62.439015,4.081668,4.083835,2.506651,-6.132310,-3.576375,-2.256588,5.933034,-0.245336,0.190640,-0.043161,-183.423238,188.704111,971.931720,-1272.138749,0
0.097917,-169.182286,25.711056,147.332955,5.698998,2.333548,4.256797,-6.020369,-1.944342,-4.098936,5.879666,-0.270907,0.216117,-0.035692,-161.142538,188.562682,973.069058,-1272.548679,0
0.098958,-113.275101,-20.172218,193.116099,6.569868,-0.140996,5.260848,-4.486776,0.466950,-5.043192,4.374697,-0.219765,0.210695,-0.024490,-104.128829,188.554291,973.823698,-1272.317673,0
0.100000,-60.884091,-90.398513,196.501516,6.603798,-2.477079,6.249026,-2.994228,2.926027,-6.151119,3.022716,-0.205153,0.207886,-0.031958,-55.122600,188.490794,974.704543,-1272.558309,0
0.101042,-17.896014,-159.090533,153.931440,5.800788,-4.355176,5.681518,-0.647197,4.815362,-5.609746,0.809735,-0.154011,0.187243,-0.002084,-12.506521,188.639233,976.142643,-1272.654735,0
0.102083,33.077183,-206.640971,91.381250,4.647168,-5.668779,4.232985,1.927449,6.145984,-4.287787,-1.684316,-0.095563,0.181233,-0.024490,38.286688,188.493575,976.520967,-1273.450875,0
0.103125,107.801577,-177.332698,43.640720,3.719748,-6.158717,2.300285,4.084180,6.634859,-2.336325,-3.787003,-0.069992,0.175942,-0.031958,113.848796,188.570528,976.934331,-1274.438418,0
0.104167,181.505145,-128.356713,-1.342235,2.848878,-5.473514,0.296150,5.203591,6.076144,-0.317716,-5.000229,-0.026156,0.189464,-0.039427,180.928404,188.495265,977.044749,-1275.319010,0
0.105208,190.409008,-72.434208,-62.045834,1.683948,-3.886539,-2.319147,5.972254,4.418381,2.242267,-5.679778,-0.015197,0.190967,-0.031958,188.347764,188.570017,976.876302,-1275.672037,0
0.106250,168.574694,-25.499896,-147.407576,0.111858,-2.132702,-4.116915,5.856581,2.694454,4.109795,-5.658431,-0.026156,0.195539,-0.039427,165.478945,188.495694,976.375076,-1275.707934,0
0.107292,112.962414,20.516267,-193.067614,-0.736392,0.292138,-5.069375,4.296869,0.323596,5.091821,-4.203271,-0.004238,0.203052,-0.035692,108.250346,188.571100,976.526832,-1276.436561,0
0.108333,59.947567,90.682158,-196.514584,-0.815562,2.638872,-6.001992,2.815515,-2.106075,6.128404,-2.826385,-0.051727,0.177640,-0.043161,59.142327,188.495707,976.914068,-1276.292598,0
0.109375,16.993518,159.132560,-153.722917,-0.035172,4.485017,-5.422579,0.479677,-3.943950,5.540867,-0.528016,-0.132093,0.180057,-0.028224,17.204848,188.646449,976.807873,-1275.862366,0
0.110417,-33.174362,206.912535,-91.135796,1.118448,5.837673,-4.053418,-2.050192,-5.248842,4.223106,1.884205,-0.194194,0.166666,-0.054364,-33.430021,188.547784,975.819204,-1275.153014,0
