1-Time,2-VGERA,3-VGERB,4-VGERC,5-VN,6-IGERAN,7-IGERBN,8-IGERCN,9-IGERAT,10-IGERBT,11-IGERCT,12-IN,13-IFD,14-IFAULT,15-VFAULT,16-Speed (rad/s),17-Active Power,18-Reactive Power,19-FAULT 
0.000000,158.150936,-153.279618,-0.185038,2.950668,-6.407237,3.078127,3.647610,6.796592,-3.070747,-3.466797,-0.029809,0.314823,-0.039427,148.378225,188.419844,1511.313312,-892.325858,0
0.001042,205.222313,-89.866953,-51.077083,1.966698,-5.874695,0.502516,5.378966,6.278311,-0.582108,-5.142543,0.014027,0.321225,-0.009553,189.275184,188.495262,1511.387410,-892.226238,0
0.002083,180.336867,-35.647856,-129.384849,0.451158,-4.532690,-1.842917,6.184942,4.925635,1.768040,-5.903922,0.006721,0.338340,-0.024490,177.286585,188.269115,1511.428725,-893.164242,0
0.003125,134.331685,15.128184,-192.895266,-0.770322,-2.849858,-3.775617,6.117777,3.234790,3.706912,-5.999984,0.024986,0.339254,-0.020755,146.975785,188.344424,1511.808718,-894.421819,0
0.004167,76.405535,73.805135,-202.054357,-0.973902,0.018767,-5.549574,4.987172,0.455923,5.465327,-4.872146,0.017680,0.331677,0.020321,95.232536,188.419853,1512.058478,-895.127226,0
0.005208,21.099503,153.527020,-176.719129,-0.476262,2.386802,-6.426631,3.412534,-1.988451,6.535483,-3.427661,-0.018850,0.324556,-0.039427,48.307347,188.495213,1512.552446,-895.389821,0
0.006250,-27.559824,193.828916,-114.772159,0.711288,4.392710,-5.803563,0.875202,-3.929247,5.926963,-1.008325,-0.084604,0.326385,-0.002084,2.660188,188.269030,1512.662225,-895.325475,0
0.007292,-97.146065,200.715031,-53.194508,1.864908,6.221103,-4.831260,-1.691980,-5.862692,4.978510,1.560440,-0.132093,0.307310,-0.024490,-73.071570,188.419840,1512.975820,-894.881155,0
0.008333,-158.418253,153.889447,-0.037311,2.882808,6.579681,-2.898560,-3.837518,-6.222915,3.056425,3.577740,-0.186888,0.313320,-0.020755,-143.487628,188.419913,1513.544511,-895.228692,0
0.009375,-205.671110,91.346607,51.260985,3.855468,6.068441,-0.322949,-5.576336,-5.759771,0.622343,5.345989,-0.230724,0.320245,-0.028224,-184.384588,188.495354,1514.387765,-895.878659,0
0.010417,-180.706266,36.221442,129.285606,5.348388,4.673182,2.062170,-6.374849,-4.425474,-1.744592,6.061117,-0.227071,0.328672,-0.013287,-173.176378,188.269071,1514.662995,-896.551755,0
0.011458,-133.850397,-15.158642,193.263826,6.535938,3.001000,3.919467,-6.292759,-2.749332,-3.746414,6.171410,-0.201500,0.338928,-0.054364,-141.338728,188.344513,1515.184597,-897.393613,0
0.012500,-75.958274,-73.340276,202.250569,6.716898,0.160778,5.709298,-5.124841,0.125105,-5.492238,4.968858,-0.190541,0.307310,-0.028224,-90.443730,188.419934,1514.416558,-897.933777,0
0.013542,-21.105942,-153.436670,176.804546,6.287118,-2.253411,6.637947,-3.535277,2.584182,-6.512035,3.542161,-0.179582,0.312732,-0.073035,-43.348891,188.495354,1515.345886,-898.554287,0
0.014583,27.303850,-193.581514,115.276137,5.110878,-4.245117,5.987099,-1.027796,4.517626,-5.953875,1.169077,-0.139399,0.304175,-0.046895,2.671498,188.269021,1516.318120,-898.761919,0
0.015625,97.332449,-200.455548,54.510985,3.945948,-6.112564,5.038608,1.580431,6.458423,-5.022209,-1.442382,-0.040768,0.306657,-0.009553,77.340117,188.419902,1517.000519,-900.081864,0
0.016667,158.355101,-153.907825,0.615152,2.916738,-6.439189,3.058284,3.688655,6.789240,-3.121107,-3.434776,-0.000585,0.317893,-0.013287,148.197265,188.419923,1517.449722,-899.825136,0
0.017708,205.449163,-90.603888,-50.929356,1.932768,-5.910198,0.542202,5.423742,6.296689,-0.603091,-5.203026,-0.022503,0.320571,-0.013287,188.947194,188.495412,1518.160149,-900.665184,0
0.018750,180.268812,-35.092134,-129.212500,0.462468,-4.571743,-1.838948,6.214793,4.973419,1.830991,-5.960848,-0.007891,0.327888,-0.046895,177.071695,188.313492,1518.967644,-901.487839,0
0.019792,133.310860,15.732229,-193.006061,-0.747702,-2.825006,-3.759743,6.147628,3.205384,3.723699,-6.028447,0.054210,0.359766,-0.043161,145.878715,188.412822,1519.057228,-901.450751,0
0.020833,75.123833,73.696407,-202.275948,-0.906042,0.011666,-5.577354,5.039411,0.411814,5.494703,-4.904167,-0.011544,0.355847,-0.039427,95.673626,188.443112,1519.368844,-901.717635,0
0.021875,21.462463,153.418292,-177.051516,-0.464952,2.411654,-6.458380,3.475967,-2.036236,6.527090,-3.420545,-0.040768,0.323250,-0.013287,48.906777,188.438661,1519.113756,-902.484177,0
0.022917,-27.094782,194.167181,-115.387690,0.666048,4.442413,-5.811500,0.864008,-3.973356,5.943750,-1.029672,-0.091910,0.317501,-0.035692,2.411368,188.345019,1519.645838,-903.246231,0
0.023958,-97.509025,200.642546,-54.290152,1.830978,6.260156,-4.815386,-1.759145,-5.855340,5.041461,1.606693,-0.132093,0.308552,-0.028224,-73.738860,188.344844,1520.138353,-903.914539,0
0.025000,-159.008063,153.454535,-0.492803,2.848878,6.618734,-2.886654,-3.871100,-6.255997,3.102589,3.616876,-0.186888,0.312667,-0.002084,-143.849548,188.420262,1520.986546,-904.275895,0
0.026042,-205.784535,90.126436,51.064015,3.832848,6.128796,-0.318980,-5.606187,-5.800204,0.588770,5.388684,-0.234377,0.319200,-0.017021,-184.056598,188.495727,1521.334640,-904.693563,0
0.027083,-180.309279,35.001271,129.408713,5.314458,4.772589,2.062170,-6.445745,-4.454880,-1.790755,6.121600,-0.230724,0.302934,-0.002084,-172.882318,188.344840,1522.103904,-905.045080,0
0.028125,-133.895767,-15.303613,192.783713,6.547248,3.011651,3.927404,-6.333804,-2.741980,-3.712841,6.228335,-0.227071,0.317893,-0.035692,-141.858988,188.344921,1522.467213,-904.888198,0
0.029167,-76.729564,-73.473166,202.176705,6.705588,0.210482,5.745016,-5.154691,0.117754,-5.534205,5.050688,-0.183235,0.321159,-0.017021,-91.619970,188.420197,1523.764777,-905.491184,0
0.030208,-22.319589,-153.255456,177.272349,6.241878,-2.249861,6.606198,-3.550202,2.532721,-6.507838,3.588413,-0.164970,0.325275,-0.009553,-43.778671,188.495772,1524.163484,-905.292158,0
0.031250,26.861493,-194.088912,115.226894,5.110878,-4.252218,6.042659,-1.005408,4.524978,-5.966465,1.172635,-0.146705,0.321486,-0.028224,4.277518,188.344912,1524.423245,-905.547469,0
0.032292,96.844721,-200.419305,53.883144,3.934638,-6.109013,4.990985,1.614014,6.462098,-5.005422,-1.449498,-0.059033,0.304763,-0.043161,77.227017,188.269572,1524.085636,-905.524816,0
0.033333,158.298389,-153.207132,0.356629,2.916738,-6.460491,3.038441,3.729700,6.811295,-3.095927,-3.484586,-0.015197,0.314170,-0.013287,148.615735,188.420273,1523.961194,-906.068795,0
0.034375,205.313053,-89.734063,-50.941667,1.955388,-5.920849,0.558077,5.416280,6.326095,-0.619878,-5.192353,0.021333,0.320833,-0.024490,189.252564,188.495662,1524.270623,-905.478460,0
0.035417,180.291497,-35.623694,-129.434091,0.451158,-4.557542,-1.850854,6.248375,4.995474,1.763844,-5.953732,0.032292,0.315933,-0.005818,177.263965,188.420423,1524.674289,-904.793542,0
0.036458,134.399740,14.826161,-192.969129,-0.747702,-2.835657,-3.727994,6.170016,3.304629,3.732092,-6.024889,0.079781,0.335792,-0.035692,147.054955,188.269503,1525.503109,-904.876989,0
0.037500,76.655070,73.491031,-202.251326,-0.906042,-0.023837,-5.541637,5.009560,0.437544,5.486310,-4.900609,0.014027,0.332395,-0.017021,95.436116,188.420206,1525.507905,-905.202681,0
0.038542,21.439778,153.502858,-176.916099,-0.464952,2.443607,-6.474254,3.382683,-2.032560,6.518696,-3.409871,-0.059033,0.322466,-0.039427,48.646647,188.495694,1525.327690,-905.096492,0
0.039583,-27.128809,194.022210,-114.710606,0.654738,4.389159,-5.787689,0.845351,-4.010114,5.947946,-1.001209,-0.077298,0.327757,-0.031958,2.965558,188.418997,1525.154744,-905.470340,0
0.040625,-97.202777,200.763355,-53.329924,1.842288,6.235304,-4.799512,-1.725563,-5.870043,5.045657,1.571114,-0.110175,0.308094,-0.020755,-72.879300,188.344869,1525.463546,-904.923611,0
0.041667,-158.440938,153.961933,-0.382008,2.860188,6.618734,-2.890623,-3.844981,-6.237618,3.127769,3.581297,-0.168623,0.317501,-0.043161,-143.498938,188.420307,1525.416707,-904.395618,0
0.042708,-205.761850,91.213717,51.137879,3.855468,6.132346,-0.354698,-5.598724,-5.825934,0.626540,5.360221,-0.186888,0.321682,-0.050629,-184.339348,188.480186,1525.898771,-904.183975,0
0.043750,-180.762979,36.523465,129.150190,5.314458,4.719335,2.014547,-6.378581,-4.443852,-1.736198,6.089579,-0.223418,0.331546,0.001650,-173.165068,188.420367,1525.532345,-904.059584,0
0.044792,-133.884424,-14.772053,193.153031,6.581178,3.018752,3.939310,-6.285297,-2.734629,-3.742217,6.192757,-0.212459,0.340104,-0.046895,-141.383968,188.344834,1525.131700,-904.485966,0
0.045833,-75.958274,-73.098658,202.213637,6.728208,0.157228,5.697393,-5.158423,0.080996,-5.467058,5.000878,-0.190541,0.328606,-0.035692,-90.534210,188.420448,1524.222792,-903.231028,0
0.046875,-21.400847,-153.195052,176.878410,6.253188,-2.274713,6.649853,-3.553934,2.609912,-6.516231,3.588413,-0.168623,0.285165,-0.035692,-43.597711,188.495738,1524.201886,-903.679242,0
0.047917,26.884178,-193.617756,115.276137,5.110878,-4.255768,5.991068,-1.027796,4.517626,-5.903514,1.147730,-0.139399,0.316325,-0.031958,2.456608,188.420341,1523.096948,-903.593679,0
0.048958,96.992174,-200.455548,54.621780,3.957258,-6.084162,5.018765,1.621476,6.465774,-4.992832,-1.396130,-0.059033,0.306461,-0.058098,77.023437,188.344862,1523.211964,-903.324034,0
0.050000,158.241676,-154.101119,1.095265,2.939358,-6.456941,3.074159,3.696118,6.770861,-3.095927,-3.466797,0.010374,0.316260,-0.028224,147.937135,188.420294,1522.796147,-903.423211,0
0.051042,205.437821,-90.640131,-50.670833,1.944078,-5.938600,0.494579,5.416280,6.322420,-0.565321,-5.206584,0.006721,0.319657,-0.024490,188.868024,188.495617,1522.444465,-904.510415,0
0.052083,180.404922,-35.200862,-129.052463,0.485088,-4.553992,-1.842917,6.222255,4.955041,1.797417,-5.960848,0.010374,0.324883,-0.009553,177.083005,188.495788,1521.897978,-904.959069,0
0.053125,133.571738,15.430207,-192.944508,-0.713772,-2.860509,-3.755774,6.173748,3.271547,3.732092,-6.007100,0.061516,0.306527,-0.043161,145.935265,188.344927,1521.397551,-904.611624,0
0.054167,75.123833,73.406465,-202.275948,-0.962592,-0.030937,-5.537668,5.039411,0.466950,5.482113,-4.914841,-0.011544,0.325079,-0.031958,95.684936,188.420352,1521.663068,-903.673645,0
0.055208,21.507833,153.249159,-177.125379,-0.487572,2.415205,-6.454411,3.438653,-2.010506,6.514500,-3.416987,-0.026156,0.310773,-0.028224,49.200837,188.495767,1521.670145,-903.468800,0
0.056250,-26.629739,193.840997,-115.584659,0.632118,4.435313,-5.835312,0.890128,-3.958653,5.897586,-1.008325,-0.055380,0.316391,-0.043161,2.931628,188.420301,1520.864881,-903.163816,0
0.057292,-97.078010,200.654627,-54.327084,1.819668,6.277907,-4.815386,-1.803921,-5.862692,5.033067,1.603135,-0.154011,0.304501,0.009119,-73.309080,188.269606,1520.365891,-903.843086,0
0.058333,-158.713158,153.671991,-0.566667,2.837568,6.586782,-2.815220,-3.904683,-6.241294,3.073212,3.616876,-0.183235,0.309532,-0.039427,-143.465008,188.495756,1519.878685,-904.565107,0
0.059375,-205.671110,90.343892,50.694697,3.844158,6.079092,-0.299138,-5.598724,-5.719338,0.517426,5.367337,-0.212459,0.316717,-0.009553,-184.214938,188.495774,1517.736362,-905.231595,0
0.060417,-180.445389,35.218727,128.891667,5.303148,4.708684,2.030421,-6.382312,-4.414446,-1.815935,6.110927,-0.230724,0.327235,-0.043161,-172.871008,188.495897,1517.317618,-905.825659,0
0.061458,-133.907109,-15.037833,192.697538,6.535938,2.979699,3.883750,-6.281565,-2.778738,-3.771594,6.171410,-0.252642,0.349380,-0.020755,-141.870298,188.269588,1517.430776,-905.655708,0
0.062500,-76.695537,-73.038253,202.176705,6.682968,0.167878,5.756921,-5.128572,0.044239,-5.483845,5.025783,-0.186888,0.341410,-0.013287,-91.653900,188.495870,1518.018264,-905.762183,0
0.063542,-22.569124,-152.941353,177.260038,6.287118,-2.281814,6.598261,-3.524083,2.562127,-6.499445,3.549277,-0.172276,0.325275,-0.031958,-44.117971,188.495720,1517.328792,-905.875753,0
0.064583,26.464505,-193.641918,115.645455,5.099568,-4.230916,5.959319,-1.001677,4.480869,-5.903514,1.097920,-0.106522,0.321878,-0.039427,3.813808,188.495705,1516.731653,-906.163858,0
0.065635,97.411846,-199.827341,53.058333,3.923328,-6.116114,4.903676,1.673715,6.451071,-4.976045,-1.520655,-0.069992,0.301366,-0.046895,78.052647,188.269603,1515.991478,-906.609412,0
0.066677,158.672691,-152.107770,-0.172727,2.905428,-6.385935,2.959070,3.759551,6.781889,-2.986813,-3.520165,-0.018850,0.308813,-0.035692,149.791975,188.495721,1515.107541,-906.859050,0
0.067709,205.222313,-89.866953,-50.658523,1.955388,-5.917298,0.506485,5.393891,6.293014,-0.573714,-5.160332,-0.000585,0.316521,-0.024490,189.309114,188.495589,1514.496733,-905.901744,0
0.068750,180.450292,-35.841150,-128.806250,0.485088,-4.539790,-1.862760,6.125240,4.955041,1.734467,-5.886133,0.010374,0.325732,-0.035692,177.286585,188.495716,1513.886494,-904.849089,0
0.069791,134.354370,14.596624,-192.722917,-0.702462,-2.835657,-3.727994,6.076732,3.231114,3.694322,-6.007100,0.021333,0.340822,-0.020755,147.100195,188.269583,1513.299815,-905.218708,0
0.070833,76.836550,73.056119,-202.165152,-0.928662,0.001015,-5.505919,4.957321,0.419165,5.427556,-4.850799,0.028639,0.331023,-0.017021,95.696246,188.495747,1511.814417,-905.896545,0
0.071875,21.848108,153.200836,-176.879167,-0.510192,2.418755,-6.442505,3.405071,-2.025209,6.443156,-3.363619,-0.011544,0.320114,-0.020755,48.929397,188.495640,1510.429821,-905.872861,0
0.072916,-26.924644,193.466489,-115.227652,0.677358,4.378508,-5.732129,0.849083,-3.932923,5.864012,-0.972746,-0.088257,0.302607,-0.024490,3.372718,188.495731,1509.604108,-905.531162,0
0.073958,-96.522227,200.847921,-53.440720,1.876218,6.217553,-4.720140,-1.736757,-5.825934,4.936543,1.599577,-0.135746,0.300713,-0.031958,-72.438210,188.344929,1508.192608,-905.131278,0
0.075000,-157.703675,154.421007,-0.443561,2.916738,6.508675,-2.850937,-3.800204,-6.189834,3.027048,3.581297,-0.186888,0.313124,-0.024490,-142.571518,188.495740,1506.980293,-904.924186,0
0.076041,-205.342177,91.382850,50.694697,3.810228,6.022287,-0.283263,-5.535291,-5.678904,0.530016,5.306853,-0.245336,0.317305,-0.024490,-184.260178,188.495805,1506.245126,-904.444698,0
0.077083,-180.944459,36.716759,128.473106,5.303148,4.630578,2.038358,-6.318879,-4.421798,-1.715215,6.007749,-0.212459,0.326320,-0.058098,-173.142448,188.495819,1505.560351,-903.170021,0
0.078125,-134.122617,-14.409626,192.808334,6.490698,2.976149,3.887718,-6.251714,-2.686844,-3.729627,6.110927,-0.219765,0.342717,-0.009553,-141.429208,188.345003,1503.912090,-903.334345,0
0.079166,-76.434659,-72.422127,202.090531,6.682968,0.135926,5.633895,-5.061407,0.092023,-5.412501,4.968858,-0.205153,0.316260,-0.017021,-90.862200,188.495711,1502.295111,-903.094308,0
0.080208,-21.707094,-152.868867,176.866099,6.253188,-2.232110,6.590324,-3.483038,2.613588,-6.465871,3.485236,-0.175929,0.269879,-0.035692,-43.869151,188.495642,1501.218211,-903.288995,0
0.081250,26.895520,-193.037873,115.805493,5.144808,-4.167011,5.911696,-0.979289,4.433084,-5.886727,1.133499,-0.106522,0.314953,-0.039427,2.241718,188.495559,1501.088534,-902.278685,0
0.082291,96.436391,-200.648843,54.744887,3.991188,-6.023807,4.955267,1.610282,6.406962,-4.942472,-1.445940,-0.066339,0.301888,-0.054364,76.661517,188.344932,1500.471589,-902.110480,0
0.083333,157.334276,-154.838055,1.206061,2.973288,-6.357533,3.014630,3.666267,6.719401,-3.104320,-3.416987,-0.037115,0.315999,-0.035692,146.896615,188.495770,1500.679935,-901.216579,0
0.084375,205.074861,-90.942153,-50.326137,1.944078,-5.895997,0.490611,5.427474,6.281986,-0.577911,-5.220815,-0.007891,0.316521,-0.043161,188.868024,188.495597,1500.751781,-902.280609,0
0.085416,180.586402,-35.659936,-128.313826,0.451158,-4.518489,-1.799262,6.136434,4.907256,1.763844,-5.889691,0.035945,0.317762,-0.013287,177.139555,188.495729,1500.044846,-902.776567,0
0.086458,133.741875,15.236912,-192.538258,-0.736392,-2.832107,-3.652591,6.091657,3.198032,3.690126,-5.992868,0.021333,0.344350,-0.035692,146.003125,188.344916,1499.563140,-902.455002,0
0.087500,75.668273,72.778258,-202.263637,-0.894732,-0.027387,-5.505919,4.968515,0.426517,5.431753,-4.793874,0.035945,0.330305,-0.024490,95.978996,188.495866,1498.875248,-902.036538,0
0.088541,21.746025,152.935056,-177.199243,-0.464952,2.408104,-6.375039,3.401340,-2.036236,6.506106,-3.420545,-0.018850,0.329717,-0.046895,49.438347,188.495761,1500.038155,-902.409003,0
0.089583,-26.482287,193.357761,-116.458712,0.677358,4.367858,-5.716254,0.789381,-3.925572,5.859816,-0.979862,-0.095563,0.319330,-0.024490,3.327478,188.495747,1499.945473,-902.841762,0
0.090626,-96.771762,200.739193,-54.487121,1.808358,6.199801,-4.763794,-1.747951,-5.792853,4.995297,1.585345,-0.157664,0.303326,-0.039427,-73.037640,188.345015,1500.427121,-902.609576,0
0.091666,-158.032608,154.553897,-0.591288,2.860188,6.537078,-2.819188,-3.770353,-6.167779,3.089998,3.599087,-0.190541,0.310250,-0.035692,-142.503658,188.495839,1500.968465,-902.404533,0
0.092708,-205.489630,90.742562,50.559280,3.810228,6.025838,-0.291200,-5.542754,-5.686256,0.550999,5.317527,-0.205153,0.315672,-0.013287,-184.271488,188.495779,1501.230080,-902.135900,0
0.093750,-180.910431,35.484507,128.226894,5.325768,4.683832,1.974861,-6.307685,-4.355634,-1.736198,6.025538,-0.212459,0.293070,-0.043161,-173.097208,188.495700,1500.621404,-902.248295,0
0.094791,-134.088589,-14.832458,192.315910,6.535938,2.990350,3.903593,-6.289028,-2.672141,-3.704447,6.121600,-0.223418,0.309336,-0.031958,-142.039948,188.344970,1500.475197,-901.921479,0
0.095833,-76.990442,-72.518775,202.028978,6.750828,0.196281,5.669613,-5.083795,0.062617,-5.441878,4.968858,-0.212459,0.318220,-0.084238,-91.902720,188.495627,1500.843044,-902.119254,0
0.096875,-22.761947,-152.772220,177.161554,6.253188,-2.217909,6.542701,-3.505426,2.543749,-6.449084,3.517256,-0.208806,0.320114,-0.031958,-44.208451,188.495854,1501.022498,-901.567943,0
0.097916,26.328395,-193.037873,116.334849,5.088258,-4.220265,5.939476,-0.971826,4.469842,-5.853154,1.144172,-0.135746,0.318285,-0.035692,3.632848,188.495698,1500.714587,-902.156257,0
0.098958,95.914636,-200.769652,54.338637,3.957258,-6.084162,4.943362,1.640133,6.399610,-4.934078,-1.470845,-0.066339,0.302215,-0.035692,76.537107,188.346404,1500.339059,-902.342539,0
0.100000,157.152796,-154.463546,0.418182,2.916738,-6.364633,3.022567,3.651342,6.752483,-3.079140,-3.384967,-0.000585,0.308748,-0.028224,147.054955,188.495731,1500.436934,-901.933561,0
0.101041,204.893381,-90.253542,-50.276894,1.978008,-5.860494,0.534265,5.375234,6.237877,-0.577911,-5.131869,0.014027,0.318089,-0.050629,189.343044,188.495863,1499.409793,-900.612685,0
0.102083,180.949362,-35.961959,-128.055303,0.496398,-4.525589,-1.815137,6.132703,4.921959,1.717680,-5.868344,0.017680,0.326451,-0.017021,177.490165,188.495678,1499.499457,-900.105259,0
0.103125,134.808070,14.306682,-192.427463,-0.702462,-2.832107,-3.692277,6.114046,3.234790,3.652355,-5.953732,0.039598,0.332591,-0.013287,147.371635,188.420443,1499.254307,-899.916541,0
0.104166,77.494415,72.609125,-202.226705,-0.951282,-0.041588,-5.454328,4.953590,0.466950,5.410770,-4.808105,-0.007891,0.325993,-0.069301,96.193886,188.495769,1499.494076,-900.071491,0
0.105208,22.211068,152.959218,-176.953031,-0.476262,2.393903,-6.363134,3.375220,-1.988451,6.455746,-3.388524,-0.029809,0.316848,-0.020755,49.178217,188.495736,1498.650224,-899.428940,0
0.106250,-26.595712,192.898686,-116.126326,0.654738,4.314603,-5.720223,0.845351,-3.907193,5.826242,-0.990536,-0.080951,0.324818,-0.046895,3.757258,188.495709,1498.146044,-898.831845,0
0.107291,-96.204637,201.065378,-53.576137,1.864908,6.164298,-4.743951,-1.733025,-5.763447,4.949133,1.560440,-0.132093,0.300713,-0.043161,-72.166770,188.495797,1497.493781,-898.202590,0
0.108333,-157.227290,155.109619,-0.061932,2.894118,6.498025,-2.819188,-3.762890,-6.119994,3.060622,3.495909,-0.186888,0.315999,-0.039427,-141.892918,188.495767,1496.614174,-896.917247,0
0.109375,-205.364862,91.878167,50.633144,3.844158,6.029388,-0.350729,-5.497978,-5.649498,0.618146,5.217907,-0.186888,0.316652,-0.024490,-184.576858,188.495723,1496.228637,-895.557644,0
0.110416,-181.511584,36.970458,128.029925,5.314458,4.658980,2.006610,-6.251714,-4.399743,-1.711018,6.021980,-0.241683,0.326973,-0.031958,-173.583538,188.495825,1496.703540,-895.856360,0
