1-Time,2-VGERA,3-VGERB,4-VGERC,5-VN,6-IGERAN,7-IGERBN,8-IGERCN,9-IGERAT,10-IGERBT,11-IGERCT,12-IN,13-IFD,14-IFAULT,15-VFAULT,16-Speed (rad/s),17-Active Power,18-Reactive Power,19-FAULT 
0.000000,123.182007,-191.068686,39.295076,3.708438,-1.433297,6.530795,-4.374835,1.341778,-6.499445,4.264404,-0.234377,0.605780,0.009119,36.013378,188.495461,1602.894909,893.711369,0
0.001042,171.047359,-165.445088,-35.762690,2.317308,-3.609618,6.542701,-2.300193,3.473713,-6.574985,2.328935,-0.190541,0.604474,-0.005818,-8.762911,188.420318,1602.048943,894.193960,0
0.002083,178.726232,-99.012197,-99.359281,1.095828,-5.367005,5.514838,0.408781,5.289534,-5.601352,-0.275408,-0.113828,0.594022,-0.028224,-50.078340,188.495734,1602.095203,895.428423,0
0.003125,188.809715,-14.530435,-148.700190,0.134478,-6.240374,3.967090,2.539393,6.142308,-4.048576,-2.424348,-0.088257,0.601730,-0.017021,-79.473030,188.495667,1601.562777,895.766208,0
0.004167,147.761206,59.126836,-172.570455,-0.363162,-5.920849,1.542285,4.468512,5.940142,-1.748788,-4.224618,-0.026156,0.596374,-0.058098,-98.971469,188.435511,1601.516909,896.160988,0
0.005208,67.025287,110.543164,-197.093182,-0.860802,-5.036829,-1.378592,6.173748,5.028556,1.201487,-5.953732,-0.022503,0.601142,-0.009553,-114.013769,188.554872,1602.016469,896.574125,0
0.006258,-1.381333,158.697647,-165.873485,-0.227442,-3.282992,-3.759743,6.554347,3.334035,3.622978,-6.394905,0.017680,0.600816,-0.031958,-99.570899,188.495083,1602.967945,896.551860,0
0.007292,-68.891896,190.252968,-123.069508,0.552948,-0.819099,-5.692443,5.852850,0.915391,5.612211,-5.761608,-0.015197,0.610092,-0.035692,-82.764240,188.495331,1603.130935,897.481228,0
0.008333,-123.959736,190.941580,-39.652841,2.068488,1.552487,-6.454411,4.143882,-1.521631,6.447353,-4.199713,-0.004238,0.606107,-0.028224,-30.240601,188.495360,1604.177081,897.942814,0
0.009375,-171.212593,165.970351,36.168182,3.550098,3.679104,-6.426631,2.114017,-3.638863,6.489320,-2.182414,-0.080951,0.599379,-0.024490,13.766608,188.419871,1604.799542,897.752533,0
0.010417,-179.322481,98.933415,99.580114,4.760268,5.454243,-5.363050,-0.609883,-5.451008,5.511490,0.368562,-0.161317,0.594087,-0.002084,55.590987,188.495282,1605.930579,897.178707,0
0.011458,-189.235826,13.944255,148.440910,5.687688,6.206902,-3.819271,-2.736764,-6.303782,3.878977,2.531733,-0.219765,0.604931,-0.013287,85.935717,188.495282,1606.354946,896.522250,0
0.012500,-147.245890,-59.688855,172.815910,6.207948,5.937081,-1.410341,-4.598717,-6.072210,1.629549,4.314214,-0.241683,0.596635,-0.050629,102.934646,188.495300,1607.428839,897.034216,0
0.013542,-65.432434,-110.307842,197.646402,6.649038,5.056612,1.486725,-6.233057,-5.116515,-1.282955,5.979286,-0.256295,0.578540,-0.050629,119.515106,188.419847,1607.591381,897.415379,0
0.014583,2.520487,-157.423368,166.771402,6.072228,3.345377,3.840095,-6.684553,-3.444048,-3.662480,6.406228,-0.259948,0.583113,-0.046895,104.778176,188.437131,1607.881676,896.465585,0
0.015625,69.940310,-190.319670,122.280872,5.235288,0.849532,5.812482,-5.986787,-0.977620,-5.685286,5.826299,-0.252642,0.615253,-0.050629,85.845237,188.477711,1607.833027,895.901625,0
0.016676,124.316257,-190.814987,37.017614,3.629268,-1.568208,6.578418,-4.318865,1.415293,-6.524625,4.196805,-0.223418,0.603951,-0.039427,34.429978,188.495378,1607.912965,895.623863,0
0.017708,170.525604,-165.529655,-37.215341,2.272068,-3.609618,6.578418,-2.225566,3.554580,-6.520428,2.236431,-0.219765,0.596831,-0.028224,-10.753471,188.344807,1608.137271,894.103449,0
0.018750,178.760260,-97.550408,-99.617803,1.073208,-5.434461,5.522775,0.453558,5.326291,-5.580369,-0.328776,-0.102869,0.594936,-0.009553,-50.474190,188.495635,1608.268536,893.763922,0
0.019792,188.696290,-13.189455,-148.564773,0.111858,-6.215522,3.951216,2.569244,6.145984,-4.010806,-2.467042,-0.099216,0.597419,-0.050629,-80.660580,188.495573,1608.269920,893.428368,0
0.020833,146.842463,60.177875,-172.619697,-0.351852,-5.920849,1.538317,4.487168,5.940142,-1.673248,-4.245965,-0.066339,0.582133,-0.046895,-98.292869,188.495544,1608.322234,893.009953,0
0.021875,65.788955,110.796863,-197.228599,-0.872112,-5.015528,-1.370655,6.117777,5.039583,1.201487,-5.946616,0.003068,0.591148,-0.020755,-114.104249,188.495720,1607.966260,893.523212,0
0.022932,-2.663036,159.313773,-165.307197,-0.170892,-3.240389,-3.787523,6.520765,3.304629,3.635569,-6.384231,-0.000585,0.607348,-0.020755,-100.667969,188.495682,1607.634806,893.686104,0
0.023969,-70.377764,190.397939,-122.207766,0.575568,-0.783596,-5.700380,5.819267,0.812470,5.620604,-5.729588,-0.004238,0.607087,-0.046895,-83.318430,188.495754,1607.598913,892.980960,0
0.025000,-124.016449,190.820771,-39.652841,2.113728,1.524085,-6.478223,4.218510,-1.528983,6.447353,-4.213945,-0.044421,0.605780,-0.046895,-31.620421,188.514145,1607.655339,893.093674,0
0.026041,-171.745691,165.607924,35.761932,3.550098,3.679104,-6.466317,2.099092,-3.657242,6.506106,-2.217993,-0.059033,0.602449,-0.031958,14.750578,188.630595,1607.981004,893.596447,0
0.027083,-179.095631,99.404570,99.801705,4.748958,5.493296,-5.434485,-0.606152,-5.473062,5.549260,0.397025,-0.146705,0.596178,-0.024490,55.149897,188.495660,1608.738679,893.630871,0
0.028125,-189.224484,14.971132,148.982576,5.698998,6.270807,-3.823240,-2.703181,-6.300106,3.992287,2.517501,-0.190541,0.596635,-0.013287,86.535147,188.494334,1609.070391,894.916863,0
0.029166,-147.983152,-59.145214,172.618940,6.151398,5.965483,-1.418278,-4.583792,-6.105291,1.604369,4.310656,-0.238030,0.615840,-0.035692,103.172156,188.496027,1609.664981,894.559292,0
0.030208,-66.475944,-110.344085,197.609470,6.671658,5.056612,1.482757,-6.296491,-5.179002,-1.287152,6.014865,-0.281866,0.602841,-0.039427,119.300216,188.419759,1610.733227,895.027631,0
0.031250,1.420264,-157.350883,166.783713,6.049608,3.387981,3.844064,-6.677090,-3.510212,-3.633103,6.413343,-0.267254,0.600685,-0.028224,106.531226,188.495162,1610.730179,895.637201,0
0.032291,69.497952,-190.585449,122.219319,5.257908,0.863733,5.784701,-5.990518,-0.944538,-5.706270,5.801394,-0.252642,0.592062,-0.073035,86.614317,188.495408,1611.043977,894.903105,0
0.033343,124.429682,-190.645854,36.722159,3.617958,-1.525604,6.558575,-4.296476,1.441024,-6.491051,4.189689,-0.227071,0.598856,-0.024490,34.181158,188.495057,1610.702154,894.607559,0
0.034377,170.786482,-165.372603,-37.769318,2.192898,-3.630919,6.550638,-2.240492,3.532525,-6.574985,2.232874,-0.190541,0.593238,-0.046895,-10.323691,188.496136,1610.912642,895.370307,0
0.035416,178.782945,-97.405437,-99.753220,0.994038,-5.413159,5.514838,0.479677,5.348346,-5.546795,-0.364355,-0.091910,0.571485,-0.043161,-50.485500,188.436447,1611.147090,894.739124,0
0.036458,188.571523,-12.259225,-148.490910,0.111858,-6.204871,3.915499,2.561782,6.157011,-4.002412,-2.474158,-0.080951,0.586575,-0.046895,-79.540890,188.473235,1611.038614,894.920707,0
0.037500,146.286681,60.951053,-172.632008,-0.329232,-5.931500,1.546254,4.483437,5.951169,-1.715215,-4.253081,-0.037115,0.584158,0.001650,-99.039329,188.485706,1610.803338,895.852337,0
0.038541,64.779472,110.857267,-197.622538,-0.770322,-5.022628,-1.390498,6.177479,5.054286,1.247650,-5.946616,-0.011544,0.547706,-0.039427,-114.138179,188.494502,1611.041941,895.880244,0
0.039583,-2.776461,157.900308,-166.587501,-0.272682,-3.297193,-3.704182,6.539422,3.352414,3.572618,-6.391347,0.039598,0.589841,-0.035692,-99.751859,188.494480,1610.626647,896.389646,0
0.040625,-69.946749,190.410020,-122.503220,0.598188,-0.783596,-5.708317,5.860313,0.823498,5.633194,-5.733145,-0.000585,0.603037,-0.028224,-82.605900,188.493941,1610.892412,896.313536,0
0.041666,-124.209271,190.965742,-38.791099,2.204208,1.552487,-6.446474,4.196122,-1.562064,6.451549,-4.192598,-0.066339,0.608720,-0.043161,-29.969161,188.495217,1610.996043,896.129945,0
0.042708,-171.133196,166.018675,36.377462,3.606648,3.682654,-6.434568,2.099092,-3.697675,6.497713,-2.221551,-0.099216,0.603886,-0.046895,13.596958,188.344534,1611.289190,895.918370,0
0.043750,-179.288454,98.570988,99.826326,4.771578,5.511047,-5.414642,-0.628540,-5.495117,5.503097,0.372120,-0.157664,0.594479,-0.039427,55.557057,188.495179,1610.885654,895.919326,0
0.044802,-188.952264,13.605990,149.856629,5.732928,6.274357,-3.815303,-2.718107,-6.325836,3.908354,2.560195,-0.201500,0.599183,-0.035692,86.851827,188.495157,1611.154153,895.483689,0
0.045833,-147.382000,-58.867353,173.271402,6.219258,5.969033,-1.414310,-4.636031,-6.083237,1.612763,4.317772,-0.205153,0.599117,-0.039427,103.307876,188.513587,1611.003695,895.498003,0
0.046875,-66.963671,-110.211195,197.535607,6.637728,5.077913,1.462914,-6.262908,-5.179002,-1.345906,6.039770,-0.256295,0.592846,-0.031958,119.379386,188.420634,1611.850386,894.801765,0
0.047917,0.989249,-157.870361,166.402084,6.038298,3.352478,3.859938,-6.684553,-3.488157,-3.649890,6.427575,-0.267254,0.607152,-0.031958,104.676386,188.474814,1612.222320,894.572360,0
0.048958,69.339157,-190.210941,122.797917,5.178738,0.828230,5.776764,-5.986787,-0.992323,-5.710466,5.812067,-0.256295,0.607871,-0.017021,85.890477,188.495557,1612.232313,894.949182,0
0.050000,123.896585,-190.814987,38.925758,3.685818,-1.461699,6.538732,-4.289014,1.400590,-6.491051,4.232383,-0.241683,0.604670,-0.046895,35.142508,188.495839,1612.637705,894.970990,0
0.051042,170.820509,-165.735030,-37.104546,2.192898,-3.623819,6.503015,-2.180790,3.525174,-6.516231,2.222200,-0.183235,0.601012,-0.073035,-11.115391,188.420303,1612.263770,894.186310,0
0.052083,179.009795,-97.429599,-99.827084,1.005348,-5.420259,5.455309,0.487140,5.359373,-5.584566,-0.353681,-0.110175,0.583374,-0.017021,-50.768250,188.495683,1612.641380,894.759272,0
0.053125,188.594208,-12.669976,-148.687879,0.100548,-6.183569,3.935341,2.602827,6.145984,-3.952052,-2.477716,-0.066339,0.592323,-0.028224,-80.864160,188.495640,1612.614888,894.013143,0
0.054167,146.468161,60.878567,-172.705872,-0.363162,-5.913748,1.526411,4.509557,5.896033,-1.690035,-4.249523,-0.026156,0.583831,-0.046895,-98.315489,188.495763,1612.279361,893.253456,0
0.055217,63.214207,111.545879,-197.437879,-0.815562,-4.965824,-1.382561,6.128971,5.024880,1.277027,-5.935943,-0.011544,0.530918,-0.009553,-114.126869,188.420260,1611.714895,893.254224,0
0.056250,-3.411641,157.936550,-166.328978,-0.238752,-3.272341,-3.692277,6.535690,3.348738,3.564225,-6.327306,-0.018850,0.565475,-0.069301,-101.165609,188.508948,1610.746557,893.094563,0
0.057292,-70.570586,190.699962,-121.813826,0.609498,-0.826199,-5.672600,5.808073,0.772037,5.578637,-5.754492,-0.026156,0.615253,-0.005818,-83.261880,188.495674,1610.277370,893.241800,0
0.058333,-124.073161,191.110713,-37.806250,2.204208,1.524085,-6.450442,4.147614,-1.558389,6.355025,-4.174808,-0.044421,0.601926,-0.065566,-30.885271,188.480208,1608.849866,893.004459,0
0.059375,-170.985743,165.559601,37.239205,3.640578,3.615199,-6.450442,2.087898,-3.635187,6.480926,-2.185972,-0.099216,0.599379,-0.028224,15.338698,188.420258,1607.735830,893.059338,0
0.060417,-178.936836,97.846134,100.269508,4.760268,5.432941,-5.355113,-0.565106,-5.421602,5.452737,0.350773,-0.139399,0.577495,-0.046895,55.443957,188.495716,1606.065839,893.031791,0
0.061458,-188.952264,13.666395,149.216478,5.721618,6.267256,-3.843083,-2.699450,-6.303782,3.996484,2.513943,-0.190541,0.588535,-0.005818,86.829207,188.495763,1605.426457,894.073743,0
0.062500,-147.132465,-59.737178,172.668182,6.219258,5.951282,-1.426215,-4.583792,-6.046479,1.616959,4.285751,-0.234377,0.598137,-0.028224,103.420976,188.495694,1604.383047,894.129965,0
0.063542,-65.988216,-110.561541,197.240152,6.682968,5.077913,1.466882,-6.255446,-5.145921,-1.316529,6.004191,-0.270907,0.597876,-0.046895,119.096636,188.420329,1603.196844,894.317335,0
0.064583,1.261469,-157.689148,166.242046,6.049608,3.398632,3.796441,-6.677090,-3.484482,-3.662480,6.466711,-0.296478,0.613031,-0.039427,106.271096,188.495738,1603.568866,894.468782,0
0.065634,70.144475,-190.307589,122.046970,5.223978,0.817579,5.824387,-5.930816,-0.940863,-5.697876,5.772931,-0.241683,0.602188,-0.046895,86.229777,188.495785,1603.077039,894.001355,0
0.066667,124.021352,-190.573369,39.467424,3.651888,-1.483001,6.510952,-4.322596,1.389563,-6.524625,4.275078,-0.234377,0.607805,-0.039427,35.606218,188.481950,1603.559105,894.567708,0
0.067708,171.387634,-165.517574,-36.390530,2.215518,-3.591866,6.542701,-2.240492,3.492092,-6.533018,2.257778,-0.190541,0.600554,-0.043161,-9.633781,188.351360,1603.438632,895.202349,0
0.068750,178.919055,-98.335666,-99.888637,1.050588,-5.377656,5.498963,0.457289,5.293210,-5.571975,-0.318103,-0.128440,0.593891,-0.028224,-50.474190,188.478440,1602.652999,895.251121,0
0.069792,188.718975,-13.600206,-148.958713,0.168408,-6.176469,3.903593,2.591632,6.142308,-4.002412,-2.463484,-0.091910,0.580892,-0.050629,-79.778400,188.521761,1602.868867,895.726843,0
0.070833,146.660983,60.105390,-172.853599,-0.340542,-5.892446,1.494662,4.468512,5.885005,-1.673248,-4.274428,-0.044421,0.599444,-0.017021,-99.163739,188.509415,1603.302306,895.075924,0
0.071875,65.244515,110.857267,-197.499432,-0.826872,-4.962274,-1.394467,6.102852,4.966068,1.247650,-5.900364,-0.029809,0.597157,-0.039427,-114.070319,188.420296,1603.001222,893.918582,0
0.072927,-4.035478,159.277531,-165.147160,-0.238752,-3.190685,-3.779586,6.535690,3.249493,3.627175,-6.323748,-0.000585,0.595982,-0.013287,-99.469109,188.495716,1603.312520,893.038833,0
0.073958,-70.581929,190.325454,-121.727652,0.575568,-0.748093,-5.696412,5.796879,0.838201,5.616408,-5.711798,-0.018850,0.576841,-0.054364,-82.130880,188.420193,1603.021259,893.224974,0
0.075000,-124.220614,191.001984,-37.264583,2.181588,1.587990,-6.418694,4.125226,-1.543686,6.417976,-4.139230,-0.011544,0.595263,-0.050629,-29.064361,188.495636,1603.359719,893.336438,0
0.076042,-170.679496,165.704572,38.248674,3.651888,3.664903,-6.418694,2.076703,-3.664593,6.426369,-2.132604,-0.091910,0.595524,-0.035692,14.897608,188.343741,1603.099944,892.425973,0
0.077083,-179.401879,96.541396,100.343372,4.816818,5.464894,-5.347176,-0.628540,-5.432629,5.427556,0.436161,-0.150358,0.591474,-0.080503,56.133867,188.513366,1603.301345,891.705611,0
0.078125,-188.986291,12.252929,148.994887,5.687688,6.238854,-3.803397,-2.710644,-6.259673,3.891567,2.549522,-0.212459,0.595002,-0.039427,86.399427,188.475245,1602.634913,890.413890,0
0.079167,-146.122982,-60.510356,173.185228,6.207948,5.983234,-1.398435,-4.613643,-6.013398,1.608566,4.292867,-0.216112,0.603690,-0.073035,103.398356,188.496527,1602.158057,890.571059,0
0.080208,-64.717856,-110.585703,197.486364,6.626418,5.077913,1.474819,-6.277834,-5.116515,-1.308136,6.007749,-0.281866,0.568806,-0.043161,119.243666,188.421620,1601.690314,890.674547,0
0.081250,2.543172,-158.063656,166.180493,6.049608,3.334727,3.828190,-6.699479,-3.473454,-3.641497,6.427575,-0.252642,0.603886,-0.035692,104.585906,188.495788,1600.867688,890.986252,0
0.082292,70.019707,-190.078052,122.736364,5.303148,0.824680,5.828356,-5.934548,-0.955566,-5.681089,5.836972,-0.263601,0.601534,-0.035692,86.003577,188.420327,1601.229115,891.576159,0
0.083343,125.291712,-190.283427,37.793182,3.606648,-1.550456,6.550638,-4.247969,1.452051,-6.478461,4.168342,-0.219765,0.604017,-0.043161,34.724038,188.495805,1600.448438,890.592826,0
0.084377,170.809167,-165.529655,-37.215341,2.238138,-3.638020,6.510952,-2.236760,3.539877,-6.528821,2.261336,-0.150358,0.606107,-0.043161,-10.957051,188.420457,1600.677562,890.496867,0
0.085416,179.157247,-98.275262,-99.876326,1.073208,-5.420259,5.451340,0.502065,5.315264,-5.584566,-0.335892,-0.132093,0.595786,-0.050629,-50.564670,188.495694,1601.181623,890.500107,0
0.086458,188.526153,-14.095523,-149.401894,0.134478,-6.165818,3.939310,2.561782,6.157011,-4.002412,-2.442137,-0.121134,0.586314,-0.046895,-81.146910,188.420347,1601.253052,890.690150,0
0.087500,146.808436,59.706720,-173.161364,-0.408402,-5.903097,1.498631,4.472243,5.903384,-1.660658,-4.217503,-0.044421,0.583831,-0.028224,-98.598239,188.512061,1600.967968,890.759902,0
0.088541,65.947750,110.905591,-197.253220,-0.815562,-4.937422,-1.382561,6.091657,4.951365,1.235060,-5.932385,-0.029809,0.600685,-0.005818,-114.138179,188.554338,1601.318273,890.604784,0
0.089583,-2.152623,158.141926,-166.193561,-0.204822,-3.254590,-3.731963,6.487183,3.304629,3.539045,-6.313074,0.028639,0.606564,-0.039427,-101.075129,188.495588,1600.832402,890.680200,0
0.090625,-69.969434,190.446263,-122.047728,0.575568,-0.811998,-5.648789,5.770760,0.797767,5.587031,-5.704683,0.003068,0.607479,-0.065566,-83.205330,188.420363,1600.795282,889.953987,0
0.091666,-124.402094,190.784528,-37.843182,2.102418,1.509884,-6.379008,4.143882,-1.525307,6.401189,-4.135672,-0.055380,0.598399,-0.039427,-30.568591,188.495685,1600.521451,889.900408,0
0.092708,-171.087826,165.523358,37.903977,3.595338,3.647151,-6.363134,2.046852,-3.649890,6.438959,-2.164625,-0.106522,0.594675,-0.058098,16.062538,188.420287,1600.491406,890.457188,0
0.093750,-179.106974,97.048794,100.454167,4.771578,5.411639,-5.323365,-0.647197,-5.377493,5.410770,0.446834,-0.139399,0.569786,-0.002084,55.681467,188.495790,1599.887872,890.054901,0
0.094801,-188.441851,10.803220,149.795076,5.732928,6.238854,-3.755774,-2.721838,-6.255997,3.874780,2.553080,-0.212459,0.600293,-0.050629,87.620907,188.420263,1599.428431,890.559264,0
0.095833,-146.134325,-61.162725,172.680493,6.196638,5.915779,-1.406372,-4.572598,-5.892098,1.579189,4.246615,-0.212459,0.522164,-0.035692,103.409666,188.495674,1597.754397,889.485948,0
0.096875,-63.765086,-110.887726,197.572538,6.637728,5.031760,1.470851,-6.233057,-5.046675,-1.303939,5.982844,-0.278213,0.563384,-0.046895,119.300216,188.420309,1596.853193,889.079784,0
0.097917,3.620709,-157.761633,166.069697,6.072228,3.334727,3.816284,-6.658434,-3.473454,-3.612120,6.413343,-0.300131,0.596896,-0.054364,106.327646,188.442967,1596.070654,889.420070,0
0.098958,70.609517,-190.500883,121.800758,5.246598,0.853082,5.780733,-5.979324,-0.999675,-5.634926,5.751584,-0.252642,0.610549,-0.054364,86.523837,188.486135,1594.500989,889.628870,0
0.100000,124.146120,-190.609611,38.137879,3.685818,-1.472350,6.510952,-4.330059,1.371184,-6.482658,4.239499,-0.205153,0.602645,-0.054364,35.312158,188.496201,1594.210171,890.654484,0
0.101042,170.854537,-165.312198,-37.301515,2.215518,-3.570565,6.514921,-2.266611,3.484741,-6.516231,2.261336,-0.201500,0.603363,-0.028224,-9.690331,188.420725,1593.403248,890.882791,0
0.102083,178.771602,-97.538327,-100.184091,1.073208,-5.430910,5.506901,0.461020,5.315264,-5.550992,-0.296756,-0.117481,0.593238,-0.054364,-50.496810,188.496138,1592.576050,891.135749,0
0.103125,188.616893,-13.443154,-149.426516,0.077928,-6.162268,3.931373,2.565513,6.145984,-4.019199,-2.438579,-0.080951,0.588731,-0.043161,-80.083770,188.420625,1592.329165,891.551669,0
0.104167,146.354736,59.900014,-173.149054,-0.397092,-5.899547,1.502600,4.513288,5.921763,-1.702625,-4.256639,-0.011544,0.577560,-0.046895,-99.457799,188.496335,1592.613600,892.197325,0
0.105216,64.915582,111.425070,-197.142425,-0.826872,-4.965824,-1.374624,6.136434,4.977095,1.277027,-5.953732,0.021333,0.596308,-0.050629,-113.708399,188.420667,1592.970943,892.545563,0
0.106250,-1.766978,158.685566,-165.935038,-0.261372,-3.251039,-3.751805,6.494645,3.282574,3.593602,-6.362884,0.028639,0.606760,-0.050629,-99.638759,188.420692,1594.147423,892.334737,0
0.107292,-70.037489,190.240888,-122.441667,0.530328,-0.783596,-5.672600,5.770760,0.801443,5.587031,-5.747377,-0.022503,0.604670,-0.069301,-82.311840,188.420750,1594.498533,892.700608,0
0.108333,-124.753711,190.639557,-38.446402,2.170278,1.580889,-6.414725,4.110300,-1.543686,6.417976,-4.142788,-0.026156,0.601992,-0.058098,-29.505451,188.496096,1594.999021,892.628987,0
0.109375,-171.087826,165.849542,37.657765,3.550098,3.679104,-6.371071,2.039390,-3.701351,6.485123,-2.129047,-0.077298,0.597027,-0.039427,14.682718,188.344965,1596.229344,892.195562,0
0.110417,-179.640071,97.314574,100.343372,4.715028,5.461343,-5.319396,-0.665853,-5.410575,5.427556,0.436161,-0.183235,0.590298,-0.028224,56.009457,188.420314,1596.922220,892.479193,0
