1-Time,2-VGERA,3-VGERB,4-VGERC,5-VN,6-IGERAN,7-IGERBN,8-IGERCN,9-IGERAT,10-IGERBT,11-IGERCT,12-IN,13-IFD,14-IFAULT,15-VFAULT,16-Speed (rad/s),17-Active Power,18-Reactive Power,19-FAULT 
0.000000,150.653543,-176.124607,5.551705,3.018528,-0.765845,4.939393,-3.677069,0.705874,-4.904701,3.613318,-0.216112,0.552475,-0.017021,14.908918,188.268993,982.021998,1012.098154,0
0.001042,165.069862,-132.258845,-70.441667,1.582158,-2.558735,5.010828,-1.893474,2.503315,-4.976045,1.966035,-0.197847,0.545877,-0.073035,-33.305611,188.193603,981.389743,1011.322558,0
0.002083,186.926860,-50.169102,-125.654735,0.496398,-4.206064,4.641749,-0.012864,4.183133,-4.699063,0.069703,-0.172276,0.541631,-0.076769,-66.206400,188.344567,981.387892,1010.868487,0
0.003125,156.415534,21.434416,-163.546781,-0.170892,-4.827363,3.502766,1.651327,4.848444,-3.641497,-1.463729,-0.150358,0.551430,-0.050629,-95.929079,188.419878,981.180987,1011.343218,0
0.004167,107.540699,91.841924,-179.033523,-0.498882,-5.011977,1.494662,3.599102,5.035907,-1.656461,-3.413429,-0.080951,0.536536,-0.035692,-104.094899,188.269062,980.067491,1012.429552,0
0.005208,29.923968,141.409874,-182.849811,-0.566742,-4.269969,-0.307075,4.475974,4.308109,0.190084,-4.242408,-0.033462,0.559922,-0.024490,-105.915809,188.269031,978.691671,1012.064679,0
0.006250,-45.617085,173.267217,-151.543940,0.055308,-2.984769,-2.227869,4.934933,3.076732,2.128956,-4.790316,-0.037115,0.549405,-0.028224,-95.555849,188.344355,977.490688,1012.854196,0
0.007292,-112.276961,175.236405,-91.098864,1.208928,-1.135074,-3.902612,4.584184,1.220479,3.790846,-4.445205,-0.062686,0.550711,-0.069301,-60.132930,188.419809,976.405169,1013.841659,0
0.008333,-150.875490,176.311605,-4.912311,2.803638,0.703970,-4.878883,3.662536,-0.654154,4.852609,-3.584206,-0.088257,0.549274,-0.054364,-8.287891,188.268997,975.725657,1014.602838,0
0.009375,-164.679313,132.687461,70.687121,4.217388,2.539464,-4.954286,1.849090,-2.462623,4.957527,-1.908460,-0.132093,0.544897,-0.028224,37.359268,188.193610,974.116268,1014.962288,0
0.010417,-187.182834,50.054077,125.764773,5.257908,4.211645,-4.601082,-0.046446,-4.197577,4.634381,-0.019243,-0.146705,0.531637,-0.050629,71.266647,188.344493,972.763532,1015.728279,0
0.011458,-156.728220,-20.969557,163.053599,5.993058,4.886198,-3.458130,-1.755413,-4.848185,3.568421,1.546209,-0.175929,0.533858,-0.050629,100.480376,188.419775,971.078644,1016.657336,0
0.012500,-107.615193,-91.280419,178.503410,6.287118,5.131167,-1.450027,-3.736771,-5.090784,1.541419,3.520814,-0.201500,0.543264,-0.046895,108.227726,188.269167,969.232451,1017.043538,0
0.013542,-30.724382,-140.957096,182.689016,6.388908,4.382059,0.379490,-4.587523,-4.407095,-0.221192,4.406718,-0.238030,0.556591,-0.035692,111.948716,188.193767,968.472568,1018.097427,0
0.014583,44.260889,-173.442647,151.444697,5.834718,3.128811,2.288379,-5.102452,-3.157340,-2.239801,4.940395,-0.252642,0.561490,-0.061832,100.491686,188.344574,968.257057,1019.160399,0
0.015625,111.771452,-174.554090,91.553599,4.681098,1.215211,3.978996,-4.706927,-1.301086,-3.821955,4.563263,-0.245336,0.556460,-0.031958,62.625807,188.420005,966.642907,1020.082296,0
0.016667,150.698913,-175.991717,5.760985,3.086388,-0.684188,4.979079,-3.751696,0.591925,-4.921488,3.680917,-0.212459,0.560184,-0.054364,15.338698,188.269151,965.776092,1021.642252,0
0.017708,164.797641,-133.104508,-70.330871,1.616088,-2.509031,5.026702,-1.986758,2.459206,-5.047389,2.047866,-0.172276,0.553324,-0.028224,-31.439461,188.269116,965.743795,1023.172753,0
0.018750,186.824777,-51.594649,-125.987122,0.530328,-4.223816,4.709215,-0.109879,4.168430,-4.766210,0.162207,-0.154011,0.548556,-0.065566,-64.509900,188.344608,965.478744,1024.596548,0
0.019792,156.801179,19.851817,-163.669887,-0.204822,-4.852215,3.570232,1.576700,4.848444,-3.704447,-1.396130,-0.117481,0.562339,-0.046895,-96.596369,188.419952,965.172728,1025.375587,0
0.020833,108.777032,90.972099,-178.873485,-0.532812,-5.093634,1.498631,3.584177,5.054286,-1.681641,-3.402756,-0.037115,0.554631,-0.054364,-103.235339,188.269039,965.478533,1025.473031,0
0.021875,31.727426,141.228660,-182.960607,-0.566742,-4.309022,-0.263420,4.457317,4.370596,0.118740,-4.224618,-0.051727,0.560445,-0.046895,-104.954459,188.269124,965.297758,1026.321248,0
0.022917,-44.074505,173.363865,-151.519319,0.032688,-3.038023,-2.287398,4.942396,3.080408,2.091186,-4.793874,-0.040768,0.563450,-0.024490,-95.193929,188.344486,965.204435,1026.163319,0
0.023958,-111.948028,175.200162,-91.529735,1.186308,-1.138624,-3.898643,4.554333,1.198424,3.820223,-4.423858,-0.059033,0.553324,-0.005818,-57.916170,188.419893,965.719064,1025.601207,0
0.025000,-151.079655,176.166634,-5.392424,2.792328,0.703970,-4.930475,3.647610,-0.687236,4.802249,-3.584206,-0.055380,0.551038,-0.024490,-8.491471,188.268927,965.586332,1025.072659,0
0.026042,-165.291808,132.808270,70.231629,4.206078,2.560766,-5.013815,1.822970,-2.517759,4.961723,-1.915576,-0.106522,0.546335,-0.069301,37.370578,188.269031,966.410142,1025.114764,0
0.027083,-187.194176,50.368181,125.727841,5.223978,4.236497,-4.569334,-0.038983,-4.201253,4.655365,-0.012128,-0.128440,0.528436,-0.061832,70.565427,188.269122,966.676729,1025.242232,0
0.028125,-156.626138,-21.138690,163.238258,5.959128,4.893299,-3.450193,-1.733025,-4.837158,3.539045,1.585345,-0.183235,0.533400,-0.024490,100.446446,188.419952,966.967115,1024.706400,0
0.029167,-107.955468,-91.485794,178.540341,6.275808,5.081464,-1.398435,-3.785279,-5.035648,1.507845,3.552835,-0.212459,0.541239,-0.046895,107.786636,188.269078,967.270540,1023.855222,0
0.030208,-29.930407,-141.138309,182.849054,6.366288,4.335905,0.407270,-4.583792,-4.322553,-0.267356,4.364024,-0.227071,0.506813,-0.039427,109.607546,188.269118,966.852612,1022.591529,0
0.031250,45.361111,-173.031896,151.604735,5.800788,3.064906,2.339971,-5.083795,-3.083825,-2.243998,4.876354,-0.234377,0.515371,-0.020755,98.953526,188.344339,966.284378,1021.407589,0
0.032292,111.907562,-175.013164,91.073485,4.658478,1.190359,3.986933,-4.695733,-1.253301,-3.889102,4.531243,-0.230724,0.553520,-0.020755,63.021657,188.419855,967.172715,1020.870170,0
0.033333,150.381323,-176.172931,5.170076,3.052458,-0.666437,4.955267,-3.751696,0.665440,-4.892111,3.641781,-0.223418,0.549732,-0.013287,14.965468,188.344585,967.457494,1019.828885,0
0.034375,164.525421,-132.427978,-70.650947,1.627398,-2.540984,5.054482,-1.956907,2.473909,-5.026405,2.015845,-0.212459,0.548164,-0.005818,-33.045481,188.269066,967.286169,1019.274257,0
0.035417,186.756722,-50.422801,-125.617803,0.541638,-4.202514,4.625875,-0.038983,4.183133,-4.703260,0.108839,-0.175929,0.536928,-0.043161,-66.161160,188.269044,967.290894,1018.167819,0
0.036458,156.585671,21.035746,-163.435985,-0.170892,-4.887718,3.526577,1.640133,4.841092,-3.670874,-1.435266,-0.055380,0.545224,-0.002084,-95.963009,188.426435,967.323168,1017.720967,0
0.037500,107.971714,91.370769,-178.848864,-0.476262,-5.051031,1.542285,3.636416,5.050610,-1.614494,-3.384967,-0.073645,0.550123,-0.020755,-104.072279,188.420421,967.149849,1017.152663,0
0.038542,31.307753,141.192417,-182.948296,-0.555432,-4.340975,-0.315012,4.464780,4.330163,0.127133,-4.263755,-0.044421,0.553586,-0.046895,-105.689609,188.268955,967.460513,1016.834243,0
0.039583,-44.029135,173.653806,-151.580872,0.032688,-3.045123,-2.219932,4.983441,3.098787,2.074399,-4.808105,-0.022503,0.559857,-0.046895,-95.408819,188.344874,967.423133,1017.285032,0
0.040625,-111.891316,174.716926,-91.849811,1.174998,-1.163476,-3.918486,4.591647,1.231506,3.799240,-4.473668,-0.015197,0.557832,-0.020755,-60.935940,188.420253,967.204657,1017.951783,0
0.041667,-151.419930,176.094149,-5.798674,2.781018,0.686219,-4.906663,3.707312,-0.665181,4.852609,-3.587764,-0.044421,0.560445,-0.035692,-9.011731,188.420260,967.599817,1018.418515,0
0.042708,-165.121670,133.617690,70.108523,4.217388,2.525263,-4.990004,1.916255,-2.499381,4.991100,-1.947596,-0.106522,0.554239,-0.039427,36.884248,188.269581,967.739056,1018.986419,0
0.043750,-187.126121,52.095750,125.863258,5.269218,4.222296,-4.648705,-0.024058,-4.223307,4.630185,-0.026359,-0.150358,0.552475,-0.046895,71.176167,188.345015,968.270168,1018.676600,0
0.044792,-157.091180,-19.471525,163.250569,5.959128,4.871997,-3.505753,-1.718100,-4.888618,3.631372,1.539093,-0.161317,0.560445,-0.013287,100.514306,188.420376,968.681937,1019.976484,0
0.045833,-108.760785,-90.470998,178.491099,6.287118,5.134718,-1.453995,-3.706920,-5.076081,1.566599,3.503025,-0.186888,0.536928,-0.058098,108.182486,188.420256,968.386558,1020.664869,0
0.046875,-31.790577,-140.836287,182.713637,6.321048,4.346556,0.371553,-4.580061,-4.399743,-0.196012,4.371139,-0.245336,0.558616,-0.028224,111.993956,188.269398,968.461961,1021.693013,0
0.047920,44.158806,-173.382242,151.420076,5.778168,3.064906,2.320128,-5.098721,-3.164691,-2.214621,4.919048,-0.219765,0.561033,-0.020755,100.435136,188.344833,968.546922,1022.838531,0
0.048958,111.726082,-174.578252,91.812121,4.613238,1.215211,3.986933,-4.692002,-1.282707,-3.834545,4.627304,-0.219765,0.556656,-0.024490,62.297817,188.420283,968.346068,1023.857829,0
0.050000,150.698913,-176.233336,5.650189,3.041148,-0.673537,4.971142,-3.759159,0.599277,-4.900505,3.673801,-0.230724,0.550450,-0.050629,14.535688,188.495825,967.958680,1024.706688,0
0.051042,164.411996,-132.983699,-70.367803,1.593468,-2.540984,5.038608,-2.005415,2.418773,-5.068372,2.022961,-0.194194,0.549274,-0.058098,-32.163301,188.269499,967.820408,1025.161779,0
0.052083,186.711352,-50.120779,-125.864016,0.552948,-4.213165,4.689372,-0.094954,4.186809,-4.766210,0.147975,-0.124787,0.542872,-0.009553,-64.611690,188.420359,967.679427,1026.327626,0
0.053125,156.755809,21.663953,-163.337500,-0.148272,-4.866416,3.601980,1.599088,4.870498,-3.691857,-1.410362,-0.099216,0.546661,-0.024490,-96.302309,188.420321,967.579941,1027.029401,0
0.054167,107.427274,92.047300,-178.725758,-0.464952,-5.072332,1.558160,3.595371,5.032231,-1.681641,-3.384967,-0.062686,0.566977,-0.020755,-103.235339,188.495664,966.832039,1027.750375,0
0.055208,29.912626,141.192417,-183.182198,-0.544122,-4.309022,-0.279295,4.461049,4.370596,0.101953,-4.270870,-0.069992,0.534250,-0.024490,-105.022319,188.269548,966.452701,1028.678458,0
0.056250,-45.208755,173.448431,-151.580872,0.021378,-3.055774,-2.239775,4.942396,3.124517,2.074399,-4.790316,-0.040768,0.538822,-0.024490,-95.216549,188.420314,965.976238,1029.068634,0
0.057292,-112.163536,175.163919,-91.369697,1.174998,-1.177677,-3.906580,4.606572,1.238857,3.799240,-4.484341,-0.037115,0.554892,-0.024490,-58.187610,188.420358,965.931245,1029.483720,0
0.058333,-151.045627,176.251201,-5.244697,2.814948,0.668468,-4.902695,3.718506,-0.635775,4.827429,-3.616227,-0.029809,0.552475,-0.002084,-8.796841,188.494315,965.316093,1029.883166,0
0.059375,-165.064958,132.977403,70.527084,4.228698,2.532364,-5.001909,1.919986,-2.481002,5.007887,-1.947596,-0.106522,0.549797,-0.028224,37.053898,188.269060,964.966227,1030.179442,0
0.060417,-187.103436,51.177602,125.826326,5.235288,4.222296,-4.652674,0.028181,-4.186550,4.684742,-0.090400,-0.121134,0.535621,-0.046895,70.520187,188.496018,963.972163,1031.378944,0
0.061458,-156.943728,-20.148056,163.299811,5.993058,4.857796,-3.489879,-1.684517,-4.892294,3.606192,1.556883,-0.150358,0.548490,-0.009553,100.661336,188.420088,964.032314,1031.177879,0
0.062500,-108.613333,-90.736778,178.367993,6.287118,5.113416,-1.453995,-3.714383,-5.109163,1.579189,3.542161,-0.234377,0.558028,-0.031958,107.865806,188.495416,964.533677,1031.656418,0
0.063542,-31.507015,-141.174552,182.615152,6.377598,4.374958,0.347742,-4.550210,-4.429149,-0.191815,4.410276,-0.205153,0.558028,-0.020755,109.358726,188.269322,964.896052,1032.311334,0
0.064583,43.376174,-173.418485,151.592425,5.800788,3.135911,2.240756,-5.072601,-3.164691,-2.189441,4.911932,-0.241683,0.562927,-0.031958,98.885666,188.495399,964.761335,1032.160032,0
0.065625,111.487889,-174.566171,91.972159,4.635858,1.201009,3.939310,-4.680807,-1.271680,-3.872315,4.620189,-0.263601,0.557571,-0.020755,63.666327,188.419820,965.298689,1031.924214,0
0.066667,150.971133,-176.027960,5.957955,3.063768,-0.606082,4.947330,-3.789010,0.643386,-4.913095,3.712938,-0.234377,0.554696,0.005384,15.361318,188.495457,965.904591,1032.177030,0
0.067708,164.740929,-133.297803,-70.183144,1.638708,-2.491280,5.038608,-1.994221,2.404070,-5.055782,2.065655,-0.168623,0.548686,-0.028224,-32.819281,188.344581,965.658587,1032.610882,0
0.068750,186.631955,-51.836267,-125.839394,0.575568,-4.195413,4.673498,-0.083760,4.135348,-4.753620,0.165765,-0.164970,0.551169,-0.039427,-66.296880,188.493603,965.377564,1032.252175,0
0.069792,156.823864,20.165921,-163.448296,-0.159582,-4.834464,3.570232,1.576700,4.837417,-3.729627,-1.381899,-0.088257,0.560510,-0.020755,-95.815979,188.496087,965.085034,1032.309426,0
0.070833,108.504812,91.117070,-178.775001,-0.487572,-5.075882,1.574034,3.565520,5.039583,-1.711018,-3.363619,-0.084604,0.559792,-0.009553,-104.185379,188.496127,965.176506,1032.388405,0
0.071875,31.432521,141.132013,-182.911364,-0.578052,-4.309022,-0.239609,4.405078,4.377948,0.106150,-4.206829,-0.040768,0.560380,-0.058098,-105.791399,188.420755,964.855010,1031.901586,0
0.072917,-44.097190,173.774615,-151.420834,-0.035172,-3.069975,-2.200089,4.934933,3.095111,2.045022,-4.765411,-0.026156,0.554762,-0.039427,-95.374889,188.496145,964.586341,1031.293475,0
0.073958,-112.152193,174.680683,-91.726705,1.186308,-1.206079,-3.878800,4.587915,1.297669,3.782453,-4.480783,-0.037115,0.553586,-0.031958,-60.687120,188.496054,963.978029,1031.653417,0
0.075000,-151.136367,176.323686,-5.626326,2.781018,0.643616,-4.882852,3.733432,-0.602694,4.810643,-3.580648,-0.069992,0.549274,-0.035692,-8.355751,188.496141,963.566562,1031.310707,0
0.076042,-164.577230,133.412315,70.736364,4.228698,2.486210,-4.974129,1.931180,-2.422190,4.965920,-2.000964,-0.121134,0.548294,-0.002084,37.664638,188.571621,962.416475,1031.578878,0
0.077083,-186.831216,50.585637,126.121781,5.246598,4.176143,-4.636800,0.031913,-4.142441,4.672152,-0.104632,-0.128440,0.558093,-0.031958,71.424987,188.496132,961.516788,1031.577358,0
0.078125,-157.147893,-21.259499,162.967425,5.993058,4.868447,-3.549408,-1.609890,-4.840833,3.601995,1.471494,-0.179582,0.527782,-0.013287,100.480376,188.496082,959.908987,1031.827806,0
0.079167,-107.569823,-91.340823,178.355682,6.287118,5.109866,-1.537336,-3.688263,-5.061378,1.629549,3.481678,-0.219765,0.534903,-0.046895,108.137246,188.496121,958.223651,1032.159989,0
0.080208,-30.350080,-140.775882,182.873675,6.354978,4.403360,0.252496,-4.535284,-4.451204,-0.175029,4.342677,-0.219765,0.541893,-0.013287,111.960026,188.571364,957.108874,1032.367702,0
0.081250,44.294916,-173.696346,151.124622,5.812098,3.157213,2.268536,-5.091258,-3.249234,-2.118097,4.929721,-0.234377,0.551757,-0.028224,100.276796,188.496009,955.988352,1034.018958,0
0.082292,111.941589,-174.360795,91.898296,4.692408,1.296867,3.923436,-4.774092,-1.389304,-3.834545,4.630862,-0.223418,0.560314,-0.035692,63.032967,188.495968,954.729784,1035.315288,0
0.083333,150.869051,-176.112526,5.662500,3.063768,-0.574130,4.951299,-3.852443,0.496356,-4.892111,3.773421,-0.241683,0.559596,-0.024490,15.112498,188.496197,953.094623,1036.879802,0
0.084375,164.241859,-133.648149,-70.441667,1.627398,-2.477079,5.082262,-2.109894,2.393043,-5.076766,2.108349,-0.183235,0.553520,-0.046895,-31.473391,188.722239,952.968035,1037.498264,0
0.085417,186.189597,-51.775862,-126.171781,0.564258,-4.167011,4.740964,-0.154656,4.124321,-4.770407,0.290289,-0.164970,0.558942,-0.013287,-64.645620,188.496223,951.798925,1038.791084,0
0.086458,157.084741,19.984707,-163.362122,-0.148272,-4.816712,3.637698,1.524461,4.811686,-3.779988,-1.292953,-0.106522,0.559922,-0.054364,-96.415409,188.496161,950.672113,1039.633549,0
0.087500,108.618237,90.863371,-178.578031,-0.442332,-5.082983,1.653406,3.505818,5.061637,-1.761378,-3.352946,-0.088257,0.546727,-0.043161,-103.359749,188.495997,950.439914,1040.253738,0
0.088542,32.169783,141.035366,-183.009849,-0.611982,-4.387129,-0.164206,4.457317,4.418381,0.030609,-4.224618,-0.044421,0.567304,-0.043161,-104.784809,188.722362,950.281306,1041.218065,0
0.089583,-42.758775,173.847101,-151.273107,0.032688,-3.133880,-2.180246,4.961052,3.150247,2.028235,-4.768969,-0.011544,0.560902,-0.043161,-95.114759,188.496214,950.224575,1041.612273,0
0.090625,-111.823261,174.620279,-92.108334,1.163688,-1.245132,-3.870863,4.625229,1.282966,3.765666,-4.516362,-0.040768,0.561882,-0.031958,-58.843590,188.496025,950.434973,1041.681864,0
0.091667,-151.295162,175.997502,-6.007955,2.747088,0.615214,-4.827292,3.737163,-0.587991,4.781266,-3.623342,-0.040768,0.559008,-0.031958,-9.034351,188.496058,950.015592,1042.057715,0
0.092708,-165.030930,133.810985,70.317803,4.228698,2.507512,-4.966192,1.934911,-2.418514,4.995297,-1.997406,-0.095563,0.550711,-0.005818,37.110448,188.646902,950.463466,1042.296219,0
0.093750,-186.695106,52.240721,126.171023,5.280528,4.154841,-4.652674,0.061764,-4.153468,4.697332,-0.125979,-0.139399,0.552541,-0.043161,70.678527,188.496187,950.963540,1042.563717,0
0.094792,-157.204605,-20.184298,163.262879,5.981748,4.864897,-3.521628,-1.617353,-4.859212,3.648159,1.464379,-0.194194,0.555154,-0.020755,100.423826,188.571489,951.304206,1043.097102,0
0.095833,-108.556620,-90.905911,178.281819,6.298428,5.077913,-1.545273,-3.673338,-5.090784,1.604369,3.471004,-0.205153,0.553520,-0.054364,107.967596,188.496174,951.845388,1042.943030,0
0.096875,-31.098685,-140.872529,182.639773,6.366288,4.382059,0.312024,-4.550210,-4.447528,-0.145652,4.353350,-0.245336,0.553390,-0.058098,109.347416,188.722328,951.840930,1043.048719,0
0.097917,43.829874,-173.503051,151.210796,5.789478,3.203366,2.201070,-5.094990,-3.201449,-2.134884,4.926164,-0.230724,0.552606,-0.061832,98.738636,188.571545,952.201136,1042.249820,0
0.098958,111.964274,-174.481604,91.799811,4.669788,1.307518,3.903593,-4.755435,-1.370925,-3.805168,4.602399,-0.248989,0.556133,-0.028224,63.474057,188.571449,951.826115,1041.788463,0
0.100000,150.664886,-176.027960,5.403977,3.063768,-0.574130,4.911613,-3.807667,0.496356,-4.845948,3.755632,-0.179582,0.553520,-0.065566,14.614858,188.496172,951.239539,1041.309726,0
0.101042,164.003666,-133.164913,-70.577084,1.604778,-2.438026,5.066388,-2.031535,2.356285,-5.051586,2.122580,-0.124787,0.543918,0.012853,-33.316921,188.722382,950.368160,1041.298780,0
0.102083,186.132885,-50.736905,-125.900947,0.575568,-4.138609,4.740964,-0.143462,4.091239,-4.711653,0.212017,-0.154011,0.542872,-0.031958,-66.398670,188.646918,950.079808,1039.911562,0
0.103125,156.857891,21.531063,-162.992804,-0.170892,-4.884167,3.613886,1.483416,4.789632,-3.729627,-1.317858,-0.139399,0.562927,-0.013287,-95.668949,188.571529,949.734385,1039.285698,0
0.104167,107.586069,91.696954,-178.344129,-0.453642,-5.061681,1.665311,3.546863,5.050610,-1.778165,-3.331599,-0.066339,0.532551,-0.020755,-104.174069,188.496165,948.853907,1039.605970,0
0.105208,30.706601,141.035366,-182.997538,-0.544122,-4.344525,-0.172143,4.420004,4.418381,0.022216,-4.213945,-0.044421,0.551626,-0.028224,-105.633059,188.722317,948.249533,1039.853622,0
0.106250,-43.904368,174.004153,-151.162311,0.043998,-3.148081,-2.100875,4.964784,3.179653,1.998858,-4.779642,-0.022503,0.555807,-0.031958,-95.024279,188.646906,947.708417,1040.702533,0
0.107292,-112.152193,174.330337,-92.132955,1.152378,-1.248683,-3.799428,4.599110,1.323400,3.702716,-4.477225,-0.029809,0.557440,-0.069301,-61.467510,188.571437,946.416367,1040.644579,0
0.108333,-151.238450,175.852531,-6.131061,2.747088,0.586811,-4.855072,3.748357,-0.558585,4.772872,-3.666036,-0.069992,0.555349,-0.024490,-9.260551,188.571540,946.061665,1041.229527,0
0.109375,-164.588573,134.137169,70.207008,4.228698,2.425855,-4.986035,1.998345,-2.367054,5.012084,-2.079237,-0.084604,0.551561,-0.009553,37.031278,188.722145,945.347414,1042.250641,0
0.110417,-186.400201,52.639391,126.281819,5.291838,4.129989,-4.660611,0.102809,-4.182874,4.743495,-0.165115,-0.139399,0.552606,-0.046895,71.413677,188.647034,945.580269,1043.107066,0
