1-Time,2-VGERA,3-VGERB,4-VGERC,5-VN,6-IGERAN,7-IGERBN,8-IGERCN,9-IGERAT,10-IGERBT,11-IGERCT,12-IN,13-IFD,14-IFAULT,15-VFAULT,16-Speed (rad/s),17-Active Power,18-Reactive Power,19-FAULT 
0.000000,-143.219302,171.708781,-6.241856,2.758398,3.551294,-3.851020,-0.076297,-3.330100,3.891567,-0.047706,-0.128440,0.391318,-0.046895,8.993788,188.445493,1205.402395,-2.871629,0
0.001042,-184.301839,123.010657,55.594318,3.945948,4.470816,-2.815220,-1.796459,-4.186550,2.938918,1.681407,-0.168623,0.392233,-0.043161,4.831708,188.497936,1205.939281,-3.178233,0
0.002084,-187.330286,46.127784,113.885038,5.076948,4.364307,-1.370655,-3.020348,-4.182874,1.432305,2.915980,-0.219765,0.367018,-0.054364,-2.123942,188.496277,1205.532848,-4.756999,0
0.003125,-160.902260,-18.033898,167.116099,6.060918,3.899221,0.188998,-3.986773,-3.727081,-0.095291,3.844578,-0.201500,0.399941,-0.035692,-14.033371,188.496331,1205.158745,-4.530186,0
0.004167,-105.448775,-76.879981,183.993940,6.388908,2.578517,2.050264,-4.277820,-2.440569,-1.878886,4.154111,-0.227071,0.411504,-0.058098,-21.735481,188.496035,1205.352723,-4.537745,0
0.005208,-30.860492,-133.080346,189.939963,6.547248,1.083850,3.451174,-4.087520,-0.885726,-3.351925,3.965545,-0.248989,0.402554,-0.020755,-14.972101,188.496132,1205.139929,-4.375574,0
0.006250,35.096148,-167.873350,148.453220,5.732928,-0.662887,4.185362,-2.990497,0.823498,-4.077953,2.994253,-0.205153,0.397851,-0.031958,-12.529141,188.496253,1205.602068,-4.984276,0
0.007292,88.156366,-197.483646,70.330114,4.262628,-2.548084,4.613969,-1.617353,2.701806,-4.594146,1.617366,-0.157664,0.391710,-0.054364,-10.278451,188.496194,1205.332387,-4.991016,0
0.008333,143.156151,-171.074789,6.573485,3.041148,-3.485358,3.947247,-0.038983,3.679555,-3.956249,0.187112,-0.168623,0.394323,-0.050629,-3.967471,188.571685,1205.427216,-4.810347,0
0.009375,184.159290,-122.630364,-55.619697,1.864908,-4.309022,2.955101,1.666253,4.528654,-2.970026,-1.520655,-0.099216,0.392690,-0.043161,-0.664952,188.496333,1205.622249,-4.938457,0
0.010417,186.858805,-45.602520,-114.058144,0.756528,-4.259318,1.478788,2.897605,4.495572,-1.576724,-2.765901,-0.073645,0.401640,-0.035692,7.772308,188.499538,1205.923541,-5.226486,0
0.011458,160.374066,19.006154,-167.067614,-0.170892,-3.811983,-0.124520,3.852836,3.999346,0.039003,-3.758540,-0.069992,0.413006,-0.046895,20.326408,188.496025,1206.068232,-5.584024,0
0.012500,104.591649,77.598539,-183.883902,-0.532812,-2.484179,-1.934194,4.181196,2.764294,1.801614,-4.004032,-0.051727,0.385374,-0.046895,25.404598,188.496145,1206.107923,-5.364342,0
0.013542,29.901283,133.460639,-189.866857,-0.736392,-1.017914,-3.354947,3.942388,1.216803,3.304030,-3.868834,-0.069992,0.392690,-0.039427,20.993698,188.496078,1205.956372,-5.401241,0
0.014583,-35.624342,168.012024,-148.318561,0.100548,0.750124,-4.073261,2.871485,-0.485070,4.076221,-2.879752,-0.091910,0.398439,-0.058098,17.612008,188.496071,1206.685997,-5.499709,0
0.015625,-88.571135,197.718967,-70.146212,1.525608,2.638872,-4.513774,1.487147,-2.363378,4.546251,-1.499308,-0.124787,0.394127,-0.058098,16.153018,188.571471,1206.907386,-5.361530,0
0.016667,-143.854482,171.201383,-6.426515,2.735778,3.600998,-3.823240,-0.065103,-3.330100,3.954517,-0.019243,-0.113828,0.394454,-0.028224,8.903308,188.571580,1207.552011,-5.252132,0
0.017708,-184.721511,122.720715,55.840530,3.934638,4.406911,-2.811251,-1.811384,-4.160820,2.913737,1.706312,-0.197847,0.391384,-0.069301,5.510308,188.496011,1207.247384,-5.539125,0
0.018750,-187.284916,46.006975,114.352841,5.043018,4.325254,-1.402404,-3.053930,-4.230659,1.482665,2.851939,-0.183235,0.404514,-0.035692,-4.057951,188.496103,1207.542390,-4.206258,0
0.019792,-160.561985,-18.939965,167.337690,6.049608,3.899221,0.240590,-4.027818,-3.690324,-0.145652,3.844578,-0.230724,0.381716,-0.035692,-14.531011,188.571505,1207.208128,-4.690885,0
0.020833,-104.212443,-77.713563,183.920076,6.400218,2.571417,2.022484,-4.311402,-2.389108,-1.899869,4.104301,-0.183235,0.387660,-0.061832,-21.294391,188.571466,1206.269914,-4.862287,0
0.021875,-28.932267,-133.660230,189.890720,6.547248,1.080300,3.463080,-4.102445,-0.904105,-3.322548,4.001123,-0.238030,0.373289,-0.061832,-14.870311,188.496201,1206.436839,-3.664897,0
0.022917,36.094288,-167.945835,148.219319,5.744238,-0.655786,4.173456,-2.986766,0.772037,-4.094740,2.997811,-0.197847,0.388313,-0.035692,-13.026781,188.571476,1206.571116,-2.791070,0
0.023958,88.519326,-197.664859,70.207008,4.285248,-2.565836,4.645718,-1.594965,2.687103,-4.564769,1.631597,-0.172276,0.397459,-0.020755,-11.341591,188.496082,1206.306022,-2.410983,0
0.025000,143.700591,-170.857333,6.979735,3.075078,-3.464056,3.951216,-0.053909,3.697934,-3.981429,0.162207,-0.113828,0.398439,-0.058098,-3.458521,188.571529,1206.788848,-2.682766,0
0.026042,184.612990,-122.400827,-55.779735,1.898838,-4.340975,2.943195,1.643865,4.521302,-2.995206,-1.502866,-0.066339,0.395434,-0.058098,-0.959012,188.495693,1206.925711,-2.131665,0
0.027083,186.779407,-45.916624,-114.673675,0.756528,-4.280620,1.470851,2.905068,4.528654,-1.534757,-2.755228,-0.091910,0.414052,-0.054364,7.014538,188.571587,1207.186030,-2.397700,0
0.028125,160.317354,19.380662,-167.276894,-0.216132,-3.819084,-0.120551,3.841641,4.021400,0.055790,-3.733635,-0.048074,0.391776,-0.031958,20.190688,188.496353,1207.194056,-2.191762,0
0.029167,103.559481,78.238826,-184.117804,-0.521502,-2.430925,-1.918320,4.170002,2.760618,1.830991,-4.028937,-0.033462,0.385113,-0.046895,23.617618,188.571676,1207.580021,-2.155636,0
0.030208,28.222593,133.823066,-189.866857,-0.679842,-0.946909,-3.370821,3.953583,1.213127,3.308226,-3.886623,-0.059033,0.387072,-0.039427,20.925838,188.496022,1207.770966,-1.638916,0
0.031250,-36.792620,168.591908,-147.198296,0.134478,0.792727,-4.112947,2.897605,-0.503448,4.055238,-2.858405,-0.080951,0.402489,-0.031958,17.148298,188.646788,1207.384375,-1.356822,0
0.032292,-89.047520,197.924342,-69.222917,1.559538,2.649523,-4.577271,1.487147,-2.378081,4.588218,-1.513539,-0.099216,0.394454,-0.031958,15.836338,188.495890,1208.068047,-0.984584,0
0.033333,-144.455635,170.524852,-6.414205,2.747088,3.572595,-3.858957,-0.117342,-3.359506,3.937730,-0.012128,-0.175929,0.398178,-0.095440,8.903308,188.571373,1208.132499,-1.169002,0
0.034375,-184.959704,122.889848,56.086743,3.900708,4.449514,-2.815220,-1.856160,-4.190226,2.892754,1.692081,-0.168623,0.394846,-0.058098,4.582888,188.496100,1208.372027,-1.228342,0
0.035417,-186.751819,46.248593,115.079167,5.088258,4.378508,-1.330969,-3.106169,-4.201253,1.436502,2.905307,-0.212459,0.399745,-0.061832,-2.406691,188.646916,1208.288458,-2.172489,0
0.036471,-160.766150,-21.211175,167.399243,6.060918,3.881469,0.312024,-4.046475,-3.727081,-0.196012,3.897946,-0.197847,0.406147,-0.020755,-14.044681,188.571377,1209.339536,-2.199583,0
0.037510,-101.864545,-79.404890,184.695645,6.377598,2.493311,2.157416,-4.322596,-2.348675,-1.975410,4.146995,-0.219765,0.397002,-0.031958,-21.464041,188.571456,1209.984424,-2.438293,0
0.038542,-28.138292,-133.926010,189.903031,6.502008,1.019945,3.467049,-4.065131,-0.841617,-3.406482,3.997566,-0.230724,0.366626,-0.076769,-14.949481,188.496033,1210.538417,-3.523230,0
0.039583,36.967661,-168.549881,146.852841,5.676378,-0.659336,4.169488,-2.953183,0.841876,-4.098936,2.976464,-0.179582,0.370480,-0.050629,-12.393421,188.646743,1210.484767,-3.949601,0
0.040625,88.995711,-198.039367,68.520455,4.285248,-2.548084,4.641749,-1.598696,2.756942,-4.552179,1.588903,-0.168623,0.391384,-0.054364,-10.165351,188.571464,1210.556320,-4.576257,0
0.041667,144.052208,-170.192884,6.191856,3.075078,-3.467606,3.986933,-0.050177,3.653825,-3.939462,0.130186,-0.150358,0.398439,-0.031958,-4.080571,188.571386,1209.591171,-4.542618,0
0.042708,184.624332,-122.400827,-56.185985,1.842288,-4.323224,2.919384,1.699835,4.547032,-2.940649,-1.559791,-0.110175,0.397786,-0.058098,-0.336962,188.496074,1209.725666,-5.619451,0
0.043750,186.280337,-46.194485,-115.400000,0.745218,-4.241567,1.419259,2.919993,4.510275,-1.522167,-2.765901,-0.099216,0.401509,-0.061832,8.100298,188.646721,1209.574711,-5.805986,0
0.044792,160.374066,19.428986,-167.572349,-0.216132,-3.762280,-0.184049,3.867761,4.017724,0.072576,-3.737193,-0.044421,0.408172,-0.031958,20.337718,188.571281,1209.676079,-6.006885,0
0.045833,103.457399,78.601254,-184.154735,-0.555432,-2.398973,-1.958006,4.117763,2.720185,1.847777,-3.979127,-0.029809,0.394389,-0.058098,25.280188,188.571341,1208.953359,-6.411041,0
0.046875,28.086483,134.233817,-189.706819,-0.713772,-0.943359,-3.358916,3.938657,1.191073,3.312423,-3.851044,-0.029809,0.395107,-0.076769,21.005008,188.495926,1208.579927,-6.695889,0
0.047917,-37.541225,168.591908,-146.582766,0.123168,0.821130,-4.065324,2.837903,-0.521827,4.038451,-2.773017,-0.055380,0.399353,-0.058098,17.250088,188.571442,1207.603219,-7.185458,0
0.048958,-89.455850,198.359255,-67.659470,1.627398,2.670825,-4.533616,1.419982,-2.396460,4.542054,-1.442382,-0.102869,0.391645,-0.043161,15.926818,188.646822,1206.841673,-7.690789,0
0.050000,-144.478320,170.089940,-4.924621,2.871498,3.551294,-3.870863,-0.109879,-3.319073,3.904157,-0.008570,-0.150358,0.394650,-0.061832,8.891998,188.571428,1206.004321,-7.206114,0
0.051042,-185.175211,122.068346,56.616099,3.979878,4.414011,-2.819188,-1.796459,-4.190226,2.905344,1.667176,-0.168623,0.393474,-0.061832,5.216248,188.495893,1205.963110,-6.511512,0
0.052083,-186.536311,46.284835,115.707008,5.065638,4.314603,-1.323032,-3.072587,-4.197577,1.436502,2.841265,-0.201500,0.406017,-0.069301,-4.363321,188.646810,1205.483566,-5.841864,0
0.053125,-160.686753,-18.903723,167.879357,6.038298,3.888570,0.296150,-4.016624,-3.701351,-0.141455,3.865925,-0.223418,0.416011,-0.065566,-14.236951,188.646766,1204.911671,-5.784332,0
0.054167,-103.747400,-78.426337,184.092425,6.377598,2.532364,2.078044,-4.289014,-2.385432,-1.908263,4.132764,-0.241683,0.403665,-0.039427,-20.989021,188.571397,1204.667732,-5.404391,0
0.055208,-28.444539,-134.457569,189.582955,6.513318,0.998644,3.471017,-4.031549,-0.871023,-3.364515,3.972661,-0.216112,0.404710,-0.035692,-14.757211,188.495991,1204.145876,-4.804239,0
0.056250,37.273908,-168.574042,146.372728,5.698998,-0.726792,4.153614,-2.938258,0.889661,-4.082150,2.937327,-0.201500,0.394127,-0.031958,-12.698791,188.646835,1203.649035,-5.415463,0
0.057292,89.494781,-198.196419,67.215531,4.228698,-2.548084,4.629844,-1.594965,2.764294,-4.594146,1.606693,-0.179582,0.389293,-0.061832,-11.013601,188.646801,1204.260166,-4.838385,0
0.058333,144.154291,-169.673405,4.529924,3.063768,-3.510210,3.967090,-0.016595,3.679555,-3.968839,0.151533,-0.132093,0.391906,-0.069301,-3.424591,188.571456,1204.714682,-4.100891,0
0.059375,184.760442,-121.132332,-56.998485,1.864908,-4.337425,2.903510,1.688641,4.539681,-2.978419,-1.584696,-0.102869,0.396218,-0.039427,-0.755432,188.495904,1204.891250,-3.565544,0
0.060417,186.166912,-45.288417,-116.015531,0.711288,-4.259318,1.419259,2.949844,4.499248,-1.488593,-2.744554,-0.069992,0.402097,-0.039427,7.433008,188.722184,1204.474545,-3.418727,0
0.061458,160.453464,19.573957,-167.806251,-0.238752,-3.826185,-0.211829,3.905075,4.047130,0.089363,-3.758540,-0.059033,0.409675,-0.031958,19.874008,188.571261,1205.075162,-3.486723,0
0.062500,103.298604,78.879114,-184.228599,-0.544122,-2.445126,-2.001660,4.192390,2.690779,1.839384,-4.028937,-0.033462,0.405102,-0.020755,23.199148,188.571284,1205.445785,-3.607691,0
0.063542,28.438101,134.837862,-189.399054,-0.691152,-0.925607,-3.410507,3.916269,1.198424,3.345997,-3.854602,-0.088257,0.401640,-0.050629,20.993698,188.495942,1205.871239,-3.717361,0
0.064583,-37.223635,169.497975,-145.721023,0.157098,0.860183,-4.120884,2.796858,-0.562260,4.084615,-2.808595,-0.062686,0.397524,-0.028224,16.820308,188.722194,1206.838942,-3.911897,0
0.065625,-89.796125,198.480064,-66.785417,1.627398,2.692126,-4.549491,1.434908,-2.451596,4.558841,-1.442382,-0.102869,0.387660,-0.087972,15.610138,188.571491,1207.374711,-4.145242,0
0.066667,-145.068130,169.522137,-3.595076,2.848878,3.625849,-3.866894,-0.158387,-3.385236,3.895763,0.087492,-0.143052,0.388967,-0.054364,9.005098,188.571429,1207.841459,-5.241382,0
0.067708,-184.971046,121.065631,57.810227,4.002498,4.495668,-2.807282,-1.856160,-4.274768,2.888557,1.702754,-0.183235,0.391188,-0.054364,4.435858,188.496063,1208.679416,-5.511503,0
0.068750,-186.207379,44.388133,116.519508,5.122188,4.367858,-1.267472,-3.150946,-4.197577,1.360961,2.965790,-0.212459,0.401574,-0.046895,-2.779921,188.646926,1209.259868,-6.773121,0
0.069792,-160.845548,-20.256784,167.657766,6.038298,3.888570,0.339804,-4.042743,-3.712378,-0.162438,3.940640,-0.238030,0.393148,-0.031958,-13.807171,188.571359,1210.177251,-6.997694,0
0.070833,-102.851343,-78.837087,184.744887,6.388908,2.500411,2.161384,-4.386029,-2.363378,-1.996393,4.200363,-0.219765,0.408826,-0.050629,-21.226531,188.571404,1211.361734,-7.852187,0
0.071875,-28.784814,-134.819997,189.349054,6.524628,1.019945,3.506734,-4.046475,-0.834266,-3.444252,3.997566,-0.219765,0.403012,-0.050629,-15.164371,188.496036,1212.292145,-8.770861,0
0.072917,36.763496,-169.600919,145.510985,5.665068,-0.797797,4.248860,-2.927064,0.933770,-4.136707,2.940885,-0.212459,0.401640,-0.046895,-12.393421,188.722235,1213.103556,-9.325044,0
0.073958,89.778343,-198.268904,66.673864,4.172148,-2.633291,4.669529,-1.531531,2.808403,-4.644506,1.546209,-0.146705,0.390077,-0.069301,-9.939151,188.571268,1213.664365,-10.145992,0
0.075000,145.004978,-169.093521,3.754356,2.973288,-3.531511,3.927404,0.054301,3.742043,-3.989822,0.083934,-0.150358,0.391449,-0.043161,-4.261531,188.571303,1214.480991,-10.826645,0
0.076042,184.635675,-120.347074,-57.909470,1.864908,-4.369377,2.855887,1.733417,4.569087,-2.932256,-1.616717,-0.102869,0.393605,-0.065566,-0.144692,188.496069,1214.502041,-11.287365,0
0.077083,185.996775,-43.150097,-116.532576,0.779148,-4.287721,1.387511,2.990889,4.521302,-1.471807,-2.815711,-0.051727,0.404187,-0.073035,8.597938,188.646806,1215.100075,-11.382865,0
0.078125,160.124531,21.518982,-167.596970,-0.193512,-3.787131,-0.180080,3.890149,4.032427,0.055790,-3.747867,-0.066339,0.395956,-0.091706,20.315098,188.571350,1214.713928,-10.463236,0
0.079167,101.971531,79.434836,-184.487122,-0.544122,-2.416724,-2.069126,4.199853,2.698130,1.906531,-4.011148,-0.080951,0.385374,-0.073035,24.861718,188.571246,1214.833407,-10.627765,0
0.080208,28.494813,135.260693,-189.054357,-0.657222,-0.943359,-3.398601,3.893881,1.202100,3.371177,-3.843929,-0.059033,0.400268,-0.039427,21.197278,188.495948,1214.957050,-10.718096,0
0.081250,-36.962757,169.691270,-145.216288,0.157098,0.863733,-4.136758,2.778201,-0.536530,4.063631,-2.762343,-0.080951,0.397590,-0.028224,17.419738,188.646831,1214.215452,-10.675527,0
0.082292,-90.238482,198.383417,-66.514584,1.616088,2.681475,-4.474088,1.412520,-2.436893,4.571431,-1.431709,-0.106522,0.390665,-0.039427,15.745858,188.571627,1214.229021,-10.461908,0
0.083333,-145.465117,169.038901,-3.348864,2.792328,3.664903,-3.847051,-0.184507,-3.381561,3.887370,0.066145,-0.121134,0.390273,-0.061832,9.118198,188.571404,1214.092232,-10.047451,0
0.084375,-185.118499,120.473667,58.191856,3.979878,4.421112,-2.807282,-1.815115,-4.153468,2.901147,1.713428,-0.175929,0.388248,-0.039427,5.103148,188.495921,1212.829664,-9.537544,0
0.085417,-186.059926,43.119639,116.617993,5.088258,4.346556,-1.275409,-3.102438,-4.179198,1.386141,2.923096,-0.179582,0.413986,-0.046895,-4.951441,188.722101,1212.236445,-8.567581,0
0.086458,-160.062915,-21.899787,167.546970,6.094848,3.860168,0.335836,-4.024086,-3.660918,-0.187619,3.873041,-0.259948,0.401836,-0.020755,-14.123851,188.571323,1210.865916,-8.275023,0
0.087500,-101.512928,-79.574023,184.449432,6.377598,2.511062,2.153447,-4.348716,-2.352351,-1.962820,4.111417,-0.248989,0.401313,-0.046895,-20.547931,188.571462,1209.374247,-7.486350,0
0.088542,-27.888757,-135.327395,188.930493,6.490698,1.002194,3.486891,-4.076326,-0.834266,-3.414875,3.972661,-0.241683,0.389816,-0.031958,-14.825071,188.495895,1208.790975,-6.983748,0
0.089583,37.035716,-169.661324,145.190910,5.619828,-0.794247,4.197268,-2.941989,0.908040,-4.128313,2.926654,-0.186888,0.396283,-0.050629,-12.981541,188.722136,1208.491976,-6.635315,0
0.090625,90.186673,-198.196419,66.760038,4.183458,-2.615540,4.590158,-1.553920,2.815754,-4.631916,1.585345,-0.186888,0.393213,-0.043161,-11.036221,188.495978,1208.639723,-6.229918,0
0.091667,145.481363,-168.719013,3.889773,3.007218,-3.531511,3.927404,0.028181,3.753070,-3.952052,0.062587,-0.110175,0.394911,-0.043161,-3.503761,188.571373,1208.358411,-6.667184,0
0.092708,185.055347,-120.190022,-58.192614,1.819668,-4.355176,2.816201,1.737149,4.536005,-2.940649,-1.638064,-0.117481,0.390600,-0.046895,-0.698882,188.495881,1208.244907,-6.623924,0
0.093750,185.690527,-42.727265,-116.914205,0.722598,-4.241567,1.375605,3.017009,4.499248,-1.421446,-2.805037,-0.073645,0.389947,-0.035692,7.941958,188.722208,1207.684307,-6.939910,0
0.094792,159.909024,22.944529,-167.449243,-0.204822,-3.776481,-0.231672,3.942388,4.010373,0.156510,-3.772772,-0.084604,0.411439,-0.095440,19.885318,188.496015,1207.776155,-7.952877,0
0.095833,100.213444,80.256337,-184.782576,-0.566742,-2.427375,-2.081032,4.218510,2.687103,1.994662,-4.082304,-0.055380,0.395565,-0.058098,23.040808,188.571368,1208.905050,-8.398736,0
0.096875,26.838808,135.514392,-188.894319,-0.657222,-0.918507,-3.422413,3.923732,1.154315,3.354390,-3.865276,-0.055380,0.381716,-0.050629,21.140728,188.620135,1208.793676,-8.214797,0
0.097917,-37.518540,170.536933,-144.366857,0.179718,0.888585,-4.160570,2.852828,-0.587991,4.084615,-2.805037,-0.084604,0.382761,-0.076769,17.046508,188.705143,1209.602862,-8.150228,0
0.098958,-90.533387,198.286770,-66.662311,1.604778,2.677925,-4.581239,1.431176,-2.481002,4.575628,-1.438824,-0.055380,0.395761,-0.061832,15.723238,188.495562,1209.997193,-8.460112,0
0.100000,-146.622052,168.483179,-3.484280,2.792328,3.693305,-3.926423,-0.221820,-3.421994,3.925140,0.101723,-0.154011,0.393997,-0.046895,9.084268,188.513560,1210.874425,-8.716847,0
0.101042,-185.299979,120.497829,58.733523,4.002498,4.485017,-2.751722,-1.923325,-4.252713,2.896951,1.756122,-0.164970,0.392429,-0.069301,4.288828,188.652438,1212.237527,-9.323662,0
0.102083,-185.889789,42.890101,117.528978,5.122188,4.339455,-1.231755,-3.188260,-4.182874,1.352568,3.033389,-0.190541,0.387203,-0.035692,-3.243631,188.647366,1213.126735,-10.411535,0
0.103125,-160.482588,-22.950825,167.276137,6.049608,3.885020,0.375522,-4.083788,-3.671945,-0.221192,3.926409,-0.234377,0.389032,-0.043161,-13.965511,188.495718,1213.883938,-10.796074,0
0.104167,-99.630073,-80.214310,185.372728,6.422838,2.447157,2.232819,-4.382298,-2.275160,-2.067737,4.200363,-0.252642,0.373158,-0.061832,-21.056881,188.570989,1215.008465,-12.069325,0
0.105208,-26.210067,-135.424042,188.955114,6.456768,0.973792,3.518640,-4.057669,-0.786481,-3.461039,3.983334,-0.197847,0.419473,-0.043161,-15.311401,188.495758,1215.355338,-12.432789,0
0.106250,37.716266,-170.591553,143.922917,5.665068,-0.826199,4.248860,-2.971840,0.908040,-4.145100,2.891075,-0.212459,0.409675,-0.069301,-12.563071,188.721922,1215.283250,-12.262314,0
0.107292,90.458893,-198.027286,66.378409,4.206078,-2.636841,4.610001,-1.527800,2.830457,-4.619326,1.524862,-0.186888,0.394715,-0.061832,-10.040941,188.495656,1214.884954,-12.896308,0
0.108333,146.445476,-168.175373,3.742045,2.995908,-3.567014,3.919467,0.065495,3.731016,-3.939462,0.076818,-0.135746,0.398765,-0.084238,-4.442491,188.570975,1214.641526,-12.397643,0
0.109375,184.953265,-120.093375,-58.721970,1.819668,-4.355176,2.836044,1.785657,4.565411,-2.957436,-1.627390,-0.128440,0.393866,-0.031958,0.160678,188.495667,1215.064429,-12.057735,0
0.110417,185.611130,-42.630618,-117.751326,0.711288,-4.273520,1.292265,3.017009,4.513951,-1.413053,-2.865521,-0.037115,0.405559,-0.054364,9.005098,188.646411,1215.801395,-12.462210,0
0.111458,159.920366,23.282794,-167.449243,-0.204822,-3.758729,-0.259452,3.882686,3.944209,0.198477,-3.769214,-0.080951,0.392429,-0.058098,20.552608,188.495602,1215.181996,-13.255969,0
