1-Time,2-VGERA,3-VGERB,4-VGERC,5-VN,6-IGERAN,7-IGERBN,8-IGERCN,9-IGERAT,10-IGERBT,11-IGERCT,12-IN,13-IFD,14-IFAULT,15-VFAULT,16-Speed (rad/s),17-FAULT 
0.000000,-116.280863,-64.472893,186.320645,6.422838,3.079107,1.784369,-4.621106,-3.010310,-1.660658,4.492106,-0.216112,0.415815,-0.046895,-17.528161,188.495617,0
0.001042,-41.976143,-122.473313,190.617046,6.502008,1.495683,3.355928,-4.475582,-1.392980,-3.242811,4.317772,-0.248989,0.414052,-0.024490,-20.819371,188.495703,0
0.002083,25.443680,-165.155147,160.135985,5.913888,-0.226202,4.264734,-3.497963,0.382408,-4.224837,3.481678,-0.234377,0.412876,-0.050629,-18.274621,188.495698,0
0.003125,78.560610,-190.621692,89.510038,4.613238,-2.253411,4.729058,-1.930788,2.378340,-4.606736,1.980266,-0.197847,0.405755,-0.054364,-9.498061,188.495738,0
0.004167,134.343028,-182.237545,18.760985,3.278658,-3.481808,4.248860,-0.367344,3.679555,-4.354935,0.439719,-0.124787,0.398635,-0.061832,0.149368,188.495761,0
0.005208,173.395257,-132.693757,-45.167993,2.091108,-4.397779,3.213059,1.513267,4.561735,-3.259598,-1.353436,-0.117481,0.394454,-0.061832,5.408518,188.495754,0
0.006250,192.223808,-57.320997,-98.965341,1.016658,-4.649849,1.768495,3.017009,4.951365,-1.794952,-2.897541,-0.080951,0.386288,-0.058098,12.318928,188.495799,0
0.007292,162.835389,5.668836,-157.268372,-0.046482,-4.163461,0.105658,4.046867,4.388975,-0.225389,-3.822582,-0.062686,0.387138,-0.069301,18.833488,188.495575,0
0.008333,115.151517,65.553877,-186.444508,-0.657222,-3.034473,-1.644487,4.494631,3.286250,1.637943,-4.363374,-0.037115,0.436393,-0.039427,22.441378,188.495627,0
0.009375,40.109534,122.660311,-190.864016,-0.713772,-1.440398,-3.271607,4.341645,1.665244,3.194916,-4.213945,-0.069992,0.406931,-0.046895,25.268878,188.495656,0
0.010417,-26.414232,165.112607,-160.284470,-0.148272,0.331191,-4.188350,3.427459,-0.032952,4.210515,-3.352946,-0.040768,0.373093,-0.091706,25.449838,188.495557,0
0.011458,-78.464967,190.905337,-89.042993,1.197618,2.358400,-4.636800,1.886404,-2.080345,4.638578,-1.840861,-0.099216,0.406278,-0.065566,14.060668,188.570995,0
0.012500,-134.564974,182.352057,-18.515530,2.520888,3.547743,-4.196287,0.240869,-3.396264,4.302843,-0.318103,-0.143052,0.405167,-0.043161,5.476378,188.495714,0
0.013542,-174.150301,133.472720,44.945644,3.708438,4.513419,-3.132706,-1.643472,-4.212280,3.249473,1.460821,-0.154011,0.398243,-0.039427,-0.574472,188.495682,0
0.014583,-192.457097,59.235564,99.100000,4.760268,4.804542,-1.648456,-3.147214,-4.623964,1.810007,2.980021,-0.183235,0.404318,-0.061832,-7.733701,188.495761,0
0.015625,-163.647145,-3.271033,157.366099,5.879958,4.254249,0.034224,-4.173341,-4.054223,0.181690,3.940640,-0.234377,0.413464,-0.035692,-13.716691,188.571207,0
0.016667,-116.813961,-64.025899,186.099054,6.366288,3.153662,1.808181,-4.606180,-2.988255,-1.656461,4.499222,-0.227071,0.416795,-0.028224,-17.946631,188.495604,0
0.017708,-42.202993,-122.147128,190.653978,6.513318,1.513434,3.399583,-4.497970,-1.348871,-3.259598,4.328445,-0.234377,0.415423,-0.043161,-20.694961,188.495732,0
0.018750,25.262200,-164.720234,160.419129,5.936508,-0.236853,4.300451,-3.501695,0.393435,-4.275197,3.524372,-0.238030,0.411177,-0.043161,-19.439551,188.495765,0
0.019792,77.925430,-190.754582,89.916288,4.613238,-2.292464,4.705247,-1.938251,2.352610,-4.623523,1.973151,-0.172276,0.401117,-0.054364,-9.464131,188.571105,0
0.020833,133.707848,-182.467082,18.982576,3.289968,-3.474707,4.288545,-0.348687,3.738367,-4.279394,0.421930,-0.121134,0.397524,-0.031958,0.341638,188.495723,0
0.021875,173.100352,-133.176994,-44.835606,2.068488,-4.426182,3.224965,1.487147,4.554384,-3.230221,-1.349878,-0.073645,0.393409,-0.073035,4.729918,188.495653,0
0.022917,192.223808,-57.707586,-98.435985,1.039278,-4.696003,1.780400,3.009546,4.977095,-1.849509,-2.901099,-0.062686,0.382891,-0.080503,11.776048,188.495664,0
0.023958,163.289089,5.052710,-156.517425,-0.057792,-4.170562,0.161218,4.046867,4.348542,-0.212799,-3.790561,-0.048074,0.412745,-0.031958,18.697768,188.571071,0
0.025000,115.684614,64.889428,-186.506061,-0.645912,-3.109028,-1.656393,4.517019,3.341386,1.595976,-4.370490,-0.015197,0.418755,-0.013287,22.158628,188.495655,0
0.026042,41.016934,121.887133,-190.888637,-0.713772,-1.479451,-3.235890,4.371496,1.724056,3.157146,-4.181924,-0.007891,0.402620,-0.065566,25.472458,188.495709,0
0.027083,-25.382064,165.148850,-160.641478,-0.114342,0.295688,-4.164538,3.431191,-0.032952,4.202122,-3.370735,-0.062686,0.394846,-0.061832,25.495078,188.495736,0
0.028125,-77.988582,189.793894,-90.471023,1.186308,2.322897,-4.628862,1.875209,-2.014182,4.600808,-1.904902,-0.113828,0.404187,-0.054364,14.038048,188.495694,0
0.029167,-134.462892,182.956102,-19.217235,2.520888,3.544193,-4.208193,0.304303,-3.344803,4.349006,-0.367912,-0.121134,0.400660,-0.073035,5.363278,188.495718,0
0.030208,-172.925311,134.632486,44.699432,3.719748,4.463715,-3.128738,-1.606159,-4.182874,3.232686,1.403895,-0.183235,0.399745,-0.046895,-0.438752,188.495702,0
0.031250,-192.967509,59.984581,98.607576,4.726338,4.765489,-1.715922,-3.094975,-4.634991,1.822597,2.980021,-0.197847,0.405233,-0.031958,-7.631911,188.495664,0
0.032292,-163.930708,-2.715311,156.455114,5.846028,4.272000,-0.041180,-4.147222,-4.083629,0.240444,3.883714,-0.248989,0.414639,-0.039427,-13.875031,188.495667,0
0.033333,-116.950071,-63.530582,186.714584,6.411528,3.178514,1.744683,-4.602449,-3.006634,-1.622888,4.492106,-0.194194,0.416338,-0.017021,-17.516851,188.495685,0
0.034375,-42.282390,-121.277303,190.617046,6.479388,1.563138,3.340054,-4.490508,-1.400331,-3.179861,4.314214,-0.234377,0.415554,-0.005818,-20.694961,188.495694,0
0.035417,24.921925,-165.143066,160.726894,5.936508,-0.197800,4.244891,-3.539008,0.360353,-4.199657,3.527930,-0.219765,0.406866,-0.058098,-18.512131,188.495676,0
0.036458,78.004828,-189.316955,91.024243,4.647168,-2.214358,4.717152,-1.997953,2.334231,-4.640310,2.001613,-0.175929,0.401052,-0.024490,-9.486751,188.495772,0
0.037500,133.560395,-183.348988,19.105682,3.289968,-3.481808,4.308388,-0.434509,3.697934,-4.325558,0.478855,-0.143052,0.397067,-0.058098,0.092818,188.495642,0
0.038542,171.512402,-134.070981,-44.847917,2.091108,-4.376478,3.248776,1.442371,4.513951,-3.263794,-1.271606,-0.088257,0.396022,-0.043161,5.476378,188.495682,0
0.039583,192.666165,-58.251227,-98.091288,1.084518,-4.681802,1.812149,2.983426,4.944013,-1.862099,-2.879752,-0.073645,0.426529,-0.043161,12.137968,188.495582,0
0.040625,163.391171,4.243289,-156.209660,-0.046482,-4.209615,0.208841,4.024479,4.385299,-0.271552,-3.787003,-0.059033,0.405494,-0.054364,18.754318,188.495787,0
0.041667,116.557987,64.128331,-186.764584,-0.611982,-3.109028,-1.624645,4.517019,3.407550,1.537222,-4.381164,-0.037115,0.395695,-0.058098,22.520548,188.495662,0
0.042708,42.355349,121.536786,-190.753220,-0.679842,-1.475900,-3.231921,4.386421,1.749787,3.110982,-4.203271,-0.026156,0.416665,-0.054364,25.076608,188.495723,0
0.043750,-24.486007,165.330063,-161.133902,-0.148272,0.277937,-4.164538,3.419997,-0.007222,4.218909,-3.452566,-0.048074,0.409283,-0.050629,25.529008,188.495689,0
0.044792,-77.716362,189.346901,-91.357387,1.152378,2.280294,-4.676485,1.897598,-1.959045,4.621791,-1.890671,-0.095563,0.403730,-0.054364,14.151148,188.495774,0
0.045833,-134.088589,183.475581,-19.943561,2.509578,3.537093,-4.243910,0.304303,-3.337452,4.357400,-0.385702,-0.146705,0.401313,-0.035692,5.589478,188.495682,0
0.046875,-172.641748,134.862024,44.342424,3.697128,4.474366,-3.156518,-1.609890,-4.193901,3.274653,1.414569,-0.132093,0.400203,-0.031958,-0.563162,188.495785,0
0.047917,-193.126304,60.057066,98.201326,4.715028,4.786790,-1.704016,-3.091244,-4.657046,1.860367,3.012042,-0.194194,0.406147,-0.058098,-7.530121,188.495721,0
0.048958,-164.055475,-2.715311,156.221213,5.834718,4.307503,-0.076897,-4.150953,-4.109359,0.240444,3.912177,-0.208806,0.414378,-0.031958,-13.592281,188.495747,0
0.050000,-117.176921,-63.421854,186.517614,6.377598,3.132361,1.760557,-4.650957,-3.094852,-1.627084,4.541916,-0.238030,0.416534,-0.028224,-17.935321,188.495671,0
0.051042,-42.543268,-120.951119,190.838637,6.502008,1.566688,3.336085,-4.456925,-1.407683,-3.188254,4.324887,-0.230724,0.414705,-0.065566,-20.661031,188.495615,0
0.052083,24.831185,-164.841043,160.997728,5.947818,-0.180049,4.272671,-3.580053,0.334623,-4.229034,3.495909,-0.208806,0.410393,-0.054364,-19.496101,188.495636,0
0.053125,77.403675,-189.474006,91.467425,4.658478,-2.193057,4.709215,-2.009147,2.345258,-4.631916,2.015845,-0.164970,0.405494,-0.099175,-9.418891,188.571136,0
0.054167,133.038640,-183.638930,19.462689,3.323898,-3.453405,4.324263,-0.423314,3.675880,-4.363328,0.528665,-0.154011,0.398178,-0.073035,0.251158,188.495785,0
0.055208,171.319579,-134.614621,-44.478599,2.113728,-4.372927,3.220996,1.442371,4.554384,-3.305761,-1.257374,-0.091910,0.400137,-0.050629,4.763848,188.495749,0
0.056250,192.711535,-59.084809,-97.635796,1.095828,-4.710204,1.800243,2.972232,4.962392,-1.908263,-2.897541,-0.084604,0.412876,-0.054364,11.561158,188.495817,0
0.057292,163.901584,3.119765,-155.569508,-0.001242,-4.159911,0.185030,3.983433,4.418381,-0.279946,-3.769214,-0.037115,0.403404,-0.039427,18.663838,188.571009,0
0.058333,117.215852,63.282667,-186.752273,-0.589362,-3.137431,-1.596864,4.520751,3.367117,1.541419,-4.377606,-0.044421,0.413464,-0.080503,22.158628,188.495694,0
0.059375,43.466914,120.836094,-190.753220,-0.679842,-1.532705,-3.184298,4.334182,1.782868,3.081605,-4.217503,-0.044421,0.415227,-0.050629,25.280188,188.495689,0
0.060417,-23.363099,165.462953,-161.343182,-0.159582,0.228233,-4.120884,3.438653,-0.018249,4.185335,-3.449008,-0.066339,0.412745,-0.050629,25.619488,188.495656,0
0.061458,-77.319374,188.416671,-92.711553,1.141068,2.227040,-4.597114,1.916255,-1.918612,4.579824,-1.894229,-0.113828,0.404906,-0.073035,14.094598,188.495797,0
0.062500,-133.793684,184.272921,-20.263636,2.475648,3.515791,-4.239941,0.349079,-3.319073,4.378383,-0.428396,-0.124787,0.404579,-0.043161,5.408518,188.495723,0
0.063542,-171.212593,135.888900,44.330114,3.674508,4.453064,-3.156518,-1.512874,-4.131414,3.304030,1.354085,-0.154011,0.402489,-0.061832,-0.483992,188.495740,0
0.064583,-193.477922,60.371169,97.795076,4.726338,4.786790,-1.767514,-3.091244,-4.598234,1.923318,2.980021,-0.197847,0.405233,-0.065566,-7.428331,188.495776,0
0.065625,-164.327695,-2.497855,155.150190,5.800788,4.264900,-0.104677,-4.068863,-4.079953,0.286608,3.848136,-0.241683,0.414966,-0.043161,-13.728001,188.495636,0
0.066667,-117.256318,-62.878213,186.862311,6.434148,3.214017,1.736746,-4.628568,-3.098528,-1.564134,4.499222,-0.234377,0.421760,-0.058098,-17.562091,188.495709,0
0.067708,-42.894885,-120.020889,190.740152,6.524628,1.577339,3.280525,-4.460657,-1.437089,-3.062353,4.303540,-0.248989,0.393605,-0.043161,-20.547931,188.495761,0
0.068750,24.286745,-165.251794,161.305493,5.981748,-0.162297,4.248860,-3.617367,0.312568,-4.178673,3.581297,-0.216112,0.394846,-0.046895,-18.659161,188.495658,0
0.069792,77.346963,-187.903489,92.636932,4.692408,-2.150453,4.705247,-2.061386,2.253364,-4.581556,2.037192,-0.175929,0.401117,-0.069301,-9.554611,188.495752,0
0.070833,133.015955,-184.460431,19.905871,3.335208,-3.442755,4.320294,-0.479285,3.657501,-4.363328,0.560686,-0.139399,0.398961,-0.050629,-0.110762,188.495651,0
0.071875,170.162644,-135.665660,-44.269318,2.091108,-4.294821,3.264651,1.408788,4.469842,-3.305761,-1.228911,-0.117481,0.402750,-0.069301,5.487688,188.495647,0
0.072917,193.142550,-60.341223,-97.315720,1.084518,-4.692452,1.855804,2.905068,4.977095,-1.929246,-2.851289,-0.073645,0.405821,-0.069301,11.889148,188.495731,0
0.073958,164.015009,2.008322,-155.286364,0.010068,-4.184763,0.228684,3.946120,4.407354,-0.338700,-3.737193,-0.022503,0.407454,-0.065566,18.663838,188.495687,0
0.075000,118.145937,62.461166,-186.900001,-0.623292,-3.133880,-1.640519,4.520751,3.381820,1.541419,-4.416742,-0.059033,0.414117,-0.065566,22.577098,188.495861,0
0.076042,44.544451,120.364939,-190.617804,-0.691152,-1.539805,-3.168424,4.337914,1.782868,3.094195,-4.167693,-0.033462,0.417644,-0.058098,24.873028,188.495651,0
0.077083,-22.795974,165.499196,-161.638637,-0.182202,0.221133,-4.144695,3.446116,0.044239,4.202122,-3.477471,-0.073645,0.413333,-0.039427,25.608178,188.495673,0
0.078125,-76.911044,188.042163,-93.351705,1.095828,2.258992,-4.620925,1.860284,-1.918612,4.588218,-1.919134,-0.117481,0.404253,-0.035692,14.185078,188.495703,0
0.079167,-133.374012,184.671591,-20.509849,2.430408,3.522891,-4.247878,0.337885,-3.341127,4.353203,-0.417722,-0.110175,0.401052,-0.080503,5.578168,188.495707,0
0.080208,-170.702181,135.925143,44.059280,3.742368,4.421112,-3.172392,-1.531531,-4.138765,3.266260,1.364759,-0.179582,0.398831,-0.050629,-0.653642,188.495631,0
0.081250,-193.466579,60.359089,97.388826,4.715028,4.800992,-1.759576,-3.106169,-4.601910,1.872958,2.987137,-0.205153,0.393670,-0.076769,-7.394401,188.495689,0
0.082292,-164.225613,-2.473693,154.990152,5.823408,4.268450,-0.096740,-4.098714,-4.046871,0.274018,3.858810,-0.241683,0.399419,-0.046895,-13.479181,188.495772,0
0.083333,-117.607936,-62.503705,186.702273,6.422838,3.203366,1.736746,-4.621106,-3.032364,-1.564134,4.492106,-0.238030,0.415750,-0.080503,-17.912701,188.495743,0
0.084375,-43.257845,-119.694705,190.801705,6.524628,1.602191,3.276557,-4.464388,-1.385628,-3.133697,4.310656,-0.223418,0.398896,-0.020755,-20.525311,188.495656,0
0.085417,23.844388,-164.925609,161.514773,5.959128,-0.112594,4.260765,-3.609904,0.308893,-4.212247,3.591971,-0.216112,0.402162,-0.024490,-19.541341,188.495580,0
0.086458,76.677755,-188.024298,93.314015,4.692408,-2.114950,4.709215,-2.042729,2.271743,-4.585753,2.033634,-0.161317,0.390208,-0.031958,-9.464131,188.495709,0
0.087500,132.505543,-184.689968,20.681439,3.323898,-3.396601,4.375854,-0.494210,3.639122,-4.359131,0.567801,-0.150358,0.403142,-0.039427,-0.065522,188.495546,0
0.088542,169.981164,-136.426757,-43.641477,2.102418,-4.305472,3.296399,1.397594,4.473517,-3.339335,-1.225354,-0.110175,0.402358,-0.046895,4.718608,188.495687,0
0.089583,193.108523,-61.356019,-96.872538,1.084518,-4.720855,1.835961,2.961038,4.966068,-1.941836,-2.797922,-0.051727,0.406735,-0.058098,11.312338,188.495647,0
0.090625,164.616161,0.908960,-154.683144,-0.001242,-4.220265,0.276307,3.949851,4.381624,-0.342896,-3.747867,-0.044421,0.411634,-0.050629,18.562048,188.495781,0
0.091667,118.599637,61.772554,-186.912311,-0.634602,-3.158732,-1.557179,4.539408,3.436956,1.461682,-4.374048,-0.000585,0.423524,-0.035692,22.147318,188.495712,0
0.092708,45.077549,119.664246,-190.716288,-0.725082,-1.522054,-3.085083,4.326719,1.823302,3.035441,-4.164135,-0.029809,0.418036,-0.043161,25.110538,188.495694,0
0.093750,-22.240192,165.644167,-161.724811,-0.182202,0.192730,-4.156601,3.479699,0.077320,4.176942,-3.470355,-0.048074,0.414770,-0.065566,25.721278,188.495665,0
0.094792,-76.400632,187.305228,-94.299622,1.118448,2.202188,-4.553459,1.923717,-1.874503,4.525267,-1.933365,-0.091910,0.402424,-0.035692,14.139838,188.495700,0
0.095833,-132.931654,185.360202,-20.891477,2.475648,3.512241,-4.220098,0.364005,-3.300694,4.336416,-0.446185,-0.164970,0.399941,-0.058098,5.374588,188.495586,0
0.096875,-169.454506,136.903696,44.059280,3.697128,4.399810,-3.208109,-1.505412,-4.105683,3.241079,1.293602,-0.179582,0.399353,-0.050629,-0.540542,188.495752,0
0.097917,-193.874909,60.890648,96.859470,4.715028,4.808092,-1.787356,-3.072587,-4.664397,1.931711,2.958674,-0.194194,0.393474,-0.028224,-7.213441,188.495665,0
0.098958,-164.736025,-2.038781,154.042235,5.766858,4.261349,-0.160237,-4.039012,-4.072602,0.324378,3.801884,-0.230724,0.413333,-0.050629,-13.614901,188.495787,0
0.100000,-117.778073,-61.887579,187.145455,6.422838,3.263721,1.669280,-4.647225,-3.091176,-1.547347,4.477875,-0.208806,0.414966,-0.020755,-17.550781,188.495712,0
0.101042,-43.983765,-118.921527,190.727841,6.535938,1.648344,3.224965,-4.460657,-1.451792,-3.066550,4.278635,-0.234377,0.368651,-0.028224,-20.344351,188.495633,0
0.102083,22.914303,-165.517574,161.822538,5.981748,-0.080641,4.209174,-3.677069,0.228026,-4.166083,3.616876,-0.201500,0.411896,-0.050629,-18.783571,188.495669,0
0.103125,76.292110,-186.586670,94.988258,4.681098,-2.047495,4.657624,-2.094968,2.201904,-4.573163,2.104791,-0.183235,0.404841,-0.046895,-9.724261,188.495761,0
0.104167,132.539570,-185.426903,21.420076,3.357828,-3.414352,4.379823,-0.527793,3.613392,-4.401098,0.592706,-0.135746,0.405167,-0.020755,-0.450062,188.495736,0
0.105208,168.880942,-137.501957,-43.419886,2.158968,-4.294821,3.300368,1.337892,4.455139,-3.330942,-1.139965,-0.117481,0.406278,-0.039427,5.465068,188.495667,0
0.106250,193.426113,-62.382896,-96.515531,1.107138,-4.720855,1.891521,2.916262,4.958716,-1.975410,-2.808595,-0.091910,0.406278,-0.061832,11.640328,188.495533,0
0.107292,164.752271,0.353238,-154.153788,-0.001242,-4.227366,0.292181,3.949851,4.411030,-0.397453,-3.651805,-0.055380,0.416991,-0.043161,18.471568,188.495653,0
0.108333,118.985282,61.385965,-187.060038,-0.589362,-3.187134,-1.588927,4.502094,3.436956,1.444895,-4.391837,-0.026156,0.418102,-0.031958,22.599718,188.495613,0
0.109375,45.417824,119.205172,-190.703978,-0.725082,-1.593060,-3.132706,4.352839,1.863735,3.018655,-4.192598,-0.029809,0.417644,-0.028224,24.737308,188.495557,0
0.110417,-22.138109,165.583762,-162.167993,-0.170892,0.167878,-4.156601,3.520744,0.095699,4.176942,-3.481028,-0.062686,0.416011,-0.039427,25.642108,188.495466,0
0.111458,-76.207809,187.087772,-94.792046,1.095828,2.205738,-4.589177,1.919986,-1.841421,4.575628,-1.947596,-0.102869,0.402032,-0.031958,14.298178,188.495837,0
0.112500,-132.409899,185.795115,-21.014583,2.464338,3.498039,-4.255816,0.375199,-3.322749,4.332220,-0.431954,-0.143052,0.398308,-0.035692,5.668648,188.495734,0
0.113542,-169.250341,137.036586,43.751515,3.708438,4.403360,-3.180329,-1.494218,-4.124062,3.316620,1.282928,-0.168623,0.397655,-0.065566,-0.676262,188.495736,0
0.114583,-193.988334,61.180590,96.354735,4.703718,4.815193,-1.834979,-3.057662,-4.668073,1.902334,2.955116,-0.205153,0.401052,-0.031958,-7.179511,188.495731,0
0.115625,-164.838108,-1.628030,153.956061,5.744238,4.318154,-0.180080,-4.072594,-4.105683,0.328575,3.805442,-0.212459,0.425222,-0.050629,-13.388701,188.420309,0
0.116667,-118.481308,-61.476828,186.886932,6.400218,3.270822,1.653406,-4.639762,-3.138961,-1.538954,4.517011,-0.238030,0.420845,-0.046895,-17.890081,188.495617,0
0.117708,-44.641630,-118.571181,190.826326,6.456768,1.666096,3.264651,-4.505433,-1.466495,-3.066550,4.335561,-0.234377,0.399419,-0.058098,-20.412211,188.495674,0
0.118750,22.040930,-165.106823,162.191857,5.970438,-0.084191,4.236954,-3.677069,0.220675,-4.212247,3.627549,-0.238030,0.405102,-0.058098,-19.586581,188.495702,0
0.119792,75.713643,-186.755803,95.653031,4.737648,-2.090098,4.709215,-2.091237,2.172498,-4.615130,2.079886,-0.190541,0.411765,-0.043161,-9.599851,188.420137,0
0.120833,132.142583,-185.547712,22.158712,3.357828,-3.403701,4.391729,-0.527793,3.631771,-4.371721,0.578475,-0.128440,0.407780,-0.035692,-0.235172,188.495756,0
0.121875,168.767517,-137.997274,-42.952083,2.113728,-4.298372,3.312274,1.330429,4.444111,-3.381302,-1.175544,-0.121134,0.406343,-0.043161,4.797778,188.495774,0
0.122917,193.448798,-62.986941,-95.949243,1.084518,-4.731506,1.911364,2.942381,5.010177,-2.013180,-2.812153,-0.095563,0.408434,-0.039427,11.131378,188.495550,0
0.123958,165.137917,-0.081674,-153.587500,-0.001242,-4.227366,0.272339,3.949851,4.385299,-0.431027,-3.722962,-0.088257,0.418363,-0.043161,18.437638,188.495676,0
0.125000,119.212132,60.842325,-187.060038,-0.634602,-3.222637,-1.561147,4.505825,3.433280,1.491059,-4.395395,-0.015197,0.417840,-0.058098,22.203868,188.495611,0
0.126042,45.372454,118.492399,-190.864016,-0.702462,-1.571758,-3.100958,4.334182,1.845356,3.043835,-4.192598,-0.080951,0.419408,-0.050629,24.940888,188.495653,0
0.127083,-21.593669,165.680410,-162.364963,-0.159582,0.160778,-4.124852,3.531938,0.121429,4.160155,-3.488144,-0.073645,0.411896,-0.039427,25.766518,188.495702,0
