1-Time,2-VGERA,3-VGERB,4-VGERC,5-VN,6-IGERAN,7-IGERBN,8-IGERCN,9-IGERAT,10-IGERBT,11-IGERCT,12-IN,13-IFD,14-IFAULT,15-VFAULT,16-Speed (rad/s),17-Active Power,18-Reactive Power,19-FAULT 
0.000000,103.730416,74.356251,-186.887696,-3.367522,-3.337167,-2.374985,5.573668,3.511409,2.521893,-5.743653,-0.090349,0.461444,-0.022156,46.503349,188.345212,1583.859570,1.412256,0
0.001042,29.806304,130.462164,-190.788383,-3.367522,-1.539126,-4.247349,5.469282,1.741585,4.238770,-5.507567,-0.101287,0.492104,-0.007290,15.160173,188.269906,1582.953369,3.288919,0
0.002083,-34.761469,168.891837,-145.985169,-2.579371,0.636872,-5.236678,4.220524,-0.533361,5.252504,-4.262403,-0.083057,0.451246,-0.011006,-9.596882,188.345446,1582.296232,4.028763,0
0.003125,-86.481227,198.477517,-70.304558,-1.070625,2.992673,-5.755870,2.337720,-2.872871,5.645056,-2.320404,-0.057533,0.458481,-0.025873,-32.530090,188.420725,1581.333970,4.405231,0
0.004167,-145.184339,168.363311,-7.942179,0.122861,4.346709,-5.040447,0.273208,-4.376841,4.967796,-0.248938,-0.002841,0.462822,-0.011006,-57.039462,188.345399,1580.621708,5.498543,0
0.005208,-187.615559,122.510792,53.654645,1.282569,5.564974,-3.809919,-1.961413,-5.485830,3.639157,1.929148,0.033621,0.459721,-0.029590,-74.737549,188.269888,1580.122014,5.619033,0
0.006250,-189.039349,46.955142,112.079883,2.442277,5.631024,-1.859880,-3.824886,-5.561788,1.771298,3.802606,0.095606,0.463166,-0.007290,-77.642196,188.270145,1579.872294,6.134458,0
0.007292,-164.371612,-16.937713,165.498632,3.500651,5.161332,0.098335,-5.158699,-5.144018,-0.213032,5.043962,0.091960,0.462753,-0.014723,-70.988527,188.420667,1579.601746,6.466311,0
0.008333,-105.826699,-73.677857,186.630389,3.883467,3.620153,2.289574,-5.603304,-3.488131,-2.451874,5.500903,0.146652,0.461650,0.003860,-48.167903,188.345326,1578.985046,7.109156,0
0.009375,-31.676589,-130.335785,190.968535,3.905986,1.785417,4.190556,-5.514383,-1.665137,-4.242085,5.230547,0.088314,0.470676,-0.033307,-15.732669,188.270071,1578.691452,6.715708,0
0.010417,33.885578,-168.495323,147.113152,3.095316,-0.335539,5.175796,-4.273356,0.473084,-5.247192,4.008229,0.059144,0.473432,0.007577,9.992602,188.269863,1578.046689,7.148150,0
0.011458,86.430230,-198.374629,71.541906,1.665385,-2.720696,5.703165,-2.429214,2.915137,-5.682882,2.085269,0.040913,0.465715,-0.044457,33.004618,188.420652,1577.607053,6.864489,0
0.012500,144.658746,-168.965123,8.608398,0.471899,-4.074731,5.040887,-0.376301,4.346948,-4.988366,0.021419,-0.017425,0.462959,-0.007290,56.939816,188.345212,1576.637719,6.919681,0
0.013542,187.575862,-122.854214,-53.024881,-0.744105,-5.212268,3.798095,1.831257,5.493915,-3.694237,-2.137627,-0.010133,0.457447,-0.037023,74.818036,188.270047,1576.676288,6.880306,0
0.014583,189.169151,-47.216349,-111.158478,-1.858776,-5.340699,1.917554,3.671534,5.585065,-1.774614,-3.973007,-0.072118,0.462546,-0.025873,79.321366,188.270145,1575.456038,7.003616,0
0.015625,163.947718,16.852681,-165.148355,-2.872113,-4.918710,-0.097895,5.032410,5.144508,0.149324,-5.225787,-0.119518,0.474190,-0.025873,71.069014,188.420651,1574.766727,6.724668,0
0.016667,106.058201,73.698530,-186.049231,-3.266189,-3.403218,-2.260517,5.457684,3.587367,2.392480,-5.667497,-0.097641,0.467645,-0.029590,48.079515,188.345399,1573.865103,7.994178,0
0.017708,30.755498,130.109814,-191.019264,-3.401300,-1.546465,-4.116529,5.403558,1.749180,4.169750,-5.439026,-0.134103,0.471503,-0.029590,15.081365,188.269960,1572.608398,7.922267,0
0.018750,-34.693669,167.306260,-147.552735,-2.534334,0.490093,-5.130386,4.185728,-0.411828,5.110150,-4.209093,-0.097641,0.477153,-0.029590,-9.822049,188.270015,1570.229024,8.858443,0
0.019792,-86.232629,198.360067,-70.571894,-1.138181,2.908275,-5.653667,2.353184,-2.785519,5.606232,-2.339443,-0.057533,0.457516,-0.040740,-31.066507,188.420844,1569.302106,9.731478,0
0.020833,-143.568450,169.279422,-7.784207,0.111601,4.299006,-4.987301,0.331200,-4.243915,4.859952,-0.336518,0.000805,0.451867,-0.018440,-56.397738,188.345422,1566.851184,10.660892,0
0.021875,-187.378260,122.087972,53.253640,1.271309,5.432873,-3.809919,-1.926618,-5.375691,3.660726,1.852991,0.037267,0.450971,-0.033307,-72.947475,188.269984,1565.262504,11.939339,0
0.022917,-189.299248,46.356147,110.609531,2.408499,5.509932,-1.957995,-3.685705,-5.485830,1.788553,3.627445,0.051852,0.466267,-0.014723,-77.349480,188.269870,1562.794431,13.354747,0
0.023958,-163.535418,-17.184358,165.486480,3.455614,5.098951,0.016573,-5.034983,-5.087050,-0.148326,4.922112,0.095606,0.483216,-0.018440,-70.290510,188.420712,1560.654779,14.619033,0
0.025000,-106.131797,-73.760072,185.633952,3.838430,3.620153,2.162842,-5.460257,-3.514717,-2.309520,5.382860,0.106545,0.440636,-0.022156,-46.197696,188.345344,1558.471561,16.383031,0
0.026042,-29.959001,-129.854240,191.393844,3.973542,1.785417,4.039295,-5.448659,-1.691722,-4.116986,5.241970,0.070083,0.455174,-0.040740,-14.741937,188.270020,1557.425522,18.093533,0
0.027083,35.309368,-166.804042,148.376926,3.162872,-0.262149,5.077680,-4.265624,0.385732,-5.113465,4.012037,0.081021,0.483561,-0.011006,10.150219,188.269904,1555.657617,19.626434,0
0.028125,86.294631,-198.374629,71.371783,1.744200,-2.577586,5.617314,-2.498804,2.789807,-5.687195,2.199505,0.066437,0.460755,-0.022156,31.890044,188.420730,1555.496999,22.067882,0
0.029167,143.325354,-169.669824,8.693460,0.483158,-3.971986,5.040887,-0.469088,4.270990,-4.958170,0.169925,-0.021072,0.462959,0.000144,57.198758,188.345326,1554.465772,23.723937,0
0.030208,187.395063,-122.830724,-52.490207,-0.687809,-5.171904,3.806271,1.765533,5.410361,-3.763258,-2.023392,-0.046595,0.461168,0.000144,74.311411,188.269910,1553.502800,25.621582,0
0.031250,189.485549,-47.874069,-110.234951,-1.881295,-5.292996,1.966612,3.598077,5.577469,-1.882458,-3.851156,-0.112226,0.441738,-0.022156,77.384934,188.194647,1552.865327,27.405267,0
0.032292,163.846019,15.431535,-165.525057,-2.883372,-4.841651,0.016573,5.013080,5.197679,0.080304,-5.161054,-0.130457,0.436020,0.000144,70.258414,188.420652,1552.733820,28.452105,0
0.033333,108.024388,72.993829,-185.429495,-3.345004,-3.377531,-2.146049,5.453818,3.575973,2.276008,-5.614187,-0.101287,0.462339,0.018727,48.417264,188.345583,1551.576521,28.836493,0
0.034375,32.280988,129.546053,-191.080023,-3.446337,-1.597837,-4.067472,5.430621,1.771968,4.083475,-5.458065,-0.093995,0.461375,-0.018440,15.993290,188.269474,1551.145292,29.167102,0
0.035417,-33.495877,166.895185,-148.938025,-2.601890,0.482754,-5.081328,4.235988,-0.343466,5.105836,-4.243364,-0.104934,0.471779,0.000144,-9.360458,188.194101,1551.461271,29.431685,0
0.036458,-86.040530,197.866777,-72.807802,-1.160699,2.812869,-5.723165,2.430507,-2.774125,5.662311,-2.419408,-0.002841,0.463924,-0.022156,-32.147307,188.420377,1552.590881,29.655412,0
0.037500,-143.884848,169.655262,-9.643413,0.089083,4.236625,-5.085417,0.470381,-4.205936,4.963482,-0.408867,0.004452,0.462477,-0.022156,-56.656679,188.269716,1553.604047,30.648101,0
0.038542,-187.242661,123.661803,52.232900,1.271309,5.403517,-3.830360,-1.822232,-5.379488,3.699550,1.784450,0.026329,0.456621,-0.033307,-74.320991,188.269527,1553.903312,30.987898,0
0.039583,-189.389647,48.869579,110.244980,2.397239,5.542957,-1.982524,-3.662508,-5.527607,1.779926,3.616022,0.051852,0.462477,-0.025873,-77.597163,188.194108,1554.512511,30.163643,0
0.040625,-164.089114,-14.988041,165.377115,3.489392,5.142984,-0.012044,-5.031117,-5.151614,-0.148326,4.899264,0.088314,0.475430,0.011294,-70.864685,188.420329,1555.024811,29.818442,0
0.041667,-108.335283,-72.832216,185.694710,3.872208,3.645840,2.175106,-5.495052,-3.567888,-2.348344,5.409515,0.102898,0.463580,-0.033307,-49.428835,188.344831,1556.281450,29.007031,0
0.042708,-32.399784,-129.126049,191.563967,3.973542,1.818442,4.063824,-5.440927,-1.737297,-4.168751,5.238162,0.077375,0.479082,0.015011,-15.811478,188.269622,1556.939212,28.101043,0
0.043750,33.806478,-166.522161,149.397667,3.185390,-0.236463,5.077680,-4.292687,0.416116,-5.152289,3.954920,0.073729,0.477084,-0.007290,10.105186,188.194101,1557.031704,26.370646,0
0.044792,85.616636,-198.092748,72.696315,1.721681,-2.592264,5.645931,-2.444679,2.774615,-5.682882,2.165234,0.037267,0.461719,0.015011,32.396668,188.420383,1556.692987,25.536504,0
0.045834,142.873357,-170.139624,9.215982,0.471899,-3.990333,5.024535,-0.488419,4.240606,-5.018562,0.131847,-0.013779,0.458963,-0.014723,56.602066,188.420401,1557.026200,25.248054,0
0.046875,186.988266,-123.417974,-52.222870,-0.699068,-5.160895,3.843064,1.777132,5.433149,-3.793454,-2.046239,-0.042949,0.456276,0.000144,74.390219,188.269453,1557.565456,24.908479,0
0.047917,189.779347,-47.932794,-109.420789,-1.779961,-5.267310,2.003405,3.578747,5.611650,-1.886771,-3.832117,-0.061180,0.442910,-0.048173,79.388915,188.194213,1557.751961,24.951684,0
0.048958,163.676520,15.642945,-164.990384,-2.894632,-4.896693,0.045190,4.993749,5.201477,0.067363,-5.199132,-0.112226,0.447733,-0.037023,71.147822,188.420334,1557.957453,24.938917,0
0.050000,107.900088,72.935104,-185.210765,-3.299967,-3.388540,-2.170578,5.484747,3.621548,2.284636,-5.621802,-0.123164,0.439189,-0.055607,49.227864,188.420242,1558.288304,25.283321,0
0.051042,31.320494,128.876587,-191.517483,-3.457597,-1.579490,-4.075648,5.453818,1.809947,4.113671,-5.538030,-0.093995,0.409011,-0.040740,15.509182,188.269518,1559.411070,25.877352,0
0.052083,-34.422471,165.708939,-149.569912,-2.658186,0.427712,-5.101769,4.278515,-0.294093,5.079953,-4.254787,-0.104934,0.438913,-0.044457,-9.585624,188.269532,1558.945628,26.666531,0
0.053125,-85.260835,198.207382,-72.358190,-1.149440,2.827547,-5.686372,2.445972,-2.732348,5.653684,-2.438447,-0.024718,0.465095,0.000144,-30.481075,188.420338,1558.620698,27.164737,0
0.054167,-142.268958,170.536138,-8.962919,0.066564,4.258641,-5.077240,0.474247,-4.179350,4.989364,-0.435522,-0.013779,0.458205,-0.025873,-56.082505,188.420274,1558.496429,27.523554,0
0.055208,-186.914963,123.180258,52.002018,1.260050,5.421864,-3.879418,-1.829964,-5.394680,3.751315,1.757795,0.044560,0.455312,0.003860,-72.823633,188.269603,1558.720446,28.233757,0
0.056250,-189.909444,48.282328,109.248543,2.363462,5.605338,-2.015229,-3.654776,-5.531405,1.896397,3.593175,0.055498,0.462615,-0.018440,-77.158088,188.194056,1558.914278,29.627179,0
0.057292,-163.750116,-14.870591,165.559390,3.421836,5.142984,-0.073366,-5.042716,-5.174402,-0.066364,4.937343,0.113837,0.444494,-0.011006,-70.628260,188.420267,1559.432375,30.540074,0
0.058333,-108.843779,-72.350670,185.160036,3.860949,3.715560,2.130137,-5.518249,-3.613462,-2.305206,5.382860,0.113837,0.452831,-0.011006,-47.638761,188.420236,1559.080796,31.145417,0
0.059375,-32.038187,-129.126049,191.709787,3.984801,1.906509,4.027030,-5.522115,-1.805659,-4.134241,5.306704,0.102898,0.461513,-0.014723,-15.845253,188.269651,1559.744364,32.528518,0
0.060417,33.512680,-165.782226,150.515620,3.207909,-0.148395,5.081769,-4.400939,0.351551,-5.160916,4.088194,0.070083,0.464475,-0.040740,9.283328,188.269668,1560.957530,33.781326,0
0.061458,85.311538,-198.081003,74.348942,1.744200,-2.581256,5.666372,-2.568395,2.759423,-5.738960,2.245199,0.055498,0.469092,-0.022156,31.327128,188.420287,1562.137275,34.177205,0
0.062500,142.658659,-170.973520,11.123794,0.494418,-3.994003,5.134914,-0.554143,4.244404,-5.057386,0.208003,0.048206,0.467920,-0.007290,56.861008,188.420282,1562.897028,34.395136,0
0.063542,187.270764,-124.686435,-50.825428,-0.665290,-5.186582,3.900298,1.734604,5.459734,-3.827964,-1.962466,-0.010133,0.460686,0.007577,74.322669,188.269507,1563.406569,34.802344,0
0.064583,190.073145,-50.469717,-109.007632,-1.779961,-5.377394,2.044286,3.601943,5.623044,-1.899713,-3.828309,-0.061180,0.483078,-0.011006,77.407450,188.194155,1563.877945,34.055799,0
0.065625,164.309316,13.223473,-165.403540,-2.950928,-4.995769,0.061542,5.028544,5.231860,0.084618,-5.229595,-0.112226,0.477704,0.018727,70.404772,188.420197,1564.809624,32.995740,0
0.066667,110.352172,71.701878,-185.222917,-3.311226,-3.553666,-2.154226,5.515676,3.701304,2.250126,-5.667497,-0.097641,0.479702,0.000144,49.070247,188.495702,1566.116222,33.004947,0
0.067708,33.942077,128.606452,-191.748365,-3.401300,-1.667557,-4.108353,5.488613,1.863118,4.156808,-5.576108,-0.134103,0.477635,-0.014723,16.162164,188.269642,1567.357053,32.430327,0
0.068750,-32.467584,166.131759,-150.456984,-2.601890,0.405695,-5.150827,4.348106,-0.332072,5.161915,-4.365215,-0.086703,0.479013,-0.025873,-9.247874,188.269501,1569.626468,31.652065,0
0.069792,-84.887938,198.042952,-73.779936,-1.160699,2.834886,-5.755870,2.484633,-2.774125,5.701135,-2.480333,-0.072118,0.472743,-0.029590,-31.573132,188.420339,1570.753169,31.129431,0
0.070833,-142.687056,170.782783,-10.093024,0.055305,4.240294,-5.126298,0.466515,-4.243915,5.028188,-0.424098,0.008098,0.462202,-0.033307,-56.217605,188.495709,1571.964875,30.406323,0
0.071875,-186.960163,124.378249,51.127098,1.226272,5.454890,-3.875329,-1.799035,-5.474436,3.794453,1.833952,0.008098,0.457034,-0.033307,-74.129599,188.269462,1573.663554,29.108065,0
0.072917,-190.056343,49.198439,108.762476,2.363462,5.638363,-1.986612,-3.712768,-5.603565,1.853260,3.673139,0.102898,0.462270,-0.033307,-77.743521,188.269472,1574.976162,27.615167,0
0.073958,-164.360312,-14.529986,165.085475,3.466873,5.234721,-0.016132,-5.147101,-5.174402,-0.079305,5.024923,0.095606,0.458550,-0.003573,-70.943493,188.420347,1575.929620,26.695776,0
0.075000,-108.956779,-71.974830,185.694710,3.815911,3.730237,2.154666,-5.572375,-3.632452,-2.326775,5.451402,0.139360,0.463717,-0.014723,-49.946718,188.495682,1577.126660,26.433318,0
0.076042,-32.331985,-128.374369,192.390281,3.984801,1.866145,4.116969,-5.541446,-1.779074,-4.190320,5.314319,0.073729,0.486385,-0.018440,-15.879027,188.345019,1577.682769,25.365086,0
0.077083,33.490080,-165.876186,150.527772,3.162872,-0.236463,5.175796,-4.397072,0.370541,-5.199740,4.088194,0.062790,0.469918,-0.029590,9.936311,188.269458,1578.169655,24.995715,0
0.078125,84.520543,-198.433354,73.534780,1.710422,-2.573917,5.760399,-2.510403,2.816392,-5.747588,2.252814,0.048206,0.456345,-0.029590,31.856269,188.420247,1578.526177,24.513650,0
0.079167,141.799864,-171.337615,10.163812,0.505677,-4.008681,5.139002,-0.523214,4.320362,-5.083269,0.211811,0.019036,0.457516,-0.014723,56.264317,188.495734,1579.377925,24.246151,0
0.080208,186.739667,-124.016970,-50.922641,-0.654031,-5.197590,3.912563,1.750069,5.535692,-3.819337,-2.034815,-0.053887,0.454002,-0.025873,74.277636,188.344947,1580.090660,23.295383,0
0.081250,190.140945,-48.743200,-107.974740,-1.779961,-5.384733,2.048374,3.625140,5.661023,-1.947164,-3.866387,-0.079410,0.459101,0.000144,79.501499,188.344910,1580.563576,23.824821,0
0.082292,163.981618,14.221799,-164.844563,-2.860854,-4.933388,0.016573,5.044009,5.273637,0.101873,-5.282905,-0.104934,0.426925,0.011294,71.451797,188.420329,1581.269776,23.904438,0
0.083333,109.278679,71.513958,-185.320130,-3.356263,-3.469268,-2.133785,5.469282,3.697506,2.288950,-5.709383,-0.093995,0.413627,-0.025873,50.252371,188.495618,1581.679311,23.654019,0
0.084375,32.642586,127.901752,-191.991398,-3.468856,-1.634532,-4.112441,5.519542,1.874511,4.152495,-5.587532,-0.097641,0.477773,-0.022156,16.522431,188.344898,1581.558093,24.101997,0
0.085417,-32.817882,165.262629,-150.991658,-2.658186,0.431381,-5.167179,4.340373,-0.290295,5.174856,-4.365215,-0.068472,0.441325,-0.063040,-8.797541,188.344862,1581.489002,24.424513,0
0.086458,-84.096943,198.007717,-74.436126,-1.171959,2.834886,-5.784487,2.473034,-2.743742,5.688194,-2.495564,-0.035656,0.467851,-0.048173,-29.918158,188.420341,1581.199784,24.414092,0
0.087500,-141.647462,171.487484,-11.381102,0.032786,4.265980,-5.122210,0.485845,-4.240117,5.062698,-0.477408,-0.010133,0.467093,-0.022156,-55.801047,188.495613,1581.547573,24.429445,0
0.088542,-186.824564,124.824559,50.021295,1.203754,5.425534,-3.891682,-1.826098,-5.447851,3.803080,1.799681,0.015390,0.460410,-0.014723,-72.913700,188.420318,1581.126343,24.461258,0
0.089583,-190.384040,50.807505,108.057679,2.329684,5.671389,-2.060199,-3.643178,-5.599767,1.866201,3.616022,0.073729,0.463855,-0.025873,-77.191863,188.344954,1580.856618,24.387737,0
0.090625,-164.575011,-12.028299,165.595845,3.421836,5.201696,-0.097895,-5.081377,-5.181997,-0.083619,4.998268,0.095606,0.476671,-0.018440,-70.954752,188.420365,1580.861268,23.696686,0
0.091667,-111.329763,-70.565429,185.403070,3.894726,3.730237,2.130137,-5.549178,-3.655239,-2.326775,5.443786,0.113837,0.465715,-0.007290,-48.348036,188.495709,1581.177064,22.816594,0
0.092708,-34.625870,-128.221683,192.365978,3.984801,1.932196,4.096529,-5.572375,-1.794266,-4.190320,5.348590,0.102898,0.474810,0.011294,-16.329360,188.420386,1581.813447,22.288602,0
0.093750,31.727292,-165.523835,151.755091,3.219168,-0.185090,5.098121,-4.416403,0.294583,-5.229937,4.088194,0.084667,0.480253,-0.018440,8.979353,188.344853,1582.169394,22.080937,0
0.094792,84.000746,-198.139728,75.479048,1.732941,-2.603273,5.768575,-2.583859,2.812594,-5.769157,2.271854,0.044560,0.463580,-0.018440,30.685403,188.420531,1582.610462,21.542163,0
0.095833,141.743365,-171.971846,12.035170,0.550714,-4.027028,5.155355,-0.565741,4.308969,-5.044445,0.223235,-0.017425,0.463717,-0.003573,56.309350,188.495682,1582.337236,20.797610,0
0.096875,186.988266,-125.074021,-49.695322,-0.654031,-5.241624,3.904386,1.750069,5.482522,-3.819337,-2.038623,-0.035656,0.459652,0.011294,74.176311,188.495785,1581.942686,20.251280,0
0.097917,190.513843,-50.704617,-107.342853,-1.791220,-5.399411,2.052463,3.671534,5.634438,-1.947164,-3.915889,-0.075764,0.450006,0.003860,77.452484,188.269572,1582.228158,18.934058,0
0.098958,164.456215,12.448302,-164.868867,-2.872113,-5.006777,0.020661,5.098134,5.277435,0.110500,-5.244826,-0.079410,0.474741,-0.018440,70.528614,188.495761,1582.015580,18.374413,0
0.100000,110.883269,70.621337,-185.453799,-3.311226,-3.549997,-2.178754,5.569802,3.686112,2.323460,-5.705575,-0.141395,0.482872,0.003860,49.396739,188.495700,1582.352003,17.194221,0
0.101042,33.840378,127.549401,-192.453162,-3.412560,-1.689574,-4.128794,5.531140,1.828936,4.191319,-5.602763,-0.119518,0.476119,0.011294,16.218456,188.495635,1582.919913,15.881074,0
0.102083,-32.196386,165.474039,-151.429118,-2.669446,0.409364,-5.187620,4.332641,-0.309284,5.179170,-4.353791,-0.079410,0.465095,-0.003573,-9.169066,188.269442,1583.063280,15.260346,0
0.103125,-83.667546,198.277852,-74.472581,-1.183218,2.853233,-5.764047,2.461436,-2.800711,5.722704,-2.514604,-0.057533,0.461650,-0.014723,-31.055249,188.495756,1583.937331,14.749810,0
0.104167,-141.285865,172.027755,-10.834276,0.032786,4.310014,-5.150827,0.439452,-4.270500,5.032502,-0.393636,0.004452,0.457310,0.007577,-55.778530,188.420314,1583.870826,13.444485,0
0.105208,-186.564666,124.683619,50.203571,1.226272,5.524610,-3.944828,-1.860893,-5.501021,3.837590,1.818720,0.055498,0.452211,-0.022156,-74.005758,188.495788,1584.704309,13.438431,0
0.106250,-190.598739,49.656494,107.182759,2.352202,5.660380,-2.019317,-3.763028,-5.626352,1.853260,3.680755,0.055498,0.460203,-0.037023,-77.878621,188.344677,1585.167417,12.897723,0
0.107292,-164.394212,-13.355485,164.660166,3.399317,5.227382,-0.044749,-5.162565,-5.216179,-0.144012,5.036347,0.099252,0.461650,-0.014723,-70.999785,188.495718,1585.591281,12.549575,0
0.108333,-109.905972,-70.788584,185.621800,3.827171,3.737576,2.171018,-5.595572,-3.655239,-2.322461,5.478056,0.102898,0.472743,0.000144,-50.701026,188.420236,1585.746939,13.017468,0
0.109375,-32.908281,-127.399533,192.827741,3.939764,1.902840,4.133322,-5.580107,-1.836043,-4.203261,5.363821,0.121129,0.456758,0.000144,-16.475719,188.495700,1585.896639,13.775638,0
0.110417,32.574786,-165.194975,151.998124,3.241687,-0.192429,5.151267,-4.393206,0.370541,-5.221309,4.133888,0.084667,0.480460,-0.022156,9.317103,188.420282,1586.327893,13.477846,0
0.111458,83.311451,-198.315904,75.393986,1.777978,-2.595934,5.789016,-2.556796,2.820190,-5.769157,2.290893,0.048206,0.463511,-0.003573,31.169511,188.495591,1586.416106,13.402288,0
