1-Time,2-VGERA,3-VGERB,4-VGERC,5-VN,6-IGERAN,7-IGERBN,8-IGERCN,9-IGERAT,10-IGERBT,11-IGERCT,12-IN,13-IFD,14-IFAULT,15-VFAULT,16-Speed (rad/s),17-Active Power,18-Reactive Power,19-FAULT 
0.000000,128.160855,50.349450,-191.055719,-3.423819,-4.331650,-1.756673,5.722798,4.318414,1.567076,-5.671309,-0.006994,0.484732,-0.093440,84.657811,188.646569,1596.191703,-2.607908,0
0.001042,55.332836,107.453689,-194.130092,-3.457597,-2.251059,-3.703670,5.560046,2.388850,3.583587,-5.512339,-0.021578,0.470676,-0.104590,28.478772,188.721867,1595.386327,-2.343647,0
0.002083,-10.975126,163.265977,-168.113363,-2.950928,-0.082401,-5.184032,4.742499,0.321460,5.084345,-4.743985,-0.025225,0.450144,-0.138040,-21.395607,188.571080,1594.726881,-3.176894,0
0.003125,-67.452153,185.675456,-104.633030,-1.757442,2.262392,-5.546077,2.800826,-1.927280,5.469046,-2.813638,-0.090856,0.456827,-0.108307,-64.661348,188.571040,1594.247461,-3.368481,0
0.004167,-127.782454,190.349970,-28.004588,-0.181140,4.177857,-5.429418,0.828873,-3.853217,5.460591,-0.845440,-0.079917,0.454140,-0.097156,-110.415179,188.646596,1593.960213,-3.609941,0
0.005208,-167.207894,144.838056,36.083328,1.057383,5.396122,-4.198465,-1.389100,-4.959452,4.289578,1.334717,-0.163779,0.460479,-0.119457,-138.583508,188.721900,1593.515317,-3.388729,0
0.006250,-199.717779,72.054229,89.137527,1.991905,5.979568,-2.408354,-3.535160,-5.561534,2.518261,3.651133,-0.214826,0.463993,-0.078573,-156.180269,188.571154,1593.672760,-3.748394,0
0.007292,-172.925656,9.652990,150.503469,3.241687,5.418139,-0.441242,-4.697136,-5.050127,0.620119,4.794202,-0.225764,0.474604,-0.104590,-126.480809,188.571102,1593.644758,-5.394968,0
0.008333,-128.019753,-50.822067,191.029294,3.996060,4.240238,1.779300,-5.560102,-4.009178,-1.586629,5.778301,-0.265872,0.479978,-0.104590,-85.556799,188.646485,1593.641164,-5.354507,0
0.009375,-54.536338,-108.102481,194.176577,4.086135,2.200011,3.786639,-5.389779,-1.999820,-3.598912,5.623116,-0.254934,0.470332,-0.123173,-26.011520,188.721951,1593.773291,-6.125844,0
0.010417,11.850723,-163.268794,168.001876,3.635763,0.046031,5.186546,-4.557093,0.056689,-5.103897,4.771492,-0.240349,0.473501,-0.112023,21.746293,188.571098,1593.379643,-7.516048,0
0.011458,68.090452,-185.960153,104.120538,2.363462,-2.342796,5.580773,-2.626775,2.269159,-5.480143,2.886565,-0.214826,0.445390,-0.097156,65.282235,188.571089,1593.259851,-7.794854,0
0.012500,128.296454,-190.247082,28.196893,0.865975,-4.243583,5.427910,-0.685102,4.184215,-5.420959,0.918367,-0.171072,0.460341,-0.115740,111.126133,188.646527,1593.528025,-8.212470,0
0.013542,167.642794,-144.535502,-36.146209,-0.350030,-5.414145,4.196957,1.532872,5.286823,-4.237262,-1.276930,-0.120025,0.461513,-0.141757,139.384527,188.721940,1592.951389,-9.155185,0
0.014583,199.678082,-71.610735,-89.176104,-1.464701,-6.008599,2.418913,3.675147,5.841754,-2.482856,-3.544142,-0.061686,0.464269,-0.112023,156.632281,188.571026,1592.112691,-9.162971,0
0.015625,172.784260,-9.186006,-150.675714,-2.635668,-5.421484,0.451802,4.912821,5.337601,-0.626989,-4.687210,-0.043455,0.474672,-0.089723,126.606329,188.571180,1591.628932,-10.572469,0
0.016667,127.595858,51.277306,-191.140781,-3.333744,-4.287617,-1.772763,5.722798,4.318414,1.609351,-5.690234,-0.025225,0.475224,-0.108307,83.858470,188.721893,1591.978644,-10.633279,0
0.017708,54.270643,108.381545,-194.130092,-3.412560,-2.214365,-3.759988,5.510842,2.338072,3.600497,-5.523694,-0.003348,0.478186,-0.108307,26.407240,188.721931,1592.086995,-10.714535,0
0.018750,-12.105119,163.418662,-167.846026,-2.939669,-0.038367,-5.175987,4.697080,0.252547,5.139302,-4.732630,-0.061686,0.460203,-0.097156,-22.577731,188.571103,1592.525840,-11.398239,0
0.019792,-68.231848,185.933846,-103.442166,-1.712405,2.317434,-5.586304,2.744052,-1.934534,5.490184,-2.787143,-0.109087,0.436226,-0.104590,-64.897773,188.571180,1592.595318,-11.124092,0
0.020833,-128.754248,189.868425,-27.615735,-0.203659,4.214552,-5.425395,0.794809,-3.874979,5.414089,-0.784881,-0.098148,0.455036,-0.108307,-110.584054,188.721974,1592.169560,-11.729027,0
0.021875,-167.705090,144.145101,36.605850,1.046123,5.370436,-4.190420,-1.423165,-4.973960,4.298032,1.417986,-0.152841,0.464544,-0.119457,-139.180199,188.721889,1592.598087,-12.294965,0
0.022917,-199.819478,71.267313,89.830172,2.059460,5.994246,-2.343990,-3.584364,-5.583296,2.467531,3.658703,-0.192949,0.464406,-0.112023,-155.628611,188.571033,1592.684753,-12.439223,0
0.023958,-172.451059,8.642919,151.147507,3.207909,5.392453,-0.453311,-4.761480,-5.104532,0.675077,4.835837,-0.243995,0.477428,-0.138040,-125.377493,188.571122,1593.733123,-11.294849,0
0.025000,-127.206158,-51.503278,191.563967,4.018579,4.225560,1.799414,-5.560102,-3.998297,-1.616221,5.789656,-0.284103,0.479495,-0.123173,-84.307125,188.721891,1593.937275,-11.284581,0
0.026042,-53.711444,-108.713222,194.055060,4.074875,2.185333,3.822843,-5.370855,-1.996193,-3.632732,5.592836,-0.269518,0.458825,-0.108307,-25.876420,188.797291,1593.798734,-11.243363,0
0.027083,12.811217,-163.691614,167.673781,3.613244,-0.012681,5.210683,-4.560878,0.114721,-5.086987,4.767707,-0.262226,0.449937,-0.134323,22.005235,188.571138,1593.641443,-11.370428,0
0.028125,68.824947,-186.054113,103.257769,2.374721,-2.364813,5.625023,-2.626775,2.287294,-5.522418,2.848715,-0.196595,0.464200,-0.086006,66.340517,188.571102,1593.929801,-11.463018,0
0.029167,129.110048,-189.882986,27.893101,0.888493,-4.217897,5.427910,-0.666177,4.198723,-5.442096,0.895657,-0.156487,0.457861,-0.130607,112.060574,188.721782,1594.292790,-11.415891,0
0.030208,168.219090,-143.877782,-36.559365,-0.417586,-5.447170,4.213047,1.582076,5.312212,-4.233035,-1.295855,-0.138256,0.463235,-0.100873,139.564661,188.797329,1594.618821,-11.400672,0
0.031250,199.836281,-70.741604,-89.905204,-1.442182,-6.041625,2.402822,3.694071,5.932429,-2.457491,-3.581992,-0.061686,0.466473,-0.100873,157.442880,188.571026,1595.852064,-11.523990,0
0.032292,172.128864,-8.234660,-151.587090,-2.658186,-5.461848,0.451802,4.924176,5.388379,-0.626989,-4.743985,-0.076271,0.477084,-0.104590,125.998379,188.571084,1596.981119,-11.078070,0
0.033333,127.076062,52.087711,-191.250146,-3.401300,-4.302295,-1.792877,5.734153,4.264009,1.613579,-5.739439,-0.028871,0.478324,-0.141757,83.622046,188.721909,1597.130596,-11.303134,0
0.034375,53.219750,109.191951,-194.178699,-3.435078,-2.196017,-3.840443,5.605465,2.334445,3.651227,-5.538834,-0.006994,0.440498,-0.126890,26.981414,188.722001,1597.725991,-11.200157,0
0.035417,-13.223811,163.336447,-167.797420,-2.984706,-0.016350,-5.208168,4.689510,0.230785,5.126620,-4.732630,-0.006994,0.454967,-0.086006,-22.645281,188.571156,1597.560895,-10.990154,0
0.036458,-68.774244,186.767742,-102.129786,-1.667368,2.365138,-5.646645,2.778116,-2.014328,5.545141,-2.768218,-0.083563,0.458550,-0.097156,-65.753406,188.646478,1598.574346,-11.458140,0
0.037500,-129.104545,189.586545,-27.445612,-0.192400,4.236569,-5.385168,0.817519,-3.933011,5.477501,-0.815161,-0.105440,0.461306,-0.119457,-111.304587,188.721949,1599.826705,-11.160292,0
0.038542,-168.970682,143.052815,36.593698,0.978568,5.447495,-4.142147,-1.483724,-5.017484,4.238848,1.463406,-0.182010,0.457585,-0.115740,-140.362323,188.721902,1599.994837,-11.894442,0
0.039583,-199.830778,69.893147,90.133964,2.081979,6.016263,-2.319854,-3.633568,-5.655836,2.437938,3.715478,-0.243995,0.459032,-0.097156,-155.808744,188.571020,1600.894151,-12.220500,0
0.040625,-171.648764,7.609358,152.107489,3.252946,5.440156,-0.364811,-4.799329,-5.082770,0.556707,4.915322,-0.229410,0.467093,-0.097156,-125.242393,188.646596,1601.336090,-13.582509,0
0.041667,-126.833260,-52.501603,191.150811,3.939764,4.210882,1.847687,-5.579026,-3.954773,-1.666951,5.801011,-0.254934,0.465991,-0.115740,-84.521033,188.721913,1601.169067,-14.132265,0
0.042708,-52.457152,-109.793763,194.115818,4.097394,2.126622,3.859048,-5.435199,-1.952669,-3.687689,5.589051,-0.287749,0.455380,-0.145474,-24.615487,188.721811,1601.454881,-14.400570,0
0.043750,13.952509,-163.116108,167.698084,3.568207,-0.020020,5.258955,-4.511674,0.121975,-5.179992,4.801772,-0.243995,0.465715,-0.086006,22.782059,188.571163,1602.582797,-14.444401,0
0.044792,69.130045,-187.263849,101.921085,2.284646,-2.416186,5.657205,-2.562431,2.374342,-5.560466,2.822220,-0.196595,0.464269,-0.112023,66.205417,188.646627,1603.485738,-15.104761,0
0.045833,129.550745,-189.319226,27.516399,0.888493,-4.302295,5.460091,-0.605618,4.278517,-5.467461,0.831312,-0.152841,0.459928,-0.100873,111.801632,188.721905,1604.187358,-16.086024,0
0.046875,169.450782,-142.902946,-36.474304,-0.428845,-5.491204,4.213047,1.665345,5.355736,-4.228808,-1.416975,-0.127317,0.464337,-0.119457,141.242151,188.721924,1605.022603,-17.350757,0
0.047917,199.745881,-69.790258,-90.245451,-1.475960,-6.041625,2.362595,3.750845,5.972326,-2.453263,-3.642552,-0.083563,0.464269,-0.141757,156.260756,188.571096,1605.744807,-17.585131,0
0.048958,171.642967,-7.342040,-152.133915,-2.714483,-5.461848,0.415597,5.015015,5.362990,-0.567804,-4.834825,-0.079917,0.476326,-0.108307,125.683146,188.721931,1606.301017,-18.524773,0
0.050000,126.386766,52.827647,-190.922051,-3.435078,-4.254591,-1.825059,5.760648,4.278517,1.736176,-5.762149,-0.032517,0.476326,-0.112023,82.710121,188.721922,1606.907912,-19.398885,0
0.051042,52.202756,109.861416,-194.081486,-3.502634,-2.199687,-3.892738,5.635745,2.287294,3.701957,-5.565329,-0.047102,0.450006,-0.100873,25.180082,188.721846,1607.391587,-19.775760,0
0.052083,-14.116505,163.172017,-167.493628,-2.973447,-0.023689,-5.236327,4.731144,0.194515,5.202715,-4.774265,-0.025225,0.452280,-0.149190,-23.422105,188.571102,1608.470678,-19.964656,0
0.053125,-69.000243,187.237543,-101.254865,-1.701146,2.431188,-5.727100,2.736482,-2.094122,5.566278,-2.753078,-0.065333,0.457447,-0.093440,-65.629564,188.721808,1609.038473,-20.610289,0
0.054167,-129.759941,189.163724,-27.348398,-0.214918,4.331975,-5.425395,0.722895,-3.969281,5.481729,-0.739461,-0.120025,0.460824,-0.130607,-111.079421,188.721936,1609.226610,-21.515577,0
0.055208,-169.682577,142.348114,36.873187,0.989827,5.509876,-4.198465,-1.532928,-5.090024,4.281123,1.531536,-0.171072,0.462891,-0.093440,-141.184181,188.721893,1610.609583,-21.927653,0
0.056250,-200.056777,69.223681,90.668637,2.081979,6.045619,-2.295717,-3.644923,-5.666717,2.454848,3.768468,-0.218472,0.463924,-0.093440,-155.121986,188.570997,1611.260350,-21.911751,0
0.057292,-171.400166,6.904658,152.520646,3.275465,5.440156,-0.364811,-4.905307,-5.111786,0.527115,4.975882,-0.251287,0.461581,-0.141757,-124.431794,188.721945,1612.164068,-22.160940,0
0.058333,-126.155265,-52.959659,191.405996,3.939764,4.203543,1.899982,-5.624446,-3.998297,-1.768410,5.854001,-0.276811,0.475017,-0.108307,-83.350167,188.797271,1613.461541,-22.695512,0
0.059375,-51.745257,-110.275308,194.383155,4.063616,2.111944,3.955593,-5.473048,-1.894637,-3.784921,5.668536,-0.258580,0.435124,-0.119457,-24.705554,188.721942,1615.004005,-23.666699,0
0.060417,14.562705,-163.421479,167.600871,3.545688,-0.049376,5.327342,-4.579803,0.143737,-5.209584,4.843407,-0.258580,0.458068,-0.112023,22.939676,188.646400,1615.806180,-23.513141,0
0.061458,69.570742,-187.627944,101.228440,2.307165,-2.496914,5.713523,-2.604065,2.414239,-5.632333,2.818435,-0.211179,0.472743,-0.108307,67.128600,188.721944,1616.869396,-23.657998,0
0.062500,130.070542,-188.919896,27.407034,0.877234,-4.364676,5.480205,-0.605618,4.307533,-5.513963,0.857807,-0.163779,0.462615,-0.104590,112.510907,188.797253,1617.686555,-23.192784,0
0.063542,170.264376,-142.092540,-36.680882,-0.440104,-5.549915,4.205002,1.725904,5.406514,-4.275310,-1.447255,-0.123671,0.464682,-0.112023,141.692484,188.646587,1618.786379,-23.026377,0
0.064583,199.892781,-68.956363,-90.658608,-1.498478,-6.100336,2.342482,3.822759,6.030358,-2.465946,-3.684187,-0.054394,0.442910,-0.097156,156.992547,188.646502,1619.808166,-22.896824,0
0.065625,171.089271,-6.484654,-153.093897,-2.624408,-5.509551,0.339166,5.090714,5.428276,-0.512847,-4.937020,-0.017932,0.480184,-0.115740,124.951355,188.721811,1621.552823,-23.340823,0
0.066667,126.013869,53.544093,-190.958506,-3.401300,-4.269269,-1.861263,5.836346,4.296652,1.786906,-5.818924,-0.003348,0.464889,-0.119457,82.665088,188.797356,1622.541357,-23.541889,0
0.067708,51.287463,110.742292,-194.239457,-3.468856,-2.174000,-3.924920,5.700089,2.319937,3.773824,-5.656169,-0.010640,0.445252,-0.089723,25.788032,188.646446,1624.416643,-23.086492,0
0.068750,-14.930100,162.960607,-167.432870,-2.973447,0.020344,-5.284600,4.723575,0.169126,5.253444,-4.762910,-0.025225,0.432850,-0.112023,-23.298263,188.721860,1624.756839,-23.444881,0
0.069792,-69.214941,188.294593,-100.100457,-1.644849,2.548611,-5.755259,2.732697,-2.134019,5.693103,-2.749293,-0.094502,0.450557,-0.086006,-66.282547,188.721819,1626.587721,-23.542531,0
0.070833,-130.144139,188.494259,-26.947393,-0.237437,4.372339,-5.497804,0.726680,-4.045448,5.524004,-0.675116,-0.141902,0.464682,-0.100873,-111.856245,188.797313,1627.399926,-24.416482,0
0.071875,-171.377566,140.903478,37.031158,1.012346,5.561248,-4.210533,-1.593487,-5.133548,4.298032,1.573171,-0.167425,0.462615,-0.108307,-142.411338,188.571223,1628.306844,-24.321938,0
0.072917,-199.921177,68.366295,91.057491,2.059460,6.089652,-2.331922,-3.675203,-5.702987,2.484441,3.825243,-0.192949,0.464820,-0.123173,-155.538544,188.721936,1629.152699,-24.174781,0
0.073958,-170.857769,6.141232,153.747965,3.286724,5.517215,-0.332629,-4.988576,-5.144429,0.518660,5.066722,-0.233057,0.467162,-0.123173,-124.431794,188.722016,1630.576683,-24.148369,0
0.075000,-125.906667,-53.922750,190.968535,3.962282,4.218221,1.928141,-5.658510,-4.023686,-1.793775,5.891850,-0.247641,0.510156,-0.104590,-83.710433,188.797355,1631.196924,-23.928595,0
0.076042,-50.660464,-111.250144,194.614037,4.119912,2.111944,3.995820,-5.537392,-1.967177,-3.814514,5.698816,-0.273164,0.475844,-0.089723,-23.737338,188.571091,1632.226009,-22.720822,0
0.077083,15.444099,-162.881208,167.442899,3.601985,-0.060384,5.327342,-4.583588,0.183634,-5.264542,4.858547,-0.258580,0.437535,-0.126890,23.468817,188.721940,1632.749553,-23.099728,0
0.078125,69.582042,-188.814190,99.903908,2.239609,-2.555626,5.806045,-2.585141,2.472271,-5.695745,2.841145,-0.196595,0.470676,-0.126890,66.790850,188.721985,1634.106530,-23.079145,0
0.079167,130.454739,-188.121235,27.006029,0.865975,-4.375684,5.480205,-0.579123,4.343803,-5.480143,0.793462,-0.160133,0.465302,-0.100873,112.184415,188.797258,1633.699386,-23.902294,0
0.080208,171.699467,-140.812334,-36.911764,-0.406326,-5.601288,4.225116,1.752398,5.475427,-4.266855,-1.515385,-0.101794,0.465509,-0.093440,143.111033,188.571085,1634.689768,-24.455346,0
0.081250,199.723282,-67.746626,-91.083916,-1.520997,-6.074650,2.334436,3.826544,6.055747,-2.478628,-3.729607,-0.083563,0.436571,-0.134323,155.832940,188.721989,1635.188297,-24.248826,0
0.082292,170.840673,-5.603778,-153.567812,-2.714483,-5.527899,0.319052,5.166412,5.424649,-0.500165,-4.955945,-0.043455,0.478186,-0.115740,124.973872,188.721931,1635.374154,-24.102168,0
0.083333,125.573172,54.107853,-190.739776,-3.401300,-4.236244,-1.909536,5.855271,4.329295,1.778451,-5.799999,-0.010640,0.442221,-0.138040,81.843230,188.797251,1635.248987,-23.386112,0
0.084375,50.462568,111.294307,-194.640462,-3.480115,-2.166661,-4.013420,5.696304,2.309056,3.828781,-5.659954,-0.025225,0.425753,-0.119457,24.380741,188.571120,1635.829138,-23.586521,0
0.085417,-15.562896,163.007587,-167.080471,-2.962187,0.060709,-5.332873,4.742499,0.125602,5.261899,-4.774265,-0.010640,0.470470,-0.134323,-23.996280,188.721878,1635.969105,-23.742993,0
0.086458,-69.633038,188.599964,-99.274143,-1.611071,2.537603,-5.783418,2.751622,-2.184797,5.671966,-2.764433,-0.116379,0.466060,-0.108307,-66.147447,188.721933,1636.098084,-23.697793,0
0.087500,-130.810834,188.130163,-26.497781,-0.259955,4.361331,-5.445509,0.715325,-4.020059,5.485956,-0.716751,-0.116379,0.463855,-0.123173,-111.608562,188.797355,1635.591569,-22.777496,0
0.088542,-171.693964,140.551127,37.383557,0.967308,5.612621,-4.162261,-1.616196,-5.108159,4.255758,1.588311,-0.171072,0.465715,-0.126890,-143.120612,188.571129,1635.025661,-22.925213,0
0.089583,-199.864678,67.508910,91.470648,2.048201,6.111669,-2.299740,-3.697912,-5.692106,2.425256,3.840383,-0.218472,0.465095,-0.100873,-154.705428,188.797215,1634.632219,-23.298524,0
0.090625,-170.541372,5.072436,153.954543,3.286724,5.513545,-0.272288,-4.984791,-5.133548,0.472157,5.021302,-0.240349,0.477842,-0.115740,-123.745036,188.721918,1633.969331,-23.118933,0
0.091667,-125.138272,-54.392550,191.211569,3.951023,4.218221,1.948255,-5.662295,-3.991043,-1.802230,5.891850,-0.240349,0.487212,-0.119457,-82.438243,188.797244,1633.693889,-23.122703,0
0.092708,-50.050268,-111.661219,194.468217,4.142431,2.163317,3.975707,-5.567672,-1.898264,-3.806059,5.702601,-0.276811,0.418037,-0.130607,-23.962505,188.570461,1633.367643,-23.464390,0
0.093750,15.839597,-163.245304,167.187714,3.590725,-0.056715,5.327342,-4.591158,0.172753,-5.268769,4.869902,-0.258580,0.464269,-0.119457,23.547625,188.722257,1633.562806,-23.025779,0
0.094792,70.101838,-188.767210,99.575813,2.284646,-2.522600,5.806045,-2.577571,2.428747,-5.687290,2.844930,-0.200241,0.469849,-0.138040,67.669000,188.797684,1633.270839,-22.247199,0
0.095833,130.906736,-188.121235,26.677934,0.787160,-4.397701,5.480205,-0.560199,4.361938,-5.513963,0.831312,-0.156487,0.467645,-0.097156,112.848656,188.797779,1633.990386,-21.585291,0
0.096875,171.936765,-140.201594,-37.519347,-0.462623,-5.630644,4.249252,1.782678,5.460919,-4.296447,-1.511600,-0.127317,0.465784,-0.112023,143.167324,188.571469,1634.054070,-20.865450,0
0.097917,199.700682,-67.030181,-91.521376,-1.498478,-6.118684,2.362595,3.837899,6.044866,-2.432126,-3.737177,-0.039809,0.453658,-0.119457,156.508439,188.722382,1633.717472,-21.070658,0
0.098958,170.253076,-4.769882,-154.321216,-2.658186,-5.553585,0.343188,5.147488,5.460919,-0.495937,-4.974870,-0.021578,0.482596,-0.115740,124.185789,188.797590,1634.308687,-20.544322,0
0.100000,125.200274,54.883024,-190.739776,-3.435078,-4.247253,-1.905513,5.832561,4.278517,1.765768,-5.796214,-0.006994,0.477704,-0.074856,81.978330,188.722302,1633.816703,-20.474468,0
0.101042,49.897572,112.116458,-194.604007,-3.446337,-2.166661,-3.965147,5.722798,2.229262,3.833009,-5.652384,-0.017932,0.505402,-0.112023,25.146307,188.646936,1633.555984,-20.986473,0
0.102083,-15.947093,162.878392,-167.019713,-2.984706,0.013005,-5.336896,4.727359,0.125602,5.274582,-4.762910,-0.025225,0.460824,-0.115740,-23.849921,188.722320,1633.516879,-20.993088,0
0.103125,-70.028536,189.245939,-98.630104,-1.588553,2.548611,-5.799509,2.728912,-2.155781,5.710013,-2.726583,-0.083563,0.458481,-0.145474,-66.924271,188.797713,1633.728849,-20.736830,0
0.104167,-131.059432,187.601638,-26.108928,-0.203659,4.416373,-5.433441,0.685046,-4.059956,5.498639,-0.720536,-0.130964,0.464958,-0.104590,-112.193995,188.646933,1634.088015,-20.688600,0
0.105208,-172.631858,139.588037,37.663045,0.978568,5.634638,-4.194442,-1.654046,-5.169818,4.259985,1.648871,-0.189302,0.462202,-0.112023,-143.683529,188.647012,1635.021598,-21.150066,0
0.106250,-199.570880,66.498839,92.066080,2.059460,6.045619,-2.259513,-3.720622,-5.713868,2.463303,3.829028,-0.240349,0.463511,-0.104590,-155.020662,188.722353,1635.260356,-20.128007,0
0.107292,-170.100674,4.391226,154.914526,3.252946,5.539232,-0.296424,-4.996146,-5.115413,0.476385,5.032657,-0.258580,0.459790,-0.115740,-123.700002,188.797688,1635.330847,-19.763338,0
0.108333,-125.149572,-55.085506,190.652592,3.939764,4.192535,1.964346,-5.609306,-3.951146,-1.781093,5.884280,-0.262226,0.456758,-0.100873,-83.226325,188.646898,1634.730589,-19.651220,0
0.109375,-49.530471,-112.354175,194.614037,4.119912,2.093597,3.983752,-5.491973,-1.938161,-3.818741,5.721526,-0.240349,0.466267,-0.104590,-23.433363,188.646911,1635.350385,-18.931632,0
0.110417,16.336794,-162.845973,166.811012,3.579466,-0.082401,5.323319,-4.530599,0.176380,-5.277224,4.790417,-0.254934,0.492655,-0.126890,24.054250,188.722242,1634.413525,-19.338184,0
