1-Time,2-VGERA,3-VGERB,4-VGERC,5-VN,6-IGERAN,7-IGERBN,8-IGERCN,9-IGERAT,10-IGERBT,11-IGERCT,12-IN,13-IFD,14-IFAULT,15-VFAULT,16-Speed (rad/s),17-Active Power,18-Reactive Power,19-FAULT 
0.000000,-143.344069,173.291379,-10.981439,2.679228,4.943003,-5.188433,-0.206895,-4.675425,5.297459,0.108839,-0.139399,0.444689,-0.028224,-117.225809,188.570989,1662.050603,-44.429277,0
0.001042,-187.216861,125.837588,49.894508,3.844158,5.922879,-3.755774,-2.348701,-5.767122,4.000681,2.218642,-0.161317,0.447694,-0.028224,-161.888998,188.571098,1662.306464,-44.632829,0
0.002083,-190.472159,48.664773,109.748675,4.986468,5.894477,-1.656393,-4.300208,-5.774474,1.893941,4.050933,-0.201500,0.449262,-0.024490,-176.252698,188.721938,1661.980213,-44.469896,0
0.003125,-166.063098,-16.306328,164.444697,6.004368,5.322882,0.435050,-5.553948,-5.156948,-0.263159,5.335316,-0.241683,0.435217,-0.024490,-163.427158,188.571024,1660.729709,-44.157754,0
0.004167,-103.418468,-70.996581,192.697538,6.581178,3.561944,2.808264,-5.964399,-3.451400,-2.604914,5.723121,-0.256295,0.456970,-0.024490,-111.672599,188.571127,1659.634211,-44.071869,0
0.005208,-32.085482,-129.975554,194.088637,6.603798,1.577339,4.574283,-5.546485,-1.437089,-4.476639,5.459841,-0.256295,0.447367,-0.017021,-54.387450,188.646473,1659.203667,-43.307906,0
0.006250,29.005226,-174.022530,146.446591,5.676378,-0.851051,5.733110,-4.251700,0.911716,-5.559385,4.157669,-0.190541,0.447759,0.001650,0.398188,188.721847,1658.276146,-42.478077,0
0.007292,80.817768,-203.548259,72.262879,4.319178,-3.243939,6.145843,-2.195715,3.381820,-6.037808,2.247105,-0.143052,0.443317,-0.043161,56.280897,188.571084,1658.069090,-42.263534,0
0.008333,143.280918,-173.237271,10.943750,3.154248,-4.838014,5.364032,0.046838,4.877850,-5.332764,0.119513,-0.117481,0.444885,-0.046895,121.528286,188.553209,1657.984988,-41.843813,0
0.009375,186.654640,-124.998222,-50.116856,1.989318,-5.778838,3.963122,2.229690,6.002629,-4.006609,-2.040100,-0.095563,0.442403,-0.035692,167.548675,188.696128,1658.358558,-41.795151,0
0.010417,190.068733,-47.209281,-109.589394,0.869628,-5.796589,1.839929,4.166271,5.976899,-1.916656,-3.897296,-0.059033,0.449784,-0.009553,180.713514,188.719865,1657.152892,-41.270705,0
0.011458,165.602959,17.121533,-164.014584,-0.204822,-5.210793,-0.235640,5.378966,5.414509,0.215264,-5.224373,0.006721,0.456382,-0.009553,167.616535,188.596938,1657.122936,-41.032805,0
0.012500,103.071754,71.207740,-192.809091,-0.713772,-3.453405,-2.660445,5.890163,3.705286,2.519248,-5.583716,0.014027,0.451483,-0.002084,117.841226,188.514644,1657.262479,-40.565177,0
0.013542,33.213293,130.295442,-193.867804,-0.736392,-1.447498,-4.434402,5.412548,1.702002,4.483300,-5.306204,-0.004238,0.452397,-0.013287,59.289357,188.647011,1658.276730,-40.764350,0
0.014583,-28.251717,175.006868,-146.053410,0.134478,0.980892,-5.680537,4.058061,-0.727669,5.620604,-3.954222,-0.044421,0.455010,-0.028224,4.865638,188.722320,1658.993534,-42.455181,0
0.015625,-80.903604,203.759419,-71.389584,1.548228,3.427034,-5.998024,2.020733,-3.197773,6.086437,-2.047216,-0.044421,0.442468,0.001650,-51.854010,188.571609,1659.041319,-42.841460,0
0.016667,-143.638974,173.243056,-9.959659,2.690538,5.024659,-5.200339,-0.240477,-4.748940,5.297459,0.119513,-0.121134,0.440443,-0.020755,-118.526459,188.496129,1659.786599,-43.035076,0
0.017708,-186.581681,124.714064,50.583902,3.889398,5.940631,-3.763711,-2.419597,-5.807556,3.950320,2.279126,-0.146705,0.439136,-0.013287,-161.787208,188.646882,1659.639581,-43.789695,0
0.018750,-190.483502,47.589573,109.994887,4.997778,5.997435,-1.648456,-4.337521,-5.785501,1.864564,4.132764,-0.223418,0.444362,-0.039427,-176.659858,188.722364,1660.203983,-44.397125,0
0.019792,-166.414715,-15.931820,164.223107,6.015678,5.369036,0.458862,-5.546485,-5.201057,-0.263159,5.406473,-0.238030,0.451875,-0.039427,-163.981348,188.571561,1661.419269,-44.761090,0
0.020833,-104.110360,-70.561668,193.362311,6.592488,3.558394,2.907478,-6.035295,-3.466103,-2.596520,5.772931,-0.248989,0.459648,-0.028224,-112.543469,188.571476,1662.387475,-44.944049,0
0.021875,-33.741487,-129.987635,193.805493,6.626418,1.495683,4.610001,-5.520366,-1.451792,-4.506016,5.449167,-0.212459,0.458342,-0.009553,-54.149940,188.646938,1662.630127,-45.613762,0
0.022917,28.574211,-174.976921,145.720266,5.687688,-0.911406,5.816450,-4.180804,0.948473,-5.647516,4.111417,-0.241683,0.458603,-0.028224,0.488668,188.722273,1663.379996,-46.587369,0
0.023958,80.681658,-203.536179,70.699432,4.296558,-3.282992,6.106157,-2.136013,3.492092,-6.033612,2.225758,-0.175929,0.438287,0.005384,56.857707,188.571540,1663.625353,-47.438561,0
0.025000,143.292261,-173.152705,9.909659,3.131628,-4.869966,5.399749,0.076689,4.958716,-5.290797,0.105281,-0.106522,0.440247,-0.035692,121.381256,188.496174,1663.894146,-47.993224,0
0.026042,186.337050,-124.925736,-50.227652,2.011938,-5.739785,3.971059,2.196107,6.002629,-3.998216,-2.000964,-0.069992,0.444297,-0.039427,167.435575,188.646985,1663.569795,-47.599535,0
0.027083,190.329610,-48.779798,-109.872538,0.892248,-5.839192,1.851835,4.151345,5.991602,-1.946033,-3.886623,-0.033462,0.452920,-0.002084,181.731414,188.646844,1664.134831,-47.648772,0
0.028125,166.113372,15.671825,-164.248485,-0.125652,-5.200142,-0.299138,5.371503,5.403482,0.219461,-5.156774,-0.022503,0.461608,0.001650,168.182035,188.571607,1663.534612,-48.004099,0
0.029167,103.638879,70.990284,-193.006061,-0.747702,-3.435654,-2.648539,5.845387,3.657501,2.544428,-5.512559,-0.015197,0.460498,-0.031958,116.936426,188.496100,1662.659721,-48.889290,0
0.030208,32.373948,130.102147,-193.917046,-0.781632,-1.408445,-4.426465,5.375234,1.665244,4.416153,-5.270625,0.003068,0.450699,-0.054364,58.214907,188.571529,1661.453460,-48.647146,0
0.031250,-29.499392,174.378661,-145.831819,0.100548,0.984442,-5.549574,4.050598,-0.701939,5.519884,-3.911528,-0.044421,0.427770,-0.035692,4.458478,188.722197,1659.701826,-47.835021,0
0.032292,-80.710782,203.831905,-71.143371,1.570848,3.352478,-5.914684,2.013270,-3.116907,6.002503,-2.047216,-0.069992,0.440377,-0.046895,-51.073620,188.571460,1658.190415,-47.067000,0
0.033333,-143.276014,173.267217,-10.932197,2.690538,4.903950,-5.188433,-0.184507,-4.664397,5.255492,0.044798,-0.110175,0.445930,0.009119,-117.146639,188.496036,1656.932884,-46.250685,0
0.034375,-187.058066,125.692617,49.906818,3.832848,5.834123,-3.739900,-2.367358,-5.730365,3.988091,2.183064,-0.161317,0.445538,-0.005818,-161.900308,188.646924,1656.346955,-45.072244,0
0.035417,-190.426789,48.725178,109.551705,4.986468,5.919329,-1.672268,-4.285282,-5.704635,1.898138,4.015355,-0.219765,0.448608,-0.020755,-176.083048,188.722300,1654.669670,-44.283819,0
0.036458,-166.017728,-16.064710,164.457008,5.993058,5.262528,0.427113,-5.475589,-5.145921,-0.212799,5.292622,-0.270907,0.439724,-0.028224,-163.506328,188.571540,1652.850483,-43.242077,0
0.037500,-103.758743,-71.044904,192.451326,6.558558,3.533542,2.800326,-5.912160,-3.433021,-2.520980,5.698216,-0.241683,0.437569,-0.035692,-111.853559,188.496035,1651.037702,-42.405127,0
0.038542,-32.164880,-129.890988,194.224054,6.626418,1.580889,4.586189,-5.497978,-1.448116,-4.409492,5.424262,-0.256295,0.468663,-0.035692,-54.432690,188.646839,1649.869279,-41.277882,0
0.039583,29.164021,-173.587618,146.778978,5.744238,-0.840401,5.673581,-4.191998,0.863931,-5.530009,4.122090,-0.205153,0.463960,-0.039427,0.466048,188.646933,1648.332896,-39.983016,0
0.040625,80.851795,-203.644907,72.459849,4.341798,-3.165833,6.086314,-2.136013,3.352414,-6.021022,2.257778,-0.157664,0.442337,0.016587,56.213037,188.571362,1647.840806,-38.788066,0
0.041667,142.986013,-173.358080,11.042235,3.142938,-4.731506,5.360063,0.043107,4.844768,-5.274010,0.147975,-0.106522,0.445212,-0.054364,121.143746,188.496243,1646.625143,-38.088121,0
0.042708,186.756722,-125.094869,-50.141477,1.989318,-5.686530,3.939310,2.173719,5.936466,-3.977232,-1.968943,-0.051727,0.442664,-0.031958,167.627845,188.646936,1645.786720,-37.761067,0
0.043750,189.943965,-47.281766,-109.503220,0.880938,-5.768187,1.879615,4.091643,5.969548,-1.912459,-3.797677,-0.026156,0.444297,-0.031958,180.498624,188.571523,1644.310719,-36.916550,0
0.044792,165.602959,17.036967,-164.186932,-0.193512,-5.132687,-0.203891,5.322995,5.403482,0.164904,-5.114080,-0.004238,0.444428,-0.035692,167.740945,188.571605,1643.670509,-35.449665,0
0.045833,103.502769,71.352711,-192.045834,-0.713772,-3.488908,-2.624728,5.770760,3.679555,2.489871,-5.512559,0.014027,0.451352,-0.017021,118.191836,188.496152,1643.232813,-34.508159,0
0.046875,33.258663,130.235037,-193.781629,-0.792942,-1.468800,-4.366936,5.382697,1.709353,4.428743,-5.277741,-0.004238,0.450764,-0.013287,59.142327,188.647000,1643.621388,-34.356907,0
0.047917,-28.580649,174.233690,-146.471970,0.123168,1.005744,-5.561480,4.054329,-0.687236,5.519884,-3.939991,-0.040768,0.453508,-0.005818,4.481098,188.571525,1643.916726,-34.491551,0
0.048958,-80.914947,203.807743,-71.611174,1.536918,3.338277,-5.874998,1.998345,-3.161016,6.023487,-2.040100,-0.048074,0.442403,0.005384,-51.797460,188.571560,1644.482151,-35.075954,0
0.050010,-144.217442,172.614849,-8.531629,2.701848,4.932352,-5.116998,-0.285254,-4.664397,5.213525,0.140860,-0.102869,0.439463,0.001650,-119.714009,188.496244,1643.991550,-35.254177,0
0.051053,-186.332146,123.940886,51.839583,3.934638,5.834123,-3.688308,-2.382284,-5.697283,3.904157,2.236431,-0.150358,0.442337,0.020321,-161.662798,188.646956,1642.707799,-35.452226,0
0.052083,-190.245309,47.927838,109.687122,5.031708,5.908678,-1.684173,-4.266625,-5.704635,1.868761,4.040260,-0.201500,0.442076,-0.013287,-176.128288,188.571527,1642.649925,-35.682166,0
0.053125,-166.301290,-15.653959,164.333902,5.970438,5.280279,0.391396,-5.460664,-5.167975,-0.208602,5.299737,-0.208806,0.449915,-0.035692,-164.128378,188.571616,1642.984732,-35.762585,0
0.054167,-104.858965,-70.561668,192.278978,6.535938,3.547743,2.804295,-5.953205,-3.455076,-2.483210,5.666196,-0.259948,0.460040,-0.024490,-113.267309,188.496085,1642.680035,-35.616447,0
0.055208,-33.594035,-129.818502,194.051705,6.592488,1.545386,4.550472,-5.471858,-1.440765,-4.401098,5.402915,-0.230724,0.455402,-0.028224,-54.116010,188.646880,1642.403707,-36.224404,0
0.056250,28.993883,-173.829236,146.557387,5.732928,-0.815549,5.673581,-4.150953,0.959500,-5.500632,4.075838,-0.216112,0.440508,-0.058098,0.941068,188.571518,1641.841417,-37.536146,0
0.057292,80.919850,-203.572421,70.994887,4.307868,-3.190685,6.050597,-2.136013,3.341386,-5.983251,2.211526,-0.183235,0.437895,-0.028224,56.959497,188.571426,1640.866871,-37.435242,0
0.058333,142.520971,-173.213110,10.131250,3.142938,-4.752807,5.312440,0.046838,4.808011,-5.265617,0.179996,-0.110175,0.439855,-0.065566,120.555626,188.496129,1640.278537,-36.608844,0
0.059375,186.371077,-125.203597,-50.104546,2.034558,-5.647477,3.911530,2.140137,5.877654,-3.989822,-1.954712,-0.077298,0.445799,-0.013287,167.514745,188.646697,1639.546512,-36.250130,0
0.060417,190.023363,-49.093902,-109.614015,0.847008,-5.722033,1.883584,4.043135,5.907060,-1.937640,-3.747867,-0.073645,0.451679,-0.009553,181.199844,188.496045,1638.831239,-36.231991,0
0.061458,166.102029,15.200669,-164.359281,-0.216132,-5.143338,-0.195954,5.233442,5.388779,0.127133,-5.050039,0.003068,0.459518,-0.024490,168.487405,188.571476,1638.175283,-36.275451,0
0.062500,104.398826,71.328549,-191.664205,-0.702462,-3.414352,-2.573136,5.711058,3.661177,2.456298,-5.434286,-0.004238,0.454684,0.005384,117.648956,188.496134,1637.022926,-36.288995,0
0.063542,32.237838,129.981338,-194.052463,-0.736392,-1.465250,-4.327250,5.322995,1.654217,4.323826,-5.192353,-0.029809,0.460628,0.020321,58.033947,188.571636,1634.915869,-36.117484,0
0.064583,-30.055175,172.928952,-146.853599,0.145788,0.856632,-5.442422,4.017016,-0.643127,5.381393,-3.907970,-0.044421,0.466899,-0.002084,3.904288,188.496174,1632.744035,-35.023071,0
0.065625,-81.175824,203.747338,-71.561932,1.570848,3.221118,-5.835312,2.084166,-3.028689,5.893389,-2.032985,-0.077298,0.440965,-0.031958,-51.107550,188.571563,1630.413475,-33.760642,0
0.066667,-142.640834,173.339703,-11.018371,2.713158,4.754838,-5.120967,-0.080028,-4.476934,5.209328,-0.019243,-0.106522,0.446061,-0.020755,-116.230529,188.496223,1628.565682,-31.944833,0
0.067708,-187.194176,125.994640,49.808333,3.844158,5.745366,-3.759743,-2.259148,-5.627444,3.950320,2.101233,-0.143052,0.445930,-0.024490,-162.024718,188.647098,1628.219411,-30.958012,0
0.068750,-190.120542,49.232576,109.120834,4.952538,5.784419,-1.711953,-4.132296,-5.594362,1.919121,3.883714,-0.172276,0.448412,-0.013287,-175.234798,188.496074,1625.949536,-29.756135,0
0.069792,-165.677453,-15.774768,164.617046,6.038298,5.195072,0.335836,-5.378574,-5.109163,-0.191815,5.200118,-0.248989,0.454161,-0.024490,-163.653358,188.571558,1624.207883,-29.164316,0
0.070833,-104.666143,-71.455655,190.826326,6.547248,3.558394,2.633646,-5.781562,-3.319073,-2.395079,5.555902,-0.241683,0.409675,0.020321,-112.803599,188.496179,1621.119445,-29.034778,0
0.071875,-32.266962,-129.625208,194.396402,6.649038,1.587990,4.431414,-5.434544,-1.473846,-4.262607,5.321085,-0.263601,0.431297,0.016587,-54.534480,188.646911,1619.021399,-27.476026,0
0.072917,29.424898,-171.799644,147.936175,5.766858,-0.733892,5.542618,-4.121102,0.786740,-5.370534,4.079396,-0.201500,0.442860,-0.024490,1.008928,188.496221,1616.990979,-25.387537,0
0.073958,81.089988,-203.451612,72.792235,4.319178,-3.062875,5.947413,-2.214372,3.242141,-5.874137,2.257778,-0.172276,0.444166,-0.020755,56.280897,188.571552,1615.609854,-24.500690,0
0.075000,142.055928,-173.273514,10.943750,3.142938,-4.603695,5.209257,-0.005401,4.694062,-5.194273,0.226248,-0.117481,0.441031,-0.020755,120.012746,188.496139,1613.730651,-23.927039,0
0.076042,186.813435,-125.251921,-50.092235,1.966698,-5.597773,3.951216,2.046852,5.811490,-3.994019,-1.883555,-0.069992,0.440377,-0.061832,167.820115,188.646982,1612.939457,-22.878699,0
0.077083,189.615033,-47.801245,-109.084659,0.892248,-5.608424,1.891521,3.893881,5.866627,-1.941836,-3.623342,-0.059033,0.414117,-0.002084,179.571205,188.496185,1611.117111,-21.445548,0
0.078125,165.274027,16.614135,-164.396213,-0.182202,-5.153989,-0.144363,5.188666,5.326291,0.127133,-4.971766,0.006721,0.438614,-0.024490,167.967145,188.496210,1609.448864,-20.718436,0
0.079167,105.045349,71.751381,-190.531629,-0.679842,-3.403701,-2.430267,5.632699,3.664852,2.317807,-5.352456,0.003068,0.458603,-0.009553,119.537726,188.496253,1607.631286,-19.188325,0
0.080208,33.247321,130.029662,-194.138637,-0.759012,-1.543356,-4.263753,5.278219,1.724056,4.260876,-5.171006,-0.004238,0.453704,-0.020755,59.040537,188.722337,1607.174113,-18.341572,0
0.081250,-29.159117,172.385311,-147.715341,0.077928,0.814029,-5.367019,3.998359,-0.562260,5.331032,-3.893739,-0.037115,0.449784,0.005384,3.644158,188.496190,1606.338117,-17.925745,0
0.082292,-81.345962,203.541963,-71.968182,1.502988,3.206917,-5.775783,2.050584,-2.933119,5.838832,-2.065005,-0.091910,0.441488,-0.017021,-51.933180,188.496058,1605.319841,-16.747323,0
0.083333,-142.141764,173.375946,-10.008902,2.701848,4.740637,-5.033658,-0.091222,-4.436501,5.125394,-0.044148,-0.132093,0.435739,-0.013287,-117.010919,188.496192,1603.941657,-16.369985,0
0.084375,-186.479599,125.245624,50.399243,3.866778,5.727614,-3.712120,-2.218103,-5.535550,3.925140,2.044308,-0.157664,0.436001,-0.002084,-161.832448,188.571426,1602.150091,-15.371066,0
0.085417,-189.757582,48.507722,109.219319,5.031708,5.724064,-1.743702,-4.065131,-5.594362,1.956891,3.841020,-0.212459,0.460367,-0.024490,-175.099078,188.496214,1601.776133,-14.280571,0
0.086458,-165.904303,-15.219047,164.592425,6.038298,5.255427,0.331867,-5.281558,-5.090784,-0.145652,5.136076,-0.248989,0.453312,-0.009553,-164.241478,188.496096,1600.954305,-13.742665,0
0.087500,-106.401545,-71.117390,190.653978,6.513318,3.494489,2.633646,-5.721860,-3.455076,-2.340522,5.502535,-0.241683,0.455533,-0.028224,-114.466169,188.492372,1601.272507,-12.458972,0
0.088542,-33.696117,-129.456075,194.310228,6.649038,1.584439,4.423477,-5.389768,-1.488549,-4.258411,5.306853,-0.216112,0.458603,-0.050629,-54.206490,188.646121,1601.184181,-12.847659,0
0.089583,29.504296,-171.872129,147.825379,5.721618,-0.716141,5.526744,-4.072594,0.816146,-5.324371,4.050933,-0.197847,0.449131,-0.020755,1.676218,188.496192,1600.465941,-13.154943,0
0.090625,81.203413,-203.572421,71.585796,4.307868,-3.030922,5.927571,-2.229297,3.205384,-5.836367,2.222200,-0.168623,0.436327,-0.002084,57.038667,188.510364,1599.506523,-12.770067,0
0.091667,141.432090,-173.394323,10.402083,3.154248,-4.532690,5.197351,-0.083760,4.686711,-5.164896,0.222690,-0.069992,0.437307,0.001650,119.277596,188.495817,1598.977881,-12.882040,0
0.092708,186.359735,-125.614348,-49.981440,2.023248,-5.576472,3.911530,2.035658,5.782084,-3.973036,-1.837303,-0.080951,0.442011,-0.046895,167.593915,188.571194,1598.236178,-12.635887,0
0.093750,189.524293,-49.601300,-109.244697,0.869628,-5.565821,1.947081,3.852836,5.752678,-2.029967,-3.577090,-0.015197,0.447890,-0.017021,180.193254,188.496556,1597.158104,-11.994693,0
0.094792,165.421479,15.140265,-164.654735,-0.182202,-5.026179,-0.132457,5.117770,5.285858,0.059986,-4.886378,-0.004238,0.452789,0.009119,168.645745,188.495810,1595.936183,-11.500138,0
0.095833,106.020804,71.703057,-190.088448,-0.679842,-3.378849,-2.378675,5.546877,3.646474,2.292627,-5.256394,0.006721,0.449392,-0.009553,118.994846,188.495721,1594.615817,-11.602956,0
0.096875,32.237838,129.775963,-194.138637,-0.804252,-1.497202,-4.184381,5.259562,1.724056,4.147565,-5.074944,-0.000585,0.438810,-0.039427,58.056567,188.571129,1592.386264,-10.754971,0
0.097916,-30.701697,171.116816,-148.109281,0.066618,0.782077,-5.255899,3.972239,-0.514476,5.209328,-3.843929,-0.055380,0.452397,-0.020755,3.214378,188.495562,1590.255292,-9.798798,0
0.098958,-81.527442,203.469477,-72.029735,1.548228,3.089757,-5.704349,2.102823,-2.922092,5.813652,-2.111257,-0.048074,0.445669,-0.002084,-51.243270,188.495597,1590.164169,-9.182800,0
0.100000,-141.710749,173.677968,-11.264583,2.724468,4.587975,-4.986035,0.039375,-4.318877,5.087624,-0.147326,-0.113828,0.445408,-0.013287,-115.099529,188.495622,1588.768299,-7.917363,0
0.101041,-187.024039,126.296663,49.722159,3.832848,5.582053,-3.743868,-2.117356,-5.447332,3.925140,1.973151,-0.150358,0.441488,0.009119,-162.081268,188.646341,1587.896272,-7.302248,0
0.102083,-189.700869,49.595003,108.813069,4.952538,5.645958,-1.731796,-3.953190,-5.443656,1.990465,3.769863,-0.194194,0.443840,-0.031958,-174.284758,188.495600,1585.788538,-7.001671,0
0.103125,-165.348520,-15.303613,164.764773,6.015678,5.131167,0.268370,-5.180811,-5.002566,-0.099488,5.040015,-0.205153,0.439006,-0.020755,-163.766458,188.495627,1583.762579,-6.304041,0
0.104166,-105.993215,-71.914729,189.275190,6.513318,3.551294,2.502683,-5.553948,-3.374209,-2.248195,5.399357,-0.216112,0.426006,-0.009553,-114.025079,188.495727,1581.088619,-5.603586,0
0.105217,-31.699837,-130.434628,193.817804,6.603798,1.648344,4.288545,-5.341260,-1.462819,-4.153493,5.264159,-0.219765,0.434890,0.001650,-53.867190,188.646424,1579.529264,-4.219078,0
0.106250,30.094106,-170.337854,148.994887,5.800788,-0.577680,5.391812,-4.113639,0.702198,-5.215257,4.029586,-0.186888,0.438548,-0.020755,1.721458,188.495629,1577.742563,-2.900542,0
0.107291,81.577715,-203.149590,73.173864,4.364418,-2.963467,5.828356,-2.229297,3.084084,-5.806990,2.296915,-0.168623,0.444101,0.001650,56.393997,188.495640,1577.224619,-1.303925,0
0.108333,141.352693,-173.684265,11.423864,3.142938,-4.411980,5.149728,-0.087491,4.561735,-5.118733,0.318752,-0.124787,0.439398,0.024056,118.768646,188.495673,1575.762631,0.046874,0
0.109375,186.700010,-125.457296,-50.203030,1.966698,-5.516117,3.903593,1.961031,5.679163,-3.901692,-1.826630,-0.062686,0.438810,-0.035692,168.012385,188.547234,1574.113642,-0.020675,0
0.110416,189.320128,-48.381128,-108.764584,0.847008,-5.509016,1.915332,3.759551,5.693866,-1.979606,-3.541512,-0.055380,0.446191,0.012853,178.881295,188.553652,1572.635522,-0.061086,0
