1-Time,2-VGERA,3-VGERB,4-VGERC,5-VN,6-IGERAN,7-IGERBN,8-IGERCN,9-IGERAT,10-IGERBT,11-IGERCT,12-IN,13-IFD,14-IFAULT,15-VFAULT,16-Speed (rad/s),17-Active Power,18-Reactive Power,19-FAULT 
0.000000,151.721199,-174.473533,-0.140805,0.336788,-3.028988,6.670931,-2.869011,2.849479,-6.625792,3.172062,-0.178364,0.625288,-0.059989,-331.359800,188.420329,1648.597124,864.235567,0
0.001042,184.931679,-125.755231,-68.627627,-1.003069,-5.193977,6.063500,-0.268759,4.837075,-6.029717,0.480931,-0.134610,0.622807,-0.033973,-309.079576,188.420301,1648.926757,864.017676,0
0.002083,193.632622,-44.620702,-123.796216,-2.083962,-6.302157,4.707842,2.077903,6.110152,-4.664239,-1.896046,-0.072625,0.608407,-0.048839,-231.960052,188.495741,1649.314510,863.147642,0
0.003125,162.467428,23.406397,-172.901122,-2.995965,-6.680113,2.624072,4.299661,6.371296,-2.681548,-4.095128,-0.014286,0.648576,-0.093440,-134.688127,188.269465,1649.859657,862.909632,0
0.004167,112.160160,89.659999,-183.473076,-3.299967,-5.858151,-0.203902,5.870411,5.624134,0.074774,-5.775666,0.044053,0.632453,-0.089723,-15.023395,188.420396,1650.787005,862.188633,0
0.005208,27.602819,139.717232,-189.743339,-3.435078,-4.188541,-2.730171,6.604689,4.053643,2.585901,-6.585655,0.051345,0.623634,-0.063706,117.993711,188.420249,1652.587310,861.616134,0
0.006250,-47.609484,167.987471,-155.706506,-2.748261,-1.961171,-4.757624,6.120217,1.928221,4.695416,-6.233650,0.022176,0.628251,-0.056273,218.969624,188.495705,1654.776407,861.396149,0
0.007292,-103.996111,192.687227,-74.594098,-1.216996,0.948721,-6.402917,4.844693,-0.828299,6.369501,-4.901332,0.000299,0.635416,-0.026539,300.401086,188.269546,1656.849013,860.215038,0
0.008333,-152.224193,173.989171,-1.003574,0.224195,3.117379,-6.688530,3.046847,-2.960975,6.711927,-3.095889,-0.047102,0.634727,-0.082290,318.346856,188.420202,1658.183191,858.733786,0
0.009375,-185.705871,126.222215,68.200196,1.564051,5.242004,-6.004667,0.367111,-4.919555,6.086259,-0.427468,-0.098148,0.621774,-0.045123,318.403147,188.420390,1660.058386,857.812273,0
0.010417,-193.423720,45.158156,124.280161,2.656203,6.390549,-4.568556,-1.945486,-6.159989,4.716554,1.979789,-0.141902,0.634452,-0.052556,231.669014,188.495698,1660.962455,856.737080,0
0.011458,-162.902622,-23.667604,172.984061,3.635763,6.728141,-2.456626,-4.193739,-6.410252,2.661995,4.205366,-0.178364,0.634452,-0.037689,134.149406,188.345003,1661.695559,855.401081,0
0.012500,-111.329763,-90.132616,183.483106,3.838430,5.763069,0.306984,-5.685005,-5.583296,-0.077416,5.813989,-0.243995,0.586222,-0.056273,13.167450,188.420285,1661.576756,854.586451,0
0.013542,-25.665029,-139.743538,190.336649,4.041097,4.196204,2.825208,-6.434422,-3.969281,-2.584315,6.586128,-0.254934,0.590562,-0.071140,-119.219189,188.420399,1662.274791,853.534568,0
0.014583,49.445575,-167.661427,155.218317,3.343021,1.913792,4.808410,-5.968875,-1.988939,-4.668466,6.253048,-0.254934,0.654501,-0.056273,-219.328212,188.495761,1663.288596,853.656629,0
0.015625,104.284112,-193.359509,73.777814,1.789237,-0.930049,6.457727,-4.700921,0.818359,-6.270683,4.939655,-0.214826,0.629835,-0.059989,-302.076898,188.344921,1665.077110,852.884498,0
0.016667,151.992397,-173.862793,1.232334,0.348047,-3.084030,6.699090,-2.876581,2.896630,-6.706115,3.172062,-0.207533,0.634383,-0.074856,-331.494900,188.420256,1666.438296,852.616536,0
0.017708,185.700074,-126.730067,-67.485370,-1.014329,-5.234341,6.043386,-0.219554,4.891480,-6.059309,0.499856,-0.123671,0.630662,-0.045123,-311.668990,188.420229,1667.877931,852.550038,0
0.018750,193.214525,-46.699568,-123.929885,-2.083962,-6.386555,4.639456,2.100613,6.117406,-4.748788,-1.937681,-0.079917,0.634314,-0.071140,-233.097143,188.495732,1669.063297,852.533570,0
0.019792,163.179323,21.809075,-173.192762,-3.029743,-6.727816,2.543618,4.337511,6.396685,-2.677320,-4.185968,-0.036163,0.631489,-0.071140,-135.431177,188.344869,1670.925770,851.634178,0
0.020833,112.939855,89.260668,-183.363711,-3.266189,-5.806778,-0.228038,5.851486,5.587864,0.066319,-5.805946,0.033114,0.615297,-0.041406,-14.471737,188.420245,1671.239698,851.005411,0
0.021875,27.489820,139.458842,-190.144344,-3.468856,-4.195880,-2.766376,6.619828,4.050016,2.632403,-6.528880,0.007591,0.631420,-0.071140,119.153318,188.420189,1671.101700,850.330300,0
0.022917,-48.682977,167.623376,-155.293350,-2.793298,-1.953832,-4.757624,6.139141,1.906459,4.686961,-6.154165,0.011237,0.625908,-0.071140,219.926582,188.495721,1669.959382,849.811658,0
0.023958,-104.052611,192.980853,-72.965774,-1.115662,0.956060,-6.390849,4.882542,-0.824672,6.263814,-4.867267,0.000299,0.625219,-0.059989,300.693803,188.420318,1668.131836,849.858183,0
0.025000,-151.365398,174.235816,0.418172,0.303010,3.069676,-6.664394,3.054417,-2.942840,6.686562,-3.061824,-0.043455,0.629353,-0.074856,318.369372,188.495752,1667.342185,849.641706,0
0.026042,-185.163475,125.623220,68.649808,1.597829,5.256682,-6.032827,0.401175,-4.915928,6.073577,-0.461533,-0.120025,0.622118,-0.078573,318.403147,188.420320,1666.649766,850.063309,0
0.027083,-193.717518,44.876275,124.061431,2.667463,6.408897,-4.608783,-1.900067,-6.138227,4.767283,1.926799,-0.138256,0.621981,-0.048839,232.749813,188.495790,1666.140269,851.082694,0
0.028125,-162.812223,-22.786728,173.032668,3.658281,6.728141,-2.504899,-4.163460,-6.439268,2.733863,4.141021,-0.196595,0.638241,-0.059989,136.175905,188.420341,1665.764174,852.125804,0
0.029167,-112.606654,-89.193015,183.519561,3.849689,5.865815,0.254689,-5.673650,-5.652209,-0.030914,5.798849,-0.229410,0.633418,-0.071140,16.409848,188.495741,1666.242458,852.681537,0
0.030208,-27.857214,-139.696558,189.972098,3.984801,4.258586,2.801072,-6.464702,-4.128869,-2.533585,6.612623,-0.258580,0.647749,-0.071140,-117.496666,188.420316,1666.842353,854.345457,0
0.031250,47.501988,-168.025523,155.971721,3.320502,1.976173,4.832547,-5.987800,-1.996193,-4.600826,6.264403,-0.229410,0.641273,-0.067423,-218.573904,188.495772,1666.793703,854.029163,0
0.032292,104.069414,-192.877964,74.786402,1.687904,-0.878676,6.441636,-4.704706,0.763954,-6.232636,4.951010,-0.200241,0.631007,-0.015389,-301.930540,188.421593,1666.161193,854.224923,0
0.033333,151.856798,-174.426553,1.062210,0.314269,-3.054674,6.727249,-2.906860,2.853106,-6.659612,3.168277,-0.163779,0.634314,-0.048839,-331.562450,188.495653,1665.417639,854.226488,0
0.034375,185.361077,-126.213287,-68.068650,-1.036847,-5.208654,6.059477,-0.261189,4.884226,-6.042399,0.514996,-0.141902,0.623290,-0.078573,-309.665009,188.420296,1664.818237,854.494517,0
0.035417,193.734321,-45.160972,-123.638245,-2.072703,-6.375547,4.631411,2.089258,6.110152,-4.744561,-1.907401,-0.065333,0.638172,-0.033973,-231.509719,188.495817,1664.179440,855.099348,0
0.036458,162.580427,23.735257,-172.670240,-3.074780,-6.720477,2.559709,4.326156,6.382177,-2.660410,-4.151903,-0.036163,0.600897,-0.059989,-133.708653,188.420200,1662.996994,855.579369,0
0.037500,111.516065,89.883154,-183.533835,-3.311226,-5.839804,-0.224015,5.908260,5.620507,0.108593,-5.790806,0.011237,0.598692,-0.033973,-13.796237,188.495573,1662.820760,856.034978,0
0.038542,26.054729,139.552802,-189.925614,-3.412560,-4.214227,-2.750285,6.623613,4.046389,2.590128,-6.566730,0.014883,0.626184,-0.093440,119.029476,188.420262,1662.419097,856.934993,0
0.039583,-48.660377,167.928746,-155.524231,-2.669446,-1.950163,-4.793828,6.158066,1.928221,4.665824,-6.245005,0.022176,0.630318,-0.056273,219.408699,188.495703,1663.119337,858.055760,0
0.040625,-104.041311,192.698972,-74.351064,-1.171959,0.934043,-6.439121,4.916606,-0.835553,6.306089,-4.965677,-0.036163,0.629491,-0.063706,300.333536,188.420305,1664.515868,858.656772,0
0.041667,-152.133793,174.130111,-1.550399,0.190417,3.095363,-6.664394,3.092266,-2.924705,6.737292,-3.152664,-0.076271,0.636587,-0.052556,318.369372,188.420269,1665.385002,859.707937,0
0.042708,-185.626772,126.727251,67.616916,1.530273,5.264021,-6.032827,0.420100,-4.915928,6.086259,-0.453963,-0.112733,0.625839,-0.078573,318.470697,188.420309,1666.118727,859.258196,0
0.043750,-193.525420,46.790712,124.170796,2.644944,6.405227,-4.620851,-1.922776,-6.178124,4.737691,1.941939,-0.138256,0.635692,-0.048839,233.267696,188.495734,1667.114900,858.343948,0
0.044792,-163.162520,-22.093772,173.081275,3.624503,6.750158,-2.525013,-4.152105,-6.464657,2.750772,4.122096,-0.185656,0.642651,-0.041406,135.579214,188.420334,1667.405577,858.545359,0
0.045833,-112.516255,-89.451405,183.446651,3.804652,5.796095,0.254689,-5.662295,-5.641328,-0.022459,5.802634,-0.258580,0.633831,-0.045123,14.372091,188.495569,1667.274412,858.632871,0
0.046875,-27.009720,-139.626088,190.166525,3.939764,4.214552,2.793026,-6.445777,-4.059956,-2.563178,6.597483,-0.233057,0.610405,-0.082290,-119.207931,188.420153,1667.068224,857.777976,0
0.047917,49.163077,-167.532232,155.400592,3.309243,1.972504,4.820478,-5.987800,-1.930907,-4.626191,6.260618,-0.243995,0.615366,-0.048839,-219.677220,188.495731,1666.916760,857.451083,0
0.048958,104.272812,-193.007159,73.340353,1.744200,-0.922710,6.441636,-4.693351,0.720430,-6.215726,4.958580,-0.222118,0.624806,-0.074856,-301.840473,188.495633,1666.065772,858.427272,0
0.050000,151.698599,-174.191653,0.090076,0.393084,-2.999632,6.727249,-2.925785,2.871241,-6.646930,3.213697,-0.171072,0.628940,-0.056273,-331.551192,188.491862,1665.828260,859.081677,0
0.051042,185.089878,-126.330737,-68.068650,-1.003069,-5.190307,6.107750,-0.272543,4.811686,-6.050854,0.549061,-0.101794,0.626528,-0.078573,-310.824616,188.417923,1664.857921,859.617918,0
0.052083,193.587422,-45.983123,-123.699003,-2.061443,-6.327844,4.731979,2.047623,6.077509,-4.786836,-1.843056,-0.025225,0.637208,-0.074856,-233.378601,188.495340,1664.293020,860.349256,0
0.053125,162.896825,21.879546,-172.974032,-3.029743,-6.735155,2.616027,4.276952,6.364042,-2.690002,-4.076203,-0.010640,0.643271,-0.059989,-136.286809,188.495251,1663.758797,860.327770,0
0.054167,113.256253,89.072748,-183.339408,-3.299967,-5.843473,-0.119425,5.824991,5.627761,-0.047824,-5.756741,0.022176,0.632660,-0.063706,-15.901544,188.495307,1663.085835,861.344260,0
0.055208,28.868411,139.364881,-189.755490,-3.480115,-4.294956,-2.697990,6.578194,4.086286,2.547853,-6.536450,0.025822,0.633349,-0.078573,117.610928,188.495332,1663.067277,861.063083,0
0.056250,-47.406085,167.646866,-155.925236,-2.838335,-2.008874,-4.669124,6.180776,1.982626,4.610866,-6.214725,0.033114,0.638792,-0.067423,218.969624,188.495423,1662.270591,861.038377,0
0.057292,-103.973511,192.029507,-74.545491,-1.194477,0.860654,-6.330508,4.901467,-0.741251,6.225766,-4.878622,0.014883,0.629491,-0.056273,300.052078,188.498705,1660.051465,860.754207,0
0.058333,-151.512297,174.658637,-0.298777,0.235454,3.043990,-6.624167,3.133901,-2.870300,6.656970,-3.164019,-0.017932,0.629077,-0.056273,318.335597,188.495332,1658.542976,861.045395,0
0.059375,-184.564579,126.104765,68.625505,1.575311,5.157606,-6.020758,0.510939,-4.825253,6.039757,-0.514523,-0.090856,0.618605,-0.030256,318.459439,188.495206,1656.270855,861.753619,0
0.060417,-194.011316,44.899765,123.709033,2.644944,6.331838,-4.673146,-1.809228,-6.076568,4.758829,1.870024,-0.134610,0.591596,-0.059989,232.412064,188.488071,1654.133833,862.815361,0
0.061458,-162.303726,-23.432703,172.753180,3.556947,6.735480,-2.569263,-4.023417,-6.352220,2.818412,4.035041,-0.163779,0.611301,-0.067423,134.824906,188.495396,1651.349515,863.734174,0
0.062500,-111.985159,-89.580600,183.665381,3.849689,5.854806,0.166189,-5.601736,-5.663090,0.100139,5.753429,-0.240349,0.619362,-0.037689,15.689315,188.495204,1650.119740,865.444767,0
0.063542,-27.088820,-139.332463,189.644003,4.007319,4.291611,2.676367,-6.392788,-4.081718,-2.461718,6.499073,-0.240349,0.612748,-0.033973,-117.327791,188.495260,1647.900559,865.898202,0
0.064583,48.089584,-167.896328,156.372726,3.376799,2.078919,4.715888,-6.006724,-2.054225,-4.533187,6.264403,-0.251287,0.625426,-0.071140,-218.044763,188.495385,1647.205316,867.287380,0
0.065625,104.464911,-191.550778,75.904356,1.755459,-0.757584,6.369227,-4.742555,0.618874,-6.181906,5.011570,-0.178364,0.639275,-0.026539,-300.838482,188.495157,1646.655454,868.014007,0
0.066667,151.822898,-175.049039,2.058647,0.348047,-2.940920,6.735294,-3.012839,2.769685,-6.689205,3.232622,-0.174718,0.639137,-0.045123,-331.573708,188.495294,1646.844776,868.488126,0
0.067708,184.445783,-127.352553,-67.594735,-1.036847,-5.105909,6.127863,-0.374737,4.710130,-6.046627,0.636116,-0.141902,0.627630,-0.074856,-310.486866,188.570682,1645.481049,869.155055,0
0.068750,193.926420,-46.946214,-123.577486,-2.106481,-6.280140,4.711865,1.964355,6.063001,-4.753016,-1.790066,-0.065333,0.633831,-0.052556,-233.333568,188.495313,1645.164214,868.928892,0
0.069792,162.535227,22.231896,-172.597330,-3.086040,-6.669105,2.616027,4.208823,6.338653,-2.770325,-3.981578,-0.017932,0.643409,-0.041406,-134.384152,188.495322,1643.495653,870.211758,0
0.070833,112.566958,89.460334,-183.570290,-3.288707,-5.825126,-0.119425,5.779572,5.653150,-0.035141,-5.677256,0.011237,0.600966,-0.030256,-14.179020,188.495275,1642.611900,870.711044,0
0.071875,26.811824,139.176961,-189.488154,-3.412560,-4.228905,-2.629603,6.536560,4.162453,2.446393,-6.475890,0.051345,0.571821,-0.071140,119.175835,188.495246,1640.514799,872.659984,0
0.072917,-48.965475,167.682101,-155.828023,-2.770779,-2.027221,-4.665101,6.176991,2.004388,4.568592,-6.195800,0.036760,0.607374,-0.071140,219.746449,188.495329,1639.600708,873.519531,0
0.073958,-104.527208,191.559706,-74.278154,-1.138181,0.794603,-6.278213,4.969595,-0.686846,6.200401,-4.935397,-0.006994,0.633694,-0.056273,299.860687,188.495311,1638.983437,874.859988,0
0.075000,-151.376698,174.917027,-0.699782,0.235454,2.955923,-6.676462,3.198245,-2.841284,6.661197,-3.209439,-0.006994,0.631282,-0.056273,318.436922,188.476207,1638.923160,875.432075,0
0.076042,-184.248181,126.821211,68.090831,1.597829,5.135590,-6.060986,0.552573,-4.810745,6.035529,-0.582653,-0.112733,0.626597,-0.022822,318.448181,188.544769,1638.647637,875.793545,0
0.077083,-193.853118,46.743732,124.037128,2.701241,6.331838,-4.689237,-1.756239,-6.105584,4.813786,1.839744,-0.141902,0.635278,-0.063706,234.506112,188.487192,1639.463411,876.327838,0
0.078125,-162.755723,-20.954506,172.984061,3.658281,6.669429,-2.617535,-4.008277,-6.384863,2.839550,4.016116,-0.196595,0.638861,-0.052556,137.110346,188.562789,1640.207469,876.007972,0
0.079167,-113.691447,-88.840665,183.422347,3.815911,5.832789,0.158143,-5.537392,-5.666717,0.142413,5.734504,-0.229410,0.620672,-0.041406,16.522431,188.564176,1640.296851,875.833286,0
0.080208,-28.591710,-139.461658,189.498183,3.973542,4.287941,2.636140,-6.317089,-4.117988,-2.402533,6.517998,-0.254934,0.603860,-0.063706,-117.620507,188.563948,1640.409264,876.373675,0
0.081250,47.897485,-167.673172,156.384878,3.331761,2.064241,4.675660,-5.976445,-2.115884,-4.461319,6.218983,-0.233057,0.641204,-0.026539,-218.900395,188.488174,1639.013531,876.842119,0
0.082292,104.611810,-191.386348,75.236014,1.721681,-0.764923,6.292795,-4.738770,0.607993,-6.131176,4.992645,-0.196595,0.629353,-0.030256,-300.894774,188.630525,1637.980717,876.891588,0
0.083333,151.224002,-175.002059,0.150835,0.303010,-2.871200,6.658863,-2.990129,2.718907,-6.579290,3.255332,-0.156487,0.624874,-0.071140,-331.461125,188.559960,1635.843284,877.367815,0
0.084375,183.632188,-126.694832,-68.506110,-0.991810,-5.010503,6.087636,-0.412586,4.702876,-6.008579,0.670181,-0.116379,0.624117,-0.030256,-308.606726,188.557815,1634.793332,877.682821,0
0.085417,193.960320,-45.325402,-123.468121,-2.083962,-6.247115,4.748069,1.896226,5.972326,-4.769926,-1.733291,-0.021578,0.642720,-0.056273,-232.950785,188.480495,1632.842600,878.584249,0
0.086458,162.354429,22.302366,-172.269235,-3.052262,-6.647088,2.744754,4.102845,6.284248,-2.825282,-3.860458,-0.006994,0.630938,-0.037689,-135.521243,188.487047,1630.756604,879.409506,0
0.087500,112.792956,89.154963,-183.290801,-3.266189,-5.858151,-0.030925,5.700089,5.573356,-0.166193,-5.635621,0.011237,0.647129,-0.056273,-16.419427,188.566728,1628.999176,879.774495,0
0.088542,28.439014,139.118236,-188.941328,-3.378782,-4.309634,-2.512944,6.517635,4.122556,2.387209,-6.434255,0.033114,0.632660,-0.056273,116.811587,188.569179,1628.094745,879.043668,0
0.089583,-47.281786,167.752571,-156.824460,-2.793298,-2.166661,-4.544419,6.146711,2.084182,4.462904,-6.210940,0.033114,0.642651,-0.052556,218.068958,188.495314,1627.469348,879.750900,0
0.090625,-104.425508,189.962385,-76.793550,-1.228255,0.684519,-6.213849,4.969595,-0.552647,6.107397,-4.969462,-0.003348,0.634796,-0.056273,298.914987,188.495284,1625.848327,880.415672,0
0.091667,-151.399298,175.410317,-1.550399,0.212935,2.831161,-6.587962,3.209599,-2.703458,6.623150,-3.330559,-0.028871,0.634520,-0.019106,318.369372,188.570816,1624.519988,882.293355,0
0.092708,-183.072989,127.608126,68.248803,1.530273,4.977802,-6.028804,0.666121,-4.662038,6.035529,-0.684847,-0.061686,0.627699,-0.033973,318.470697,188.570812,1622.300555,883.437621,0
0.093750,-194.406814,46.555812,123.721184,2.633685,6.247440,-4.745555,-1.650261,-6.007655,4.864516,1.722409,-0.127317,0.625081,-0.048839,233.875646,188.495351,1620.492726,884.819992,0
0.094792,-162.258526,-21.941087,172.157748,3.613244,6.632734,-2.706035,-3.819030,-6.257918,2.928327,3.898781,-0.163779,0.571270,-0.056273,134.892456,188.570618,1617.290406,885.732802,0
0.095833,-112.742254,-89.286975,183.750442,3.849689,5.869484,-0.030925,-5.457908,-5.626820,0.205826,5.617169,-0.211179,0.613368,-0.059989,15.644281,188.570776,1615.043912,886.476506,0
0.096875,-27.043620,-138.909643,188.829841,3.973542,4.372339,2.515459,-6.283025,-4.176020,-2.279936,6.427158,-0.251287,0.625150,-0.026539,-117.710574,188.570645,1612.293557,887.922028,0
0.097917,48.880578,-167.825857,156.846641,3.376799,2.200011,4.522797,-6.018079,-2.199305,-4.364087,6.268188,-0.222118,0.629560,-0.059989,-218.618937,188.495363,1611.541749,890.000644,0
0.098958,105.255906,-189.589361,76.645608,1.823015,-0.566771,6.236477,-4.822039,0.452032,-6.000124,5.056990,-0.207533,0.634658,-0.041406,-299.600066,188.570814,1609.087294,891.705608,0
0.100000,151.167503,-175.835954,1.499670,0.370565,-2.735430,6.662885,-3.168021,2.573827,-6.625792,3.478647,-0.174718,0.643202,-0.033973,-331.607483,188.570651,1608.855561,895.124207,0
0.101042,182.445696,-128.233428,-67.898527,-0.991810,-4.904088,6.123841,-0.537489,4.568677,-6.071992,0.795086,-0.134610,0.634314,-0.033973,-309.890175,188.570727,1607.526142,896.644238,0
0.102083,194.321917,-48.061990,-123.455970,-2.106481,-6.206751,4.828524,1.782678,5.975953,-4.871385,-1.600816,-0.068979,0.632798,-0.052556,-235.461391,188.495345,1607.813655,898.249457,0
0.103125,162.490028,20.141284,-172.390752,-3.018484,-6.570029,2.821185,4.019576,6.258859,-2.914059,-3.792328,-0.014286,0.638723,-0.048839,-136.253034,188.570660,1607.185252,898.695711,0
0.104167,114.137647,88.579458,-183.691806,-3.311226,-5.861821,0.085734,5.631960,5.653150,-0.221150,-5.556136,0.036760,0.641410,-0.033973,-16.543269,188.570754,1607.080371,899.729642,0
0.105208,29.060509,138.918571,-188.394503,-3.390041,-4.298625,-2.396285,6.438151,4.169707,2.281521,-6.377480,0.044053,0.640997,-0.063706,117.565894,188.569022,1605.509538,900.564749,0
0.106250,-47.869382,167.787806,-156.751550,-2.793298,-2.199687,-4.455919,6.192130,2.218381,4.424857,-6.203370,0.022176,0.601380,-0.059989,219.363666,188.495756,1604.599139,902.449355,0
0.107292,-105.160004,189.257684,-75.870023,-1.183218,0.611130,-6.141440,4.999875,-0.451091,6.027074,-5.007312,-0.003348,0.627906,-0.067423,298.847437,188.571120,1602.630994,904.179563,0
0.108333,-150.789102,175.927098,0.090076,0.291750,2.750432,-6.583939,3.292868,-2.616410,6.530145,-3.304064,-0.025225,0.628113,-0.052556,318.572022,188.571064,1600.554063,904.297189,0
0.109375,-182.112495,127.244031,69.014358,1.586570,4.908082,-5.988577,0.734250,-4.582244,6.027074,-0.741622,-0.072625,0.626184,-0.037689,318.470697,188.571203,1598.860471,905.150846,0
0.110417,-194.361614,46.015541,123.842701,2.667463,6.196067,-4.785783,-1.589702,-5.960504,4.906791,1.627784,-0.145548,0.618605,-0.045123,234.652470,188.495685,1597.522568,906.546444,0
