1-Time,2-VGERA,3-VGERB,4-VGERC,5-VN,6-IGERAN,7-IGERBN,8-IGERCN,9-IGERAT,10-IGERBT,11-IGERCT,12-IN,13-IFD,14-IFAULT,15-VFAULT,16-Speed (rad/s),17-Active Power,18-Reactive Power,19-FAULT 
0.000000,184.705681,-122.936429,-17.967308,-0.034769,-6.445267,1.992505,4.621381,6.654202,-2.098154,-4.454702,-0.021578,0.321783,-0.067423,-301.041132,188.495673,1503.574702,-940.727593,0
0.001042,194.005519,-60.993246,-82.152438,-1.284552,-5.615966,-0.803287,6.271614,5.638642,0.738489,-6.112530,0.003945,0.319785,-0.082290,-252.810469,188.495584,1502.956899,-939.608277,0
0.002083,168.524188,-10.348762,-153.543509,-2.635668,-3.902322,-2.995671,6.517635,4.220485,2.936782,-6.532665,0.011237,0.292845,-0.071140,-172.538615,188.495597,1503.805129,-939.572861,0
0.003125,105.222006,36.137988,-200.351748,-3.615227,-1.388733,-4.970828,5.927185,1.754125,4.834923,-5.889215,0.033114,0.347552,-0.052556,-62.207033,188.269398,1502.812008,-939.509333,0
0.004167,51.649060,104.623142,-191.796971,-3.367522,1.190906,-6.370735,4.564607,-0.763013,6.344136,-4.689372,-0.010640,0.345416,-0.089723,57.874257,188.495591,1503.208245,-939.176152,0
0.005208,3.805176,170.489158,-143.676351,-2.534334,3.605419,-6.640258,2.569945,-3.019007,6.665425,-2.584915,-0.047102,0.292983,-0.108307,172.596585,188.495613,1503.302500,-939.091601,0
0.006250,-49.790370,200.744304,-83.914430,-1.329589,5.568587,-5.678827,-0.185490,-4.981214,5.803018,0.151636,-0.127317,0.312482,-0.097156,250.087633,188.495607,1504.021854,-939.790312,0
0.007292,-130.200638,172.732455,-31.856668,-0.327511,6.735480,-4.154215,-2.645700,-6.054806,4.238848,2.706508,-0.185656,0.317098,-0.082290,306.942173,188.344867,1504.731208,-940.678991,0
0.008333,-184.654978,123.755763,17.965186,0.573233,6.518981,-1.925627,-4.398126,-6.007655,2.184289,4.489241,-0.233057,0.326400,-0.078573,303.789842,188.495660,1505.192344,-940.248540,0
0.009375,-194.113016,62.646476,82.648534,1.823015,5.686010,0.858097,-6.089993,-5.053754,-0.622762,6.203843,-0.233057,0.323575,-0.074856,254.534672,188.420273,1505.702545,-940.641581,0
0.010417,-168.789883,11.661387,153.711510,3.196650,3.987045,3.018299,-6.332229,-3.606581,-2.842192,6.631548,-0.243995,0.335908,-0.078573,174.184009,188.495604,1506.168427,-941.004283,0
0.011458,-106.267396,-35.788454,200.471143,4.108653,1.451439,5.077933,-5.749349,-1.143848,-4.799518,5.954034,-0.236703,0.335977,-0.071140,63.368320,188.344892,1506.249983,-941.501058,0
0.012500,-52.231153,-104.578978,191.989276,3.928504,-1.175904,6.425545,-4.348922,1.416814,-6.312958,4.686060,-0.185656,0.323092,-0.082290,-57.444762,188.495665,1505.721444,-942.146791,0
0.013543,-3.607575,-170.562445,144.172448,3.072797,-3.619773,6.735294,-2.342904,3.719959,-6.621565,2.615668,-0.156487,0.322886,-0.100873,-172.898881,188.420242,1506.202675,-941.223521,0
0.014583,50.191370,-201.052491,83.268269,1.924349,-5.513221,5.713523,0.408745,5.591491,-5.704200,-0.124668,-0.098148,0.308003,-0.082290,-250.209796,188.467820,1505.733855,-940.509394,0
0.015625,129.516846,-173.075877,30.809503,0.922271,-6.643418,4.168797,2.872740,6.621559,-4.152713,-2.622765,-0.054394,0.310966,-0.067423,-309.631234,188.548112,1504.976516,-940.727064,0
0.016667,184.547482,-122.936429,-18.198189,-0.012251,-6.445267,1.976414,4.564607,6.607051,-2.110837,-4.379002,-0.025225,0.320268,-0.059989,-301.198748,188.489942,1504.427636,-939.510684,0
0.017708,194.084619,-60.946266,-81.690674,-1.284552,-5.546246,-0.795242,6.211055,5.613253,0.717352,-6.086035,0.022176,0.325228,-0.052556,-253.294577,188.466304,1503.932376,-939.120231,0
0.018750,168.535488,-10.618897,-153.373385,-2.590631,-3.946356,-2.927285,6.521420,4.176961,2.873370,-6.528880,0.014883,0.338733,-0.063706,-173.867097,188.485503,1503.376640,-938.687591,0
0.019792,106.092100,35.856108,-199.671255,-3.513893,-1.469462,-4.930601,5.912045,1.786768,4.775738,-5.885430,-0.010640,0.340800,-0.097156,-63.783199,188.540563,1503.113129,-938.089542,0
0.020833,52.507854,104.458711,-191.809123,-3.412560,1.165220,-6.286258,4.568392,-0.657830,6.318771,-4.647737,-0.043455,0.305454,-0.089723,56.815975,188.487814,1502.771479,-937.215256,0
0.021875,4.268473,169.596537,-144.721395,-2.466778,3.565055,-6.632212,2.543450,-3.026261,6.618923,-2.558420,-0.050748,0.346036,-0.104590,171.864794,188.495942,1501.751928,-937.758251,0
0.022917,-50.016368,200.838264,-84.412649,-1.453441,5.506206,-5.650668,-0.181705,-4.894166,5.773425,0.136496,-0.123671,0.305247,-0.071140,250.402866,188.497133,1501.226518,-936.855635,0
0.023958,-129.217545,172.791180,-31.601483,-0.361289,6.706124,-4.126056,-2.653269,-5.920607,4.234620,2.649733,-0.163779,0.315169,-0.067423,305.793824,188.292241,1499.885181,-935.193480,0
0.025000,-185.095675,123.638313,18.244674,0.595751,6.474947,-1.917582,-4.329997,-5.996774,2.201199,4.485456,-0.207533,0.325848,-0.074856,304.015008,188.492025,1500.145663,-934.883917,0
0.026042,-193.728818,62.012245,81.907282,1.834274,5.605282,0.825915,-6.048359,-4.966706,-0.593169,6.124358,-0.243995,0.320543,-0.089723,253.532681,188.478728,1498.415297,-933.621971,0
0.027083,-168.654284,11.226821,153.723662,3.196650,3.928333,3.042435,-6.267885,-3.537668,-2.825282,6.589913,-0.258580,0.315858,-0.071140,174.015134,188.491261,1497.371584,-933.276733,0
0.028125,-106.312596,-35.976374,199.328886,4.131172,1.451439,4.977365,-5.685005,-1.201880,-4.702286,5.893474,-0.218472,0.340731,-0.082290,63.255736,188.345326,1496.432048,-931.412082,0
0.029167,-51.632257,-104.426293,192.390281,3.951023,-1.117192,6.373249,-4.329997,1.420441,-6.287593,4.693630,-0.196595,0.320130,-0.082290,-57.658670,188.496062,1496.410205,-931.118939,0
0.030208,-3.302477,-169.035593,144.682818,3.084057,-3.564731,6.662885,-2.369399,3.680062,-6.545470,2.600528,-0.160133,0.305523,-0.093440,-171.637949,188.496020,1495.014226,-930.424834,0
0.031250,50.089670,-201.404841,83.329028,1.935608,-5.491204,5.693409,0.351971,5.544340,-5.712655,-0.060323,-0.120025,0.325228,-0.052556,-250.344896,188.496188,1495.403973,-929.445892,0
0.032292,128.850150,-172.887957,30.943171,0.956049,-6.577368,4.172820,2.789471,6.563527,-4.199215,-2.584915,-0.068979,0.311586,-0.071140,-308.741826,188.345115,1495.181000,-928.454356,0
0.033333,184.976879,-123.476699,-17.979459,0.021527,-6.423250,2.000550,4.526758,6.614305,-2.136202,-4.344938,-0.025225,0.323988,-0.041406,-303.382863,188.496101,1495.575676,-928.212274,0
0.034375,193.745621,-62.038552,-81.690674,-1.228255,-5.542576,-0.759037,6.203485,5.624134,0.662394,-6.017905,0.011237,0.322955,-0.097156,-254.352860,188.420613,1495.400242,-927.375504,0
0.035417,169.156984,-11.441048,-153.737936,-2.646927,-3.968373,-2.911194,6.491141,4.180588,2.814185,-6.517525,0.029468,0.341627,-0.093440,-175.015446,188.481561,1495.520997,-927.123832,0
0.036458,107.425492,35.985303,-199.331008,-3.491375,-1.465792,-4.886351,5.938540,1.855681,4.708099,-5.855151,0.033114,0.329914,-0.045123,-63.873265,188.475607,1495.516281,-926.198166,0
0.037500,53.174550,104.611397,-192.283038,-3.412560,1.165220,-6.318440,4.572177,-0.704981,6.301861,-4.655307,-0.017932,0.318132,-0.093440,57.322599,188.493380,1495.435758,-926.917811,0
0.038542,4.313673,169.514322,-144.806457,-2.478038,3.572394,-6.628189,2.588870,-2.989991,6.610468,-2.588700,-0.061686,0.324402,-0.063706,172.011152,188.420649,1495.603251,-926.318970,0
0.039583,-49.914669,201.096654,-83.975188,-1.397145,5.553909,-5.626532,-0.177920,-4.923182,5.798790,0.144066,-0.116379,0.315996,-0.078573,250.560483,188.496020,1496.031823,-926.604890,0
0.040625,-129.138445,172.661985,-31.006051,-0.350030,6.676768,-4.126056,-2.619205,-5.960504,4.281123,2.657303,-0.152841,0.312482,-0.074856,305.647465,188.345274,1496.863422,-926.582029,0
0.041667,-184.654978,123.544353,18.378342,0.618270,6.489625,-1.945741,-4.375416,-5.989520,2.175834,4.481671,-0.218472,0.323299,-0.086006,303.711034,188.495615,1496.416155,-926.593486,0
0.042708,-193.785318,61.624660,81.992344,1.789237,5.623629,0.829938,-6.037004,-4.999349,-0.597397,6.158423,-0.254934,0.321232,-0.089723,253.330031,188.420254,1497.041111,-926.796506,0
0.043750,-168.891582,10.721786,153.419870,3.185390,3.983375,3.030367,-6.347369,-3.544922,-2.791462,6.589913,-0.254934,0.310139,-0.048839,173.711159,188.495602,1497.166187,-926.278115,0
0.044792,-105.917099,-36.117314,199.584071,4.131172,1.502811,5.041728,-5.734209,-1.205507,-4.723423,5.965389,-0.240349,0.335288,-0.078573,63.086861,188.344957,1498.179433,-926.490706,0
0.045833,-51.564458,-104.097433,192.341674,4.018579,-1.142878,6.381295,-4.401911,1.405933,-6.219954,4.735265,-0.182010,0.284853,-0.063706,-57.005687,188.482967,1498.074253,-925.678641,0
0.046875,-3.291177,-169.282239,144.913700,3.151613,-3.572070,6.699090,-2.403464,3.618403,-6.541243,2.657303,-0.185656,0.342178,-0.104590,-171.457815,188.476656,1498.699991,-924.691470,0
0.047917,50.157470,-201.228666,83.997370,1.924349,-5.494873,5.725591,0.336832,5.591491,-5.763385,-0.026258,-0.083563,0.275276,-0.093440,-250.288604,188.490069,1499.661958,-925.123160,0
0.048958,128.906650,-173.134602,31.891001,0.967308,-6.643418,4.229138,2.797041,6.574408,-4.178078,-2.524355,-0.061686,0.316340,-0.063706,-309.237192,188.420687,1499.610638,-925.031471,0
0.050000,184.796080,-124.287105,-17.614909,-0.000992,-6.459945,2.072959,4.530543,6.610678,-2.174249,-4.344938,-0.010640,0.330671,-0.074856,-303.912005,188.495987,1499.823313,-925.142178,0
0.051042,193.937720,-63.083857,-81.605612,-1.262033,-5.568263,-0.702719,6.207270,5.671285,0.598982,-6.010335,0.000299,0.322197,-0.082290,-254.555509,188.420698,1500.634285,-924.898201,0
0.052083,169.382982,-11.805143,-153.689329,-2.624408,-4.030754,-2.874989,6.544130,4.224112,2.848005,-6.487245,0.018530,0.334668,-0.048839,-174.722730,188.495756,1500.741340,-925.087287,0
0.053125,107.651490,35.820873,-199.148733,-3.558930,-1.484139,-4.910487,5.946109,1.848427,4.758829,-5.840011,-0.010640,0.347207,-0.086006,-63.704390,188.420426,1500.596791,-925.754832,0
0.054167,52.745153,104.364751,-192.428858,-3.390041,1.113847,-6.266144,4.591102,-0.690473,6.297634,-4.693157,-0.017932,0.329982,-0.093440,57.547766,188.495750,1501.026345,-925.389820,0
0.055208,3.872976,168.868347,-144.964429,-2.500556,3.550377,-6.632212,2.592654,-2.953721,6.589330,-2.558420,-0.025225,0.326675,-0.086006,171.819761,188.420452,1500.369177,-924.952675,0
0.056250,-49.971168,201.366790,-83.671397,-1.363367,5.495198,-5.662736,-0.124931,-4.868777,5.790335,0.125141,-0.101794,0.320061,-0.071140,250.898233,188.495703,1500.264533,-924.113146,0
0.057292,-128.324851,172.673730,-30.750866,-0.327511,6.658421,-4.158238,-2.581356,-5.931488,4.259985,2.649733,-0.174718,0.312137,-0.063706,304.971966,188.553578,1499.545538,-923.859201,0
0.058333,-184.937476,123.403413,18.281129,0.607011,6.504303,-1.953786,-4.326212,-5.978639,2.175834,4.474101,-0.189302,0.322197,-0.074856,303.992492,188.484152,1499.479909,-923.720479,0
0.059375,-193.570619,61.272309,81.481973,1.823015,5.597943,0.789711,-5.991585,-5.006603,-0.567804,6.090293,-0.262226,0.325780,-0.045123,252.958506,188.420112,1499.029140,-922.659532,0
0.060417,-168.778583,10.616081,153.687207,3.252946,4.038417,2.974049,-6.313304,-3.613835,-2.753415,6.586128,-0.243995,0.320819,-0.059989,174.296592,188.495600,1499.840601,-921.818665,0
0.061458,-106.515995,-35.941139,198.915729,4.131172,1.517489,4.973342,-5.722854,-1.201880,-4.676921,5.916184,-0.251287,0.294843,-0.063706,64.460377,188.344782,1498.846496,-921.414012,0
0.062500,-51.767856,-104.297098,192.730528,4.041097,-1.062150,6.337045,-4.382986,1.257226,-6.224181,4.780685,-0.211179,0.348999,-0.119457,-56.206346,188.495629,1500.178300,-919.946467,0
0.063542,-3.652774,-168.554048,145.618497,3.084057,-3.502350,6.678976,-2.388324,3.603895,-6.562380,2.653518,-0.207533,0.323850,-0.074856,-170.478341,188.420198,1500.091317,-920.280054,0
0.064583,50.213970,-201.557526,84.592801,1.946867,-5.454509,5.721568,0.333047,5.540713,-5.763385,-0.045183,-0.109087,0.313378,-0.067423,-250.705162,188.495522,1499.875334,-920.218835,0
0.065625,128.703251,-173.146347,32.449978,0.911012,-6.595715,4.209025,2.747837,6.563527,-4.203443,-2.520570,-0.090856,0.318063,-0.071140,-308.640501,188.420236,1499.903079,-920.234173,0
0.066667,185.157678,-124.557240,-17.602758,-0.012251,-6.470953,2.081005,4.519188,6.632440,-2.203842,-4.386572,-0.006994,0.328329,-0.067423,-304.339821,188.495696,1500.645931,-920.705331,0
0.067708,193.564822,-62.743252,-81.532702,-1.295811,-5.597619,-0.714788,6.207270,5.693047,0.628574,-6.033045,0.022176,0.293259,-0.097156,-253.733652,188.473378,1500.740443,-921.011758,0
0.068750,169.473382,-11.358833,-153.579964,-2.680705,-3.968373,-2.923262,6.513850,4.256755,2.814185,-6.528880,0.025822,0.336872,-0.108307,-174.407497,188.483671,1501.557295,-920.621619,0
0.069792,107.301192,35.903088,-198.966458,-3.558930,-1.469462,-4.938646,5.946109,1.873816,4.788421,-5.870290,0.018530,0.341489,-0.089723,-63.411674,188.420401,1502.124361,-920.614264,0
0.070833,52.134957,104.341261,-192.720498,-3.356263,1.128525,-6.326485,4.587317,-0.657830,6.373728,-4.681802,-0.014286,0.326537,-0.063706,57.975582,188.495671,1502.801633,-920.782465,0
0.071875,3.579178,168.997542,-144.733547,-2.466778,3.535699,-6.660371,2.600224,-2.986364,6.614695,-2.592485,-0.065333,0.316616,-0.026539,172.202544,188.420296,1503.468964,-920.883118,0
0.072917,-49.892069,201.554710,-83.452666,-1.352108,5.502537,-5.678827,-0.121146,-4.912301,5.832610,0.121356,-0.116379,0.317718,-0.100873,250.932008,188.495776,1504.208441,-921.296394,0
0.073958,-128.652548,172.873395,-30.592895,-0.361289,6.673099,-4.158238,-2.585141,-5.942369,4.302260,2.634593,-0.185656,0.313033,-0.078573,305.669982,188.420160,1504.989144,-921.031750,0
0.075000,-184.711478,123.485628,18.524162,0.640789,6.540998,-2.006081,-4.299717,-6.004028,2.285749,4.481671,-0.222118,0.324539,-0.100873,304.217658,188.495754,1506.195945,-920.361040,0
0.076042,-193.694919,61.695130,81.761462,1.901830,5.660324,0.801779,-5.999154,-5.042873,-0.563577,6.143283,-0.251287,0.324608,-0.089723,254.264472,188.420260,1507.097128,-920.973081,0
0.077083,-169.061081,11.050646,153.589993,3.219168,4.082451,2.961981,-6.339799,-3.646478,-2.757642,6.620193,-0.240349,0.328329,-0.086006,175.444941,188.495658,1507.704932,-921.342769,0
0.078125,-107.126191,-35.811944,199.219521,4.164950,1.568862,4.981387,-5.768273,-1.216388,-4.702286,5.999454,-0.243995,0.301182,-0.078573,65.282235,188.407123,1508.977835,-922.011527,0
0.079167,-52.988248,-104.332333,192.609011,3.917245,-1.084167,6.389340,-4.451115,1.340647,-6.283366,4.814750,-0.229410,0.323092,-0.078573,-55.936146,188.477955,1509.358501,-923.769592,0
0.080208,-4.364670,-169.247004,145.812923,3.129094,-3.528036,6.751385,-2.467807,3.632911,-6.630020,2.680013,-0.178364,0.327020,-0.089723,-170.984966,188.416230,1510.464737,-924.608775,0
0.081250,49.965371,-201.310881,85.018110,1.980645,-5.494873,5.777886,0.298982,5.558848,-5.797205,-0.007333,-0.120025,0.318752,-0.045123,-250.221055,188.496076,1511.002022,-924.654987,0
0.082292,129.064849,-173.428227,31.976063,0.933530,-6.628740,4.289479,2.774332,6.610678,-4.228808,-2.535710,-0.050748,0.319234,-0.089723,-309.259709,188.496067,1511.913016,-924.978254,0
0.083333,184.897780,-124.345830,-17.821488,-0.079807,-6.452606,2.081005,4.526758,6.646948,-2.186932,-4.390357,-0.032517,0.329845,-0.063706,-303.213989,188.420690,1511.862653,-925.044060,0
0.084375,194.028119,-62.144257,-81.326124,-1.284552,-5.648991,-0.702719,6.184561,5.700301,0.603209,-6.063325,0.044053,0.325986,-0.078573,-253.654844,188.420705,1512.358551,-924.963689,0
0.085417,169.247383,-10.771583,-153.397689,-2.658186,-4.060109,-2.883035,6.566839,4.264009,2.814185,-6.562945,0.018530,0.340869,-0.082290,-173.777030,188.496078,1512.733458,-924.863201,0
0.086458,106.826596,36.044028,-199.100126,-3.581449,-1.528173,-4.914510,5.953679,1.902832,4.775738,-5.908140,0.000299,0.338113,-0.082290,-63.085183,188.496121,1513.389770,-924.377660,0
0.087500,51.784659,104.176831,-192.635437,-3.390041,1.113847,-6.350622,4.666800,-0.596171,6.339908,-4.734792,0.033114,0.283682,-0.082290,57.896774,188.496083,1513.925951,-923.185542,0
0.088542,3.511378,168.633447,-144.940125,-2.511815,3.550377,-6.640258,2.687278,-2.979110,6.627377,-2.641690,-0.039809,0.354649,-0.097156,171.549561,188.417554,1514.423459,-922.904440,0
0.089583,-49.812969,201.484240,-83.647093,-1.352108,5.509876,-5.727100,-0.083297,-4.897793,5.870657,0.045657,-0.120025,0.311586,-0.052556,250.729358,188.490193,1515.224051,-922.153277,0
0.090625,-128.268351,172.932120,-31.188326,-0.282474,6.691446,-4.230647,-2.539721,-5.956877,4.369900,2.604313,-0.185656,0.320061,-0.063706,305.591174,188.278005,1515.909510,-921.968577,0
0.091667,-185.186075,124.084623,17.953034,0.685826,6.588701,-2.046309,-4.307287,-6.014909,2.277294,4.447606,-0.207533,0.331085,-0.082290,305.422299,188.503074,1515.986555,-922.118617,0
0.092708,-193.717518,62.904866,81.494125,1.823015,5.697019,0.749483,-6.014294,-5.108159,-0.533984,6.135713,-0.243995,0.333290,-0.074856,255.142621,188.419967,1516.706374,-922.275239,0
0.093750,-169.569578,12.107697,154.234032,3.207909,4.115476,2.921754,-6.336014,-3.711764,-2.728050,6.661828,-0.240349,0.332118,-0.067423,176.030374,188.495334,1517.999844,-922.468044,0
0.094792,-108.290083,-35.764964,199.049397,4.052357,1.565192,4.953228,-5.790983,-1.292555,-4.685376,5.965389,-0.265872,0.341144,-0.071140,65.158393,188.419914,1518.192047,-922.023499,0
0.095833,-53.485445,-104.414548,193.058623,3.973542,-1.043803,6.381295,-4.432190,1.297123,-6.287593,4.822320,-0.233057,0.332118,-0.078573,-56.307671,188.495437,1518.623018,-921.899044,0
0.096875,-4.149971,-168.659753,145.788620,3.106575,-3.502350,6.747363,-2.475377,3.600268,-6.596200,2.706508,-0.174718,0.324264,-0.100873,-170.793574,188.419822,1518.332045,-921.094391,0
0.097917,49.999271,-201.804172,84.410526,1.901830,-5.491204,5.826159,0.306552,5.547967,-5.814115,0.007807,-0.127317,0.308348,-0.078573,-250.772712,188.495249,1518.760236,-920.682370,0
0.098958,128.432053,-173.216817,31.599361,0.865975,-6.643418,4.301547,2.785686,6.625186,-4.237262,-2.539495,-0.050748,0.318683,-0.082290,-308.415334,188.420112,1518.713267,-920.663822,0
0.100000,185.168978,-123.981735,-17.821488,-0.023510,-6.551681,2.097095,4.500263,6.690472,-2.246116,-4.401712,-0.025225,0.327984,-0.086006,-303.168955,188.484736,1519.759543,-920.412567,0
0.101042,193.790821,-61.862376,-81.119545,-1.284552,-5.634313,-0.666515,6.241335,5.718436,0.590527,-6.070895,0.044053,0.325986,-0.093440,-253.249544,188.501838,1519.923300,-920.223129,0
0.102083,169.326483,-10.607152,-153.555660,-2.624408,-4.052770,-2.879012,6.570624,4.278517,2.793047,-6.551590,0.025822,0.333359,-0.089723,-173.844580,188.501833,1520.097151,-919.810908,0
0.103125,106.781396,36.091008,-199.185188,-3.536412,-1.568537,-4.902442,6.010453,1.888324,4.771511,-5.923280,0.003945,0.334461,-0.059989,-63.411674,188.420766,1520.180149,-919.903472,0
0.104167,51.784659,104.176831,-192.878470,-3.401300,1.091830,-6.330508,4.697080,-0.592544,6.377956,-4.780212,-0.047102,0.300700,-0.089723,57.277566,188.420754,1521.058726,-920.162567,0
0.105208,3.533978,169.009287,-145.171007,-2.478038,3.513683,-6.656348,2.668353,-2.957348,6.661197,-2.656830,-0.036163,0.327502,-0.078573,171.527044,188.420755,1521.725338,-920.094393,0
0.106250,-49.688670,201.507730,-84.522014,-1.385885,5.484189,-5.755259,-0.034092,-4.894166,5.896022,0.019162,-0.101794,0.316891,-0.052556,250.763133,188.496179,1522.137784,-920.219549,0
0.107292,-128.686448,173.167020,-32.196915,-0.338771,6.717132,-4.234670,-2.535936,-5.953250,4.365672,2.600528,-0.174718,0.323368,-0.059989,306.131573,188.496190,1522.145584,-920.578153,0
0.108333,-184.903577,124.754089,17.819365,0.573233,6.599709,-2.050331,-4.329997,-6.033044,2.302659,4.455176,-0.182010,0.332394,-0.074856,305.230907,188.345366,1522.507906,-920.834433,0
0.109375,-193.830518,63.257216,81.761462,1.811756,5.741053,0.741438,-6.025649,-5.104532,-0.529757,6.139498,-0.251287,0.330327,-0.067423,254.816130,188.420772,1522.643469,-920.953707,0
