1-Time,2-VGERA,3-VGERB,4-VGERC,5-VN,6-IGERAN,7-IGERBN,8-IGERCN,9-IGERAT,10-IGERBT,11-IGERCT,12-IN,13-IFD,14-IFAULT,15-VFAULT,16-Speed (rad/s),17-Active Power,18-Reactive Power,19-FAULT 
0.000000,-162.297388,169.969131,9.675758,3.052458,5.227025,-4.878883,-0.733018,-4.991539,4.957527,0.642516,-0.128440,0.442141,-0.031958,10.170028,188.496150,1645.350937,-17.160603,0
0.001042,-185.141184,110.434436,68.754356,4.183458,5.752466,-3.132706,-2.863630,-5.590686,3.337603,2.663373,-0.201500,0.449066,-0.073035,0.013648,188.571518,1645.367917,-17.230467,0
0.002083,-193.183017,32.198501,130.676705,5.393628,5.951282,-1.291283,-4.632300,-5.741392,1.411321,4.392487,-0.238030,0.462980,-0.061832,-10.380241,188.496208,1644.366779,-16.775543,0
0.003125,-156.138410,-34.451846,172.508144,6.185328,4.960754,0.800160,-5.483052,-4.829806,-0.552731,5.264159,-0.248989,0.458211,-0.035692,-15.707251,188.571609,1644.194791,-16.563923,0
0.004167,-83.489694,-85.082915,205.746781,6.841308,3.125260,3.320211,-5.915891,-3.054419,-3.049763,5.758700,-0.216112,0.468533,-0.039427,-18.840121,188.496076,1644.624284,-16.457874,0
0.005208,-20.913119,-146.502231,181.716478,6.366288,1.019945,4.669529,-5.083795,-1.047459,-4.506016,5.022225,-0.230724,0.480487,-0.069301,-15.956071,188.571558,1644.692646,-16.152411,0
0.006250,42.366691,-194.644633,132.129356,5.416248,-1.333889,5.733110,-3.673338,1.426321,-5.626532,3.695149,-0.194194,0.456251,-0.054364,-12.065431,188.496127,1643.851808,-16.311433,0
0.007292,97.423189,-197.894396,56.382197,4.002498,-3.577665,5.661675,-1.456904,3.701610,-5.626532,1.567556,-0.150358,0.441880,-0.043161,-10.255831,188.571458,1643.918741,-16.423103,0
0.008333,162.166181,-169.806295,-9.873485,2.735778,-5.164639,5.054482,0.632663,5.289534,-5.043192,-0.510226,-0.117481,0.442599,-0.084238,-5.777071,188.496197,1644.296689,-16.584238,0
0.009375,184.805812,-109.981658,-68.656629,1.627398,-5.690081,3.268619,2.752081,5.837221,-3.347728,-2.520410,-0.073645,0.449719,-0.065566,3.870358,188.646971,1644.084150,-17.312475,0
0.010417,193.017783,-33.062542,-130.825190,0.439848,-5.853393,1.355762,4.531945,6.024684,-1.408856,-4.320680,-0.062686,0.461086,-0.009553,15.757168,188.496042,1645.336703,-17.613646,0
0.011458,155.837066,34.276417,-173.124432,-0.385782,-4.816712,-0.680122,5.412548,5.054286,0.571983,-5.153216,-0.004238,0.477025,-0.050629,20.473438,188.571489,1645.562639,-19.058959,0
0.012500,82.485115,85.668582,-206.030682,-0.973902,-3.013171,-3.172392,5.796879,3.194356,3.123572,-5.626410,-0.007891,0.471015,-0.065566,22.712818,188.496565,1646.493819,-20.391347,0
0.013542,19.318730,147.039575,-181.347917,-0.532812,-0.872353,-4.585208,4.983441,1.132261,4.495891,-4.833010,-0.026156,0.454357,-0.039427,20.756188,188.646522,1646.086314,-21.373660,0
0.014584,-43.167105,194.795388,-131.625379,0.360678,1.509884,-5.593228,3.602834,-1.242274,5.649981,-3.523723,-0.033462,0.447041,-0.031958,15.044638,188.495765,1646.641295,-22.238978,0
0.015625,-98.019437,197.900181,-55.952084,1.830978,3.721707,-5.577354,1.352818,-3.480806,5.633194,-1.364110,-0.080951,0.444689,-0.069301,15.610138,188.571103,1647.765234,-22.699273,0
0.016667,-162.649005,170.246991,9.995833,3.075078,5.290930,-4.898726,-0.766600,-5.101812,4.999494,0.646074,-0.135746,0.449915,-0.035692,8.891998,188.495575,1649.513526,-23.012360,0
0.017708,-185.413404,110.458597,68.828220,4.194768,5.809271,-3.081115,-2.919601,-5.634795,3.316620,2.709625,-0.139399,0.452920,-0.046895,0.364258,188.646455,1650.217030,-23.766857,0
0.018750,-193.591347,33.334106,131.095266,5.371008,5.937081,-1.180163,-4.684539,-5.767122,1.360961,4.495664,-0.230724,0.460171,-0.080503,-10.742161,188.495707,1651.625086,-25.473901,0
0.019792,-155.060872,-34.633060,173.320644,6.117468,4.882648,0.847783,-5.516634,-4.840833,-0.678632,5.324642,-0.252642,0.472125,-0.065566,-16.544191,188.571134,1652.589176,-26.777283,0
0.020833,-81.391332,-85.529908,206.239205,6.773448,3.096858,3.351960,-5.938279,-2.977228,-3.163074,5.765815,-0.241683,0.442664,-0.061832,-18.342481,188.495709,1652.756437,-27.927628,0
0.021875,-18.701332,-146.876739,181.224054,6.400218,0.977342,4.752870,-5.087527,-0.940863,-4.577359,5.018668,-0.238030,0.459256,-0.043161,-15.514981,188.646632,1653.051856,-28.703598,0
0.022917,43.115296,-194.596310,131.920076,5.495418,-1.365842,5.737078,-3.703189,1.481457,-5.647516,3.695149,-0.179582,0.452920,-0.061832,-11.194561,188.495640,1653.457292,-29.061969,0
0.023958,98.149109,-197.181623,56.936174,4.047738,-3.542162,5.653738,-1.438247,3.694258,-5.618139,1.553325,-0.175929,0.444950,-0.050629,-10.719541,188.571084,1653.205164,-29.095501,0
0.025000,162.755991,-170.144560,-9.504167,2.735778,-5.153989,5.034639,0.669977,5.267479,-5.018012,-0.492437,-0.084604,0.449850,-0.050629,-3.922231,188.495718,1652.998690,-28.982719,0
0.026042,184.749100,-109.740040,-68.902841,1.627398,-5.658128,3.189248,2.804321,5.837221,-3.293171,-2.520410,-0.113828,0.451809,-0.043161,4.865638,188.646618,1652.579003,-29.371090,0
0.027083,193.017783,-31.854452,-130.960606,0.405918,-5.793039,1.375605,4.520751,5.929114,-1.413053,-4.310007,-0.007891,0.448282,-0.069301,16.910788,188.495779,1651.345874,-29.058297,0
0.028125,154.430596,36.124795,-173.062879,-0.351852,-4.791860,-0.684090,5.378966,4.991798,0.597163,-5.124754,-0.033462,0.486366,-0.046895,23.108668,188.571151,1650.138711,-28.713389,0
0.029167,80.738370,86.236385,-206.042993,-0.985212,-2.991869,-3.148581,5.822999,3.194356,3.098392,-5.569484,0.014027,0.455337,-0.058098,23.753338,188.495756,1649.063652,-27.739391,0
0.030208,19.341415,147.172465,-181.126326,-0.555432,-0.907856,-4.573302,4.964784,1.154315,4.525267,-4.811663,-0.033462,0.460563,-0.043161,22.316968,188.571102,1649.123681,-27.738963,0
0.031250,-42.747433,194.771227,-132.167046,0.383298,1.477931,-5.553542,3.572983,-1.212868,5.603817,-3.520165,-0.048074,0.455860,-0.043161,15.417868,188.495703,1648.543061,-27.608765,0
0.032292,-98.768043,197.284055,-56.518371,1.819668,3.661352,-5.474171,1.330429,-3.469779,5.566047,-1.403246,-0.117481,0.448282,-0.061832,15.745858,188.571035,1647.837959,-27.124035,0
0.033333,-163.080020,169.908726,10.562121,3.052458,5.234126,-4.835229,-0.751675,-5.020945,4.961723,0.702999,-0.139399,0.443905,-0.054364,9.898588,188.495655,1646.705430,-27.218496,0
0.034375,-185.039101,109.226345,69.542235,4.172148,5.748916,-3.045398,-2.859899,-5.587011,3.262063,2.652699,-0.223418,0.448347,-0.061832,-0.020282,188.646406,1645.208789,-26.494382,0
0.035417,-193.273757,31.183705,131.218372,5.382318,5.898028,-1.200006,-4.591255,-5.693607,1.365158,4.452970,-0.212459,0.459583,-0.076769,-10.583821,188.495499,1643.749685,-25.503497,0
0.036458,-154.743282,-35.756584,172.926705,6.196638,4.871997,0.816035,-5.449470,-4.826130,-0.611485,5.249928,-0.256295,0.455468,-0.035692,-15.922141,188.571143,1642.479838,-24.057372,0
0.037500,-81.731607,-85.916497,205.956061,6.829998,3.093308,3.272588,-5.886040,-2.984580,-3.091730,5.737353,-0.248989,0.456186,-0.043161,-18.783571,188.495743,1641.771510,-23.239238,0
0.038542,-20.209884,-147.178761,181.027084,6.377598,1.023496,4.661592,-5.053944,-0.973944,-4.476639,5.007994,-0.238030,0.465789,-0.046895,-15.944761,188.646581,1640.843714,-22.655725,0
0.039583,42.809049,-194.765442,131.846213,5.427558,-1.319688,5.705330,-3.654681,1.385887,-5.597156,3.691591,-0.179582,0.456513,-0.065566,-12.144601,188.495689,1639.964618,-21.540729,0
0.040625,98.409986,-197.302432,55.840530,3.968568,-3.517310,5.618021,-1.434516,3.624419,-5.576172,1.556883,-0.186888,0.443905,-0.035692,-10.278451,188.571096,1638.981820,-20.489158,0
0.041667,162.517799,-169.540515,-10.981439,2.724468,-5.114936,5.002890,0.640126,5.230722,-4.976045,-0.506668,-0.121134,0.444689,-0.050629,-5.675281,188.495723,1637.979072,-20.130407,0
0.042708,184.533592,-108.519869,-69.419887,1.616088,-5.608424,3.236871,2.740887,5.767381,-3.318351,-2.516852,-0.048074,0.448086,-0.031958,3.881668,188.721900,1637.078211,-19.235890,0
0.043750,192.756905,-31.310811,-131.477652,0.417228,-5.750435,1.419259,4.479706,5.903384,-1.442430,-4.245965,-0.059033,0.442860,-0.058098,15.870268,188.495687,1636.309119,-18.113909,0
0.044792,154.838926,35.267051,-173.407576,-0.385782,-4.770559,-0.676153,5.311801,5.021204,0.580376,-5.067828,-0.051727,0.472387,-0.050629,20.496058,188.571169,1636.109220,-17.819475,0
0.045833,82.054100,86.429679,-205.759849,-1.007832,-3.009621,-3.108895,5.755834,3.190681,3.043835,-5.573042,-0.007891,0.468663,-0.061832,22.599718,188.495772,1635.981811,-17.641826,0
0.046875,19.227990,147.716105,-180.806251,-0.555432,-0.914956,-4.513774,4.878962,1.169018,4.466514,-4.797432,-0.015197,0.461673,-0.054364,20.767498,188.721924,1635.326960,-16.917121,0
0.047917,-43.722888,194.650418,-131.280682,0.394608,1.470831,-5.521794,3.509549,-1.176111,5.545064,-3.498818,-0.051727,0.455076,-0.050629,15.010708,188.495703,1634.201339,-15.942455,0
0.048958,-98.870125,197.453187,-54.794887,1.830978,3.632950,-5.438454,1.326698,-3.440373,5.536670,-1.339205,-0.091910,0.443644,-0.061832,15.474418,188.495705,1633.281589,-15.844222,0
0.050000,-162.614978,169.751674,11.362311,3.086388,5.258977,-4.866977,-0.725555,-4.984188,4.940740,0.674537,-0.139399,0.444166,-0.050629,8.824138,188.495720,1632.522404,-15.203576,0
0.051042,-185.027759,109.298831,69.739205,4.183458,5.752466,-3.096989,-2.841242,-5.550253,3.257866,2.649142,-0.190541,0.451156,-0.043161,0.341638,188.721927,1632.094024,-15.105372,0
0.052083,-193.341812,32.850870,131.735417,5.382318,5.866075,-1.203975,-4.587523,-5.700959,1.407125,4.399602,-0.219765,0.457819,-0.058098,-10.719541,188.495743,1632.140107,-14.618448,0
0.053125,-154.902077,-35.080053,173.517614,6.207948,4.857796,0.820003,-5.438276,-4.818779,-0.598895,5.246370,-0.234377,0.471995,-0.050629,-16.476331,188.495718,1632.218202,-14.718016,0
0.054167,-81.232537,-86.266843,205.869887,6.829998,3.082657,3.260682,-5.856189,-2.958849,-3.091730,5.662638,-0.248989,0.464940,-0.046895,-18.376411,188.494040,1631.104096,-14.735046,0
0.055208,-18.258974,-147.299570,180.657766,6.388908,0.963141,4.637781,-5.035288,-0.889402,-4.501819,4.933279,-0.227071,0.417579,-0.039427,-15.458431,188.721451,1630.193109,-15.457395,0
0.056250,44.147464,-194.487581,131.144508,5.416248,-1.330339,5.637864,-3.643487,1.411618,-5.550992,3.652454,-0.197847,0.448021,-0.054364,-11.013601,188.495244,1629.267907,-15.314173,0
0.057292,98.875029,-196.988329,55.631250,3.991188,-3.517310,5.582304,-1.464367,3.591337,-5.513222,1.535536,-0.175929,0.445734,-0.024490,-10.504651,188.495224,1628.165527,-15.139027,0
0.058333,162.755991,-169.625081,-10.378220,2.724468,-5.079433,4.975110,0.591618,5.182937,-4.929881,-0.463974,-0.095563,0.446910,-0.054364,-3.786511,188.495227,1627.275928,-14.810668,0
0.059375,184.397482,-109.643393,-69.678409,1.627398,-5.604874,3.193216,2.711036,5.756354,-3.284778,-2.435021,-0.102869,0.450176,-0.054364,4.967428,188.722701,1626.741991,-14.472667,0
0.060417,192.586768,-31.697400,-131.539205,0.428538,-5.718483,1.379573,4.434929,5.870302,-1.438233,-4.217503,-0.044421,0.460628,-0.024490,16.831618,188.495743,1626.096889,-14.489024,0
0.061458,154.544021,36.559708,-172.915152,-0.317922,-4.742156,-0.612656,5.248368,4.962392,0.571983,-5.014460,-0.022503,0.462196,-0.061832,23.086048,188.495702,1624.747233,-14.107665,0
0.062500,80.352725,87.106210,-205.575190,-0.962592,-2.959917,-3.096989,5.670013,3.146572,2.972491,-5.519675,-0.026156,0.452463,-0.061832,23.798578,188.495817,1623.121197,-13.093258,0
0.063542,17.810178,147.450326,-180.744698,-0.521502,-0.911406,-4.374873,4.871500,1.106530,4.349006,-4.751180,-0.037115,0.465397,-0.050629,22.350898,188.721822,1621.187981,-12.743829,0
0.064583,-43.972423,194.553770,-131.465341,0.405918,1.403375,-5.462265,3.494624,-1.179786,5.477917,-3.484586,-0.051727,0.451417,-0.039427,15.395248,188.495665,1620.323051,-12.690519,0
0.065625,-99.527990,196.885385,-56.087500,1.774428,3.551294,-5.398768,1.341624,-3.341127,5.469523,-1.421035,-0.073645,0.445016,-0.058098,15.564898,188.571094,1619.247004,-11.178879,0
0.066667,-163.454323,169.437571,10.845265,3.063768,5.124067,-4.795543,-0.677048,-4.895970,4.936543,0.621169,-0.164970,0.444297,-0.043161,9.740248,188.495696,1618.446647,-10.001521,0
0.067708,-184.596744,109.033051,70.465531,4.183458,5.656609,-3.025555,-2.830048,-5.465711,3.228489,2.595774,-0.205153,0.445081,-0.046895,-0.065522,188.721860,1616.905166,-9.299837,0
0.068750,-192.695289,30.990411,131.673864,5.416248,5.787969,-1.231755,-4.505433,-5.623768,1.365158,4.335561,-0.245336,0.462131,-0.013287,-10.549891,188.495653,1614.947390,-8.818335,0
0.069792,-154.607172,-36.892189,172.680493,6.196638,4.808092,0.736663,-5.311409,-4.697479,-0.565321,5.153866,-0.230724,0.437764,-0.013287,-15.990001,188.570950,1612.443448,-8.269326,0
0.070833,-80.722124,-86.810484,205.402084,6.762138,3.072006,3.173373,-5.747979,-2.944146,-2.974223,5.602154,-0.259948,0.451613,-0.043161,-18.862741,188.495689,1610.725609,-6.897039,0
0.071875,-18.984894,-147.287490,180.743940,6.332358,1.051898,4.526660,-4.956929,-1.021729,-4.384311,4.887027,-0.223418,0.456251,-0.031958,-15.990001,188.721880,1609.349684,-5.045662,0
0.072917,43.614366,-194.511743,131.624622,5.416248,-1.248683,5.542618,-3.613636,1.341778,-5.509025,3.623992,-0.205153,0.455729,-0.046895,-12.269011,188.495691,1608.487093,-4.703602,0
0.073958,99.408126,-196.831277,55.742046,3.968568,-3.417903,5.494995,-1.479292,3.543553,-5.462861,1.539093,-0.161317,0.445212,-0.031958,-10.154041,188.495647,1607.636941,-4.186319,0
0.075000,162.937471,-168.996874,-11.473864,2.735778,-4.990676,4.883833,0.561767,5.105746,-4.854341,-0.453301,-0.132093,0.440769,-0.050629,-5.550871,188.495792,1605.986163,-3.562684,0
0.076042,184.068550,-108.133280,-70.601705,1.616088,-5.498366,3.177342,2.666260,5.649757,-3.305761,-2.406559,-0.099216,0.443578,-0.054364,3.915598,188.721661,1604.472047,-2.197502,0
0.077083,192.099040,-30.006073,-131.748485,0.451158,-5.661678,1.391479,4.352839,5.793112,-1.438233,-4.124999,-0.055380,0.452397,-0.017021,15.802408,188.571228,1602.526092,-1.007961,0
0.078125,154.453281,36.765083,-173.025947,-0.408402,-4.720855,-0.600750,5.151352,4.940338,0.525819,-4.950419,-0.062686,0.450960,-0.058098,20.450818,188.495779,1601.531567,-0.241304,0
0.079167,81.498318,87.371990,-205.021213,-1.007832,-2.970567,-3.017617,5.666281,3.172302,2.930524,-5.427171,-0.007891,0.455794,-0.028224,22.622338,188.495734,1600.390399,0.160035,0
0.080208,19.103223,147.909400,-180.436932,-0.532812,-0.914956,-4.347093,4.800603,1.187397,4.340613,-4.690696,-0.018850,0.465005,-0.043161,20.959768,188.646391,1599.893148,0.540327,0
0.081250,-44.199273,194.263829,-131.169887,0.349368,1.399825,-5.363050,3.468504,-1.132002,5.427556,-3.459681,-0.022503,0.454618,-0.024490,15.123808,188.571056,1598.814790,1.132449,0
0.082292,-99.743498,197.054517,-54.474811,1.830978,3.501590,-5.327333,1.300578,-3.319073,5.402376,-1.342762,-0.132093,0.438287,-0.050629,15.169048,188.495694,1597.473450,0.909287,0
0.083333,-162.841828,168.978496,12.494886,3.131628,5.056612,-4.728077,-0.695704,-4.837158,4.865200,0.596264,-0.161317,0.439071,-0.039427,8.688418,188.571042,1595.873044,1.619219,0
0.084375,-184.506004,108.513572,70.884091,4.251318,5.617556,-3.029523,-2.706913,-5.403223,3.224293,2.592216,-0.183235,0.446714,-0.039427,0.307708,188.646406,1595.028580,1.981336,0
0.085417,-192.479782,31.606537,132.203220,5.404938,5.756016,-1.243660,-4.471851,-5.587011,1.415518,4.299983,-0.212459,0.442337,-0.020755,-10.595131,188.495694,1594.556141,2.679097,0
0.086458,-154.868050,-35.780746,173.308334,6.185328,4.797441,0.732694,-5.300215,-4.719534,-0.498174,5.093382,-0.252642,0.465070,-0.058098,-16.227511,188.495606,1594.181502,3.511671,0
0.087500,-81.742949,-87.233316,204.995834,6.750828,3.025852,3.149562,-5.680815,-2.947822,-2.974223,5.591481,-0.259948,0.463960,-0.028224,-18.399031,188.495680,1594.211456,3.372750,0
0.088542,-18.270317,-147.541188,180.460796,6.298428,1.073199,4.526660,-4.889764,-0.988647,-4.329754,4.858564,-0.212459,0.459779,-0.035692,-15.571531,188.646411,1593.253831,3.585120,0
0.089583,44.975466,-194.076831,130.959849,5.416248,-1.220280,5.494995,-3.587516,1.345454,-5.399911,3.577740,-0.212459,0.456578,-0.035692,-10.979671,188.571105,1591.426266,4.052939,0
0.090625,99.691689,-196.698387,54.547917,3.991188,-3.325595,5.455309,-1.497949,3.525174,-5.412501,1.560440,-0.161317,0.443840,-0.046895,-10.086181,188.495792,1590.685499,4.840622,0
0.091667,162.699279,-168.706932,-11.609280,2.758398,-4.930321,4.911613,0.509528,5.024880,-4.875324,-0.364355,-0.110175,0.446518,-0.061832,-3.718651,188.496074,1589.894948,6.565657,0
0.092708,183.807672,-109.172237,-70.847917,1.616088,-5.438011,3.209091,2.614021,5.620351,-3.238614,-2.374538,-0.066339,0.448151,-0.061832,5.103148,188.646761,1589.091692,6.077761,0
0.093750,191.996958,-31.685319,-132.130114,0.405918,-5.619075,1.395448,4.311794,5.745327,-1.463413,-4.082304,-0.062686,0.456970,-0.058098,16.594108,188.570696,1588.460322,6.110728,0
0.094792,154.804899,37.018782,-172.705872,-0.408402,-4.664050,-0.553127,5.110307,4.866823,0.467065,-4.865031,-0.029809,0.467487,-0.050629,22.995568,188.495170,1586.716229,6.632332,0
0.095833,80.534205,88.121006,-204.725758,-1.041762,-2.935065,-2.938246,5.561803,3.153923,2.854984,-5.352456,-0.007891,0.462000,-0.031958,23.753338,188.495227,1585.077233,7.716431,0
0.096875,17.027545,147.667782,-180.400001,-0.521502,-0.954009,-4.279627,4.811798,1.213127,4.235696,-4.694254,-0.018850,0.460628,-0.054364,22.339588,188.646074,1583.924326,9.459286,0
0.097917,-45.163385,194.094696,-130.886743,0.417228,1.321719,-5.287647,3.494624,-1.102596,5.352016,-3.473913,-0.066339,0.454357,-0.035692,15.270838,188.570656,1583.027064,10.519915,0
0.098958,-100.253910,196.788738,-55.213447,1.876218,3.423484,-5.279710,1.345355,-3.212476,5.377196,-1.413919,-0.095563,0.446779,-0.065566,15.282148,188.495209,1582.363707,12.184018,0
0.100000,-163.556405,168.773121,11.337689,3.097698,4.971405,-4.720140,-0.583763,-4.748940,4.886183,0.542896,-0.128440,0.448739,-0.039427,9.593218,188.495237,1581.787548,13.261022,0
0.101042,-184.335866,109.721662,71.413447,4.194768,5.514597,-3.037460,-2.688256,-5.355438,3.257866,2.481923,-0.183235,0.449066,-0.046895,-0.133382,188.721418,1581.202699,14.685506,0
0.102083,-192.173534,30.857521,132.412500,5.359698,5.667259,-1.267472,-4.367372,-5.495117,1.402928,4.200363,-0.208806,0.448804,-0.017021,-10.425481,188.570716,1579.138706,15.397982,0
0.103125,-154.720597,-37.810337,172.495834,6.174018,4.733536,0.685071,-5.180811,-4.657046,-0.506567,5.043572,-0.234377,0.443317,-0.024490,-15.899521,188.495215,1577.801194,15.707966,0
0.104167,-79.871437,-88.151464,204.885039,6.796068,3.050704,3.109876,-5.680815,-2.940471,-2.869305,5.559460,-0.241683,0.466638,-0.065566,-18.964531,188.495309,1576.464524,17.534606,0
0.105208,-17.442314,-147.541188,180.423864,6.366288,1.083850,4.403634,-4.927078,-1.003350,-4.237427,4.808755,-0.230724,0.454553,-0.069301,-16.069171,188.646087,1574.977177,18.402468,0
0.106250,44.816671,-194.088912,131.255303,5.461488,-1.206079,5.506901,-3.606173,1.268263,-5.341157,3.606202,-0.175929,0.460498,-0.020755,-12.359491,188.570609,1574.346460,19.550893,0
0.107292,100.440294,-196.396364,55.582008,3.968568,-3.329146,5.419592,-1.490486,3.407550,-5.391518,1.596019,-0.172276,0.444428,-0.054364,-9.961771,188.495090,1573.569583,20.902243,0
0.108333,163.368486,-168.477395,-11.917045,2.667918,-4.830913,4.863990,0.558036,4.955041,-4.812374,-0.343008,-0.110175,0.444232,-0.046895,-5.324671,188.570736,1572.355184,21.437684,0
0.109375,183.716932,-108.338655,-71.635796,1.570848,-5.384757,3.169405,2.550587,5.576242,-3.280581,-2.338960,-0.088257,0.447433,-0.058098,3.926908,188.646111,1571.875984,22.758515,0
0.110417,191.577285,-29.462433,-132.105493,0.428538,-5.551620,1.407354,4.263286,5.726948,-1.446626,-4.075189,-0.037115,0.437438,-0.050629,15.768478,188.570636,1571.205429,23.324728,0
0.111458,154.056294,38.323520,-172.828978,-0.351852,-4.664050,-0.545190,5.151352,4.866823,0.450279,-4.875704,-0.026156,0.471799,-0.046895,20.416888,188.495305,1571.165253,24.086028,0
