1-Time,2-VGERA,3-VGERB,4-VGERC,5-VN,6-IGERAN,7-IGERBN,8-IGERCN,9-IGERAT,10-IGERBT,11-IGERCT,12-IN,13-IFD,14-IFAULT,15-VFAULT,16-Speed (rad/s),17-FAULT 
0.000000,-163.250158,159.168802,20.361364,3.256038,1.335920,-4.942381,3.046860,-1.275356,4.957527,-3.022066,-0.066339,0.558681,-0.013287,13.789228,188.420399,0
0.001042,-181.625009,109.709581,91.405871,4.590618,3.341827,-4.847135,1.031920,-3.315397,4.877790,-1.036788,-0.132093,0.550711,-0.031958,14.942848,188.495712,0
0.002083,-178.562534,27.100360,141.694697,5.540658,4.385609,-4.013732,-0.714361,-4.403419,4.109795,0.646074,-0.183235,0.553782,-0.024490,15.564898,188.495807,0
0.003125,-151.147710,-48.127429,174.219319,6.174018,5.031760,-2.648539,-2.568852,-5.006242,2.745870,2.467691,-0.157664,0.560118,-0.017021,16.447078,188.269525,0
0.004167,-89.557932,-116.058353,176.558334,6.219258,4.793891,-0.604718,-4.158416,-4.767318,0.752441,3.947756,-0.219765,0.528174,-0.013287,9.333088,188.420363,0
0.005208,-4.330383,-155.333372,177.272349,6.275808,3.963126,1.224799,-4.968123,-3.940275,-1.131874,4.790965,-0.227071,0.565083,-0.046895,3.983458,188.495694,0
0.006250,69.339157,-170.337854,135.317803,5.472798,2.315797,2.986850,-4.942003,-2.396460,-2.831535,4.751829,-0.248989,0.563711,-0.058098,-2.316212,188.495772,0
0.007292,122.070442,-192.252614,51.667235,3.900708,0.363144,4.554441,-4.400955,-0.404203,-4.464049,4.314214,-0.219765,0.564952,-0.031958,-6.240781,188.269603,0
0.008333,162.733306,-159.090533,-20.029735,2.543508,-1.319688,5.046545,-3.162140,1.235182,-4.976045,3.154356,-0.227071,0.562927,-0.043161,-8.977801,188.420263,0
0.009375,181.346350,-109.474260,-91.431250,1.174998,-3.329146,4.983048,-1.162126,3.271547,-4.980242,1.208214,-0.179582,0.550973,-0.039427,-10.312381,188.495741,0
0.010417,178.374615,-26.997928,-141.806250,0.213648,-4.376478,4.113928,0.576693,4.374272,-4.191264,-0.478206,-0.110175,0.556917,-0.069301,-10.821331,188.420359,0
0.011458,150.959791,48.048647,-174.183144,-0.419712,-5.001327,2.748735,2.472229,5.021204,-2.852519,-2.292708,-0.088257,0.545420,-0.069301,-10.629061,188.269483,0
0.012500,89.426726,116.148703,-176.780682,-0.510192,-4.749257,0.677134,4.043135,4.727144,-0.796139,-3.819024,-0.059033,0.586118,-0.054364,-4.849651,188.420301,0
0.013542,4.494082,155.327075,-177.346970,-0.476262,-3.922042,-1.176195,4.893888,3.944209,1.088176,-4.694254,-0.033462,0.514391,-0.058098,0.760108,188.420242,0
0.014583,-69.561104,170.983927,-135.047728,0.315438,-2.274713,-2.954120,4.808066,2.356285,2.825607,-4.651560,-0.069992,0.556003,-0.020755,7.353838,188.344916,0
0.015625,-122.417156,192.487936,-51.212500,1.898838,-0.279457,-4.470119,4.289406,0.316244,4.437137,-4.178366,-0.037115,0.561229,-0.039427,10.758148,188.269563,0
0.016667,-163.272843,159.289611,20.201326,3.278658,1.367873,-4.970161,3.035666,-1.301086,4.932347,-3.014950,-0.095563,0.561555,-0.054364,13.936258,188.420198,0
0.017708,-181.466214,110.132413,91.307387,4.567998,3.373780,-4.855072,1.013263,-3.311721,4.932347,-1.054577,-0.124787,0.552345,-0.009553,15.146428,188.420345,0
0.018750,-178.562534,27.378221,141.867046,5.529348,4.421112,-4.001826,-0.800183,-4.403419,4.105598,0.674537,-0.168623,0.557244,-0.035692,15.530968,188.344831,0
0.019792,-151.522012,-47.777083,174.022349,6.162708,5.045961,-2.604885,-2.621091,-5.039324,2.754263,2.481923,-0.190541,0.555611,-0.017021,16.266118,188.269546,0
0.020833,-89.625987,-115.961705,177.063069,6.309738,4.761938,-0.545190,-4.184535,-4.800400,0.752441,3.961987,-0.219765,0.534707,-0.031958,9.547978,188.344892,0
0.021875,-4.625288,-155.091753,177.444698,6.287118,3.945375,1.244642,-5.012899,-3.977032,-1.136071,4.808755,-0.256295,0.549405,-0.076769,4.356688,188.420410,0
0.022917,69.418555,-170.651958,135.219319,5.484108,2.298045,2.986850,-4.938272,-2.381757,-2.844125,4.769618,-0.263601,0.543722,-0.017021,-2.463241,188.344880,0
0.023958,121.900305,-192.252614,51.408712,3.923328,0.327641,4.534598,-4.393492,-0.393176,-4.451458,4.321330,-0.194194,0.562339,-0.039427,-6.659251,188.269501,0
0.025000,162.608539,-159.199261,-20.042046,2.543508,-1.326789,5.046545,-3.117364,1.282966,-5.001225,3.168587,-0.208806,0.564364,-0.013287,-8.932561,188.269610,0
0.026042,181.176212,-109.872930,-91.086553,1.186308,-3.322045,4.998922,-1.162126,3.297277,-4.950865,1.233119,-0.186888,0.551430,-0.046895,-10.357621,188.420356,0
0.027083,178.374615,-27.565731,-141.633902,0.224958,-4.390679,4.125833,0.610275,4.400002,-4.170280,-0.478206,-0.124787,0.564756,-0.039427,-11.070151,188.344838,0
0.028125,151.084558,47.565411,-174.220076,-0.385782,-4.997776,2.736829,2.479691,5.021204,-2.869305,-2.292708,-0.088257,0.559726,-0.017021,-10.776091,188.269689,0
0.029167,90.152646,115.834600,-176.731440,-0.464952,-4.735056,0.700946,4.076718,4.808011,-0.846499,-3.843929,-0.066339,0.546531,-0.054364,-4.691311,188.269527,0
0.030208,4.720932,155.375399,-177.457766,-0.498882,-3.914942,-1.176195,4.875231,3.914803,1.075586,-4.676465,-0.022503,0.563384,-0.061832,0.952378,188.420329,0
0.031250,-69.753926,170.500690,-135.343182,0.326748,-2.288914,-2.926340,4.815529,2.389367,2.779443,-4.651560,-0.051727,0.545028,-0.031958,6.867508,188.345017,0
0.032292,-122.519239,192.427531,-51.126326,1.898838,-0.336261,-4.446308,4.296869,0.378732,4.369990,-4.171251,-0.037115,0.560641,-0.065566,10.317058,188.269639,0
0.033333,-162.796458,159.700362,20.213636,3.256038,1.325269,-4.970161,3.080442,-1.275356,4.907166,-3.054087,-0.055380,0.563842,-0.046895,13.811848,188.269537,0
0.034375,-181.681721,110.047847,90.901137,4.579308,3.348928,-4.910632,1.061771,-3.252909,4.940740,-1.139965,-0.080951,0.552279,-0.024490,14.897608,188.420292,0
0.035417,-178.789384,28.187641,141.583902,5.518038,4.406911,-4.061355,-0.706899,-4.370337,4.176942,0.599822,-0.143052,0.558877,-0.061832,15.530968,188.269548,0
0.036458,-151.147710,-46.762287,174.465531,6.207948,5.049511,-2.672351,-2.557658,-5.068730,2.783640,2.417882,-0.194194,0.562143,-0.039427,16.413148,188.269545,0
0.037500,-90.782922,-115.526793,176.324432,6.253188,4.832944,-0.648373,-4.177073,-4.818779,0.790211,3.972661,-0.230724,0.555023,-0.054364,9.344398,188.338190,0
0.038542,-5.033618,-155.200482,177.383144,6.253188,3.998629,1.228767,-4.994243,-3.973356,-1.089908,4.819428,-0.263601,0.523732,-0.017021,4.017388,188.419806,0
0.039583,69.509295,-170.035832,135.797917,5.472798,2.383252,2.959070,-4.923347,-2.451596,-2.793765,4.812312,-0.259948,0.564560,-0.028224,-2.327522,188.344554,0
0.040625,122.149840,-192.300938,51.581061,3.923328,0.434149,4.526660,-4.430806,-0.470367,-4.472442,4.307098,-0.219765,0.561555,-0.039427,-6.195541,188.269109,0
0.041667,162.211551,-159.597931,-19.980492,2.554818,-1.269984,5.034639,-3.251693,1.198424,-5.005422,3.197050,-0.197847,0.562797,-0.054364,-8.966491,188.269109,0
0.042708,181.210240,-109.788363,-90.754167,1.152378,-3.279442,4.987016,-1.191977,3.223762,-5.009619,1.258024,-0.168623,0.554631,-0.028224,-10.301071,188.420003,0
0.043750,178.544752,-28.048967,-141.547728,0.236268,-4.365827,4.137739,0.558036,4.352218,-4.224837,-0.399933,-0.146705,0.557701,-0.035692,-10.787401,188.269136,0
0.044792,151.129928,46.526453,-174.552463,-0.408402,-4.997776,2.804295,2.419989,5.032231,-2.915469,-2.242898,-0.113828,0.562993,-0.058098,-10.629061,188.269145,0
0.045833,90.799168,115.556739,-176.411364,-0.464952,-4.727955,0.716820,4.039404,4.800659,-0.892663,-3.797677,-0.044421,0.555676,-0.024490,-4.906201,188.344525,0
0.046875,5.322085,155.266670,-177.383902,-0.510192,-3.939793,-1.100791,4.856574,3.973615,1.062996,-4.665791,-0.015197,0.557701,-0.039427,0.737488,188.419990,0
0.047917,-69.606474,170.585257,-135.527841,0.292818,-2.317316,-2.878717,4.811798,2.370988,2.762656,-4.680023,-0.029809,0.563646,-0.039427,7.455628,188.269080,0
0.048958,-122.507896,192.415450,-51.310985,1.887528,-0.357563,-4.442339,4.311794,0.364029,4.378383,-4.160577,-0.033462,0.560771,-0.039427,10.667668,188.269205,0
0.050000,-162.614978,159.784929,20.238258,3.267348,1.307518,-4.934443,3.087905,-1.264329,4.886183,-3.071876,-0.066339,0.562797,-0.043161,13.902328,188.193727,0
0.051042,-181.352789,110.156575,90.999621,4.590618,3.334727,-4.918569,1.076696,-3.252909,4.894576,-1.115060,-0.084604,0.551757,-0.073035,15.123808,188.419904,0
0.052083,-178.789384,28.368855,141.596213,5.529348,4.421112,-4.085166,-0.699436,-4.396068,4.139172,0.599822,-0.117481,0.555154,-0.005818,15.553588,188.344522,0
0.053125,-151.510670,-46.037433,174.379357,6.196638,4.992707,-2.652508,-2.550195,-5.035648,2.800427,2.403650,-0.175929,0.560118,-0.020755,16.232188,188.269162,0
0.054167,-90.941717,-115.333498,176.521402,6.219258,4.793891,-0.616624,-4.150953,-4.833482,0.790211,3.961987,-0.212459,0.553128,-0.017021,9.638458,188.193854,0
0.055208,-5.612086,-154.934702,177.395455,6.253188,3.995078,1.236704,-4.938272,-3.977032,-1.110891,4.783850,-0.219765,0.537581,-0.035692,4.413238,188.419871,0
0.056250,69.203047,-170.253288,135.871781,5.472798,2.333548,2.955101,-4.930809,-2.436893,-2.818945,4.773176,-0.238030,0.555088,-0.005818,-2.531101,188.269039,0
0.057292,121.957017,-192.228452,51.544129,3.945948,0.423498,4.483006,-4.423343,-0.444636,-4.392705,4.324887,-0.256295,0.557832,-0.069301,-6.625321,188.269002,0
0.058333,162.143496,-159.585850,-20.202083,2.543508,-1.266434,5.006859,-3.199454,1.165342,-4.971848,3.200608,-0.186888,0.560184,-0.054364,-8.921251,188.193673,0
0.059375,180.994732,-109.788363,-90.667993,1.208928,-3.275891,5.002890,-1.177051,3.212735,-4.929881,1.272255,-0.154011,0.551299,-0.043161,-10.335001,188.419880,0
0.060417,178.556095,-28.048967,-141.461553,0.247578,-4.326774,4.133771,0.565499,4.352218,-4.229034,-0.428396,-0.143052,0.555284,-0.024490,-11.036221,188.419931,0
0.061458,151.073216,45.886166,-174.700190,-0.442332,-4.980025,2.804295,2.419989,4.966068,-2.898682,-2.242898,-0.066339,0.562339,-0.031958,-10.742161,188.269057,0
0.062500,91.502403,115.266797,-176.312879,-0.532812,-4.745707,0.760474,3.994628,4.796983,-0.888466,-3.787003,-0.091910,0.562013,-0.035692,-4.736551,188.193673,0
0.063542,5.889210,155.266670,-177.322349,-0.476262,-3.914942,-1.116666,4.864037,3.988318,1.016832,-4.665791,-0.059033,0.533400,-0.024490,0.861898,188.420010,0
0.064583,-69.300226,170.102021,-136.057197,0.315438,-2.317316,-2.827125,4.804335,2.422449,2.716493,-4.605308,-0.033462,0.575012,-0.031958,6.856198,188.419755,0
0.065625,-122.405814,192.306722,-51.434091,1.887528,-0.385965,-4.410590,4.274480,0.419165,4.382580,-4.149904,-0.026156,0.560118,0.009119,10.249198,188.269066,0
0.066667,-162.138593,160.026547,20.361364,3.256038,1.264914,-4.942381,3.128950,-1.209192,4.923953,-3.086107,-0.029809,0.560249,-0.024490,13.811848,188.193635,0
0.067708,-181.375474,110.011604,90.704167,4.590618,3.299224,-4.902695,1.117741,-3.212476,4.911363,-1.147081,-0.095563,0.552345,-0.013287,14.931538,188.419916,0
0.068750,-178.925494,28.453421,141.288447,5.529348,4.353657,-4.089135,-0.636003,-4.370337,4.202122,0.535781,-0.175929,0.558877,-0.028224,15.497038,188.419885,0
0.069792,-151.181737,-45.324660,174.970266,6.196638,5.042410,-2.704099,-2.539001,-5.009918,2.863377,2.350282,-0.186888,0.562143,-0.017021,16.413148,188.269113,0
0.070833,-92.087310,-114.958990,176.102841,6.264498,4.815193,-0.680122,-4.136027,-4.862888,0.857358,3.905062,-0.208806,0.561817,-0.054364,9.389638,188.193716,0
0.071875,-6.326663,-155.115915,177.309281,6.275808,4.016380,1.193050,-5.009168,-4.021141,-1.060531,4.812312,-0.230724,0.562927,-0.061832,4.085248,188.419961,0
0.072917,68.919485,-169.987508,136.499622,5.495418,2.397453,2.895572,-4.923347,-2.436893,-2.760191,4.798081,-0.278213,0.554958,-0.031958,-2.327522,188.495227,0
0.073958,122.263265,-192.168048,51.544129,3.923328,0.427049,4.502849,-4.438268,-0.451988,-4.417885,4.307098,-0.234377,0.557962,-0.065566,-6.116371,188.269140,0
0.075000,161.644426,-159.887872,-20.202083,2.554818,-1.230931,4.994953,-3.218110,1.169018,-4.942472,3.268207,-0.234377,0.561359,-0.009553,-8.921251,188.193798,0
0.076042,181.006075,-109.667554,-90.507955,1.197618,-3.290093,4.951299,-1.206902,3.201708,-4.967652,1.272255,-0.190541,0.551953,-0.031958,-10.255831,188.419905,0
0.077083,178.601465,-28.000643,-141.326137,0.247578,-4.330324,4.201237,0.606544,4.344866,-4.254214,-0.392817,-0.135746,0.555611,-0.043161,-10.753471,188.495352,0
0.078125,151.027846,45.620386,-174.934091,-0.442332,-4.990676,2.792389,2.360288,4.995474,-2.915469,-2.217993,-0.080951,0.562339,-0.031958,-10.629061,188.269295,0
0.079167,91.819993,114.976856,-176.386743,-0.498882,-4.777659,0.732694,3.987165,4.859471,-0.875876,-3.797677,-0.066339,0.560771,-0.024490,-4.996681,188.344451,0
0.080208,6.274855,155.182104,-177.334660,-0.510192,-3.918492,-1.148414,4.901350,3.962588,1.042012,-4.633771,-0.011544,0.559988,-0.028224,0.601768,188.419905,0
0.081250,-68.971294,170.573176,-136.167993,0.292818,-2.292464,-2.854905,4.778215,2.418773,2.804623,-4.619539,-0.015197,0.533923,-0.020755,7.410388,188.495405,0
0.082292,-122.326416,192.487936,-51.323296,1.910148,-0.339811,-4.454245,4.259555,0.404462,4.445530,-4.153461,-0.051727,0.559204,-0.061832,10.622428,188.269064,0
0.083333,-162.206648,160.099032,20.558333,3.244728,1.307518,-4.942381,3.072979,-1.268004,4.949133,-3.043413,-0.073645,0.557309,-0.043161,13.868398,188.344590,0
0.084375,-181.352789,109.999523,90.839584,4.601928,3.331176,-4.882852,1.076696,-3.252909,4.877790,-1.061693,-0.143052,0.548817,-0.039427,15.123808,188.419851,0
0.085417,-178.857439,28.054751,141.350000,5.540658,4.403360,-4.061355,-0.751675,-4.388716,4.130778,0.638958,-0.135746,0.555088,-0.039427,15.530968,188.495345,0
0.086458,-151.499327,-45.602520,174.527084,6.151398,5.045961,-2.656476,-2.576315,-5.054027,2.758460,2.428555,-0.205153,0.560837,-0.046895,16.232188,188.269189,0
0.087500,-91.939857,-114.801939,176.570644,6.241878,4.783240,-0.616624,-4.169610,-4.829806,0.777621,3.944198,-0.227071,0.562601,-0.058098,9.661078,188.269133,0
0.088542,-6.712308,-154.886378,177.493940,6.264498,3.966676,1.240673,-5.012899,-3.940275,-1.110891,4.790965,-0.245336,0.538234,-0.031958,4.424548,188.419866,0
0.089583,68.533840,-170.362016,136.130303,5.484108,2.280294,2.990818,-4.915884,-2.411163,-2.835732,4.758945,-0.248989,0.559857,-0.080503,-2.497171,188.495338,0
0.090625,121.911647,-192.397585,51.359470,3.878088,0.384445,4.562378,-4.367372,-0.407879,-4.443065,4.321330,-0.227071,0.558354,-0.076769,-6.614011,188.344460,0
0.091667,161.837249,-159.924115,-20.472917,2.509578,-1.294836,5.062419,-3.184528,1.246209,-4.980242,3.172145,-0.208806,0.556264,-0.043161,-8.864701,188.269058,0
0.092708,180.938020,-109.715878,-90.704925,1.174998,-3.300743,4.983048,-1.154663,3.293602,-4.934078,1.211772,-0.172276,0.549340,-0.046895,-10.335001,188.419980,0
0.093750,178.612807,-27.517407,-141.338447,0.270198,-4.394229,4.153614,0.614006,4.374272,-4.233230,-0.503111,-0.157664,0.556525,-0.031958,-11.058841,188.495336,0
0.094792,151.254696,45.813680,-174.626326,-0.385782,-5.040380,2.756672,2.457303,5.035907,-2.881895,-2.292708,-0.091910,0.562209,-0.035692,-10.787401,188.344413,0
0.095833,92.058186,114.735237,-176.472917,-0.464952,-4.752807,0.685071,4.058061,4.778605,-0.796139,-3.847487,-0.069992,0.562862,0.012853,-4.804411,188.344505,0
0.096875,6.762582,155.182104,-177.531629,-0.464952,-3.918492,-1.120634,4.905082,3.973615,1.121750,-4.708485,-0.007891,0.551299,-0.031958,0.850588,188.419869,0
0.097917,-68.608334,170.512771,-136.389584,0.292818,-2.260512,-2.954120,4.785678,2.378340,2.787837,-4.640886,-0.037115,0.554958,-0.061832,6.833578,188.495314,0
0.098958,-122.088224,192.729554,-51.237121,1.876218,-0.283007,-4.442339,4.270749,0.360353,4.437137,-4.153461,-0.066339,0.555545,-0.031958,10.271818,188.420003,0
0.100000,-162.149935,160.159437,20.767614,3.244728,1.357222,-4.982066,3.046860,-1.312113,4.928150,-3.025624,-0.059033,0.556983,-0.024490,13.755298,188.419902,0
0.101042,-181.477556,109.649177,90.864205,4.601928,3.398632,-4.902695,1.050577,-3.297018,4.848413,-1.022556,-0.117481,0.555284,-0.043161,14.942848,188.419849,0
0.102083,-178.993549,27.764810,141.177652,5.563278,4.414011,-4.065324,-0.759138,-4.414446,4.130778,0.656747,-0.128440,0.551757,-0.013287,15.542278,188.495036,0
0.103125,-151.442615,-45.662925,174.822538,6.174018,5.092114,-2.644571,-2.613629,-5.076081,2.775247,2.457018,-0.197847,0.562013,-0.013287,16.458388,188.419929,0
0.104167,-92.246105,-114.524078,176.398296,6.264498,4.829394,-0.565033,-4.221849,-4.833482,0.794408,3.951314,-0.190541,0.554566,-0.009553,9.434878,188.419030,0
0.105208,-7.234064,-155.031349,177.493940,6.264498,3.980877,1.292265,-5.027825,-3.995411,-1.131874,4.840775,-0.238030,0.567631,-0.039427,4.153108,188.420012,0
0.106250,68.080140,-170.241207,136.499622,5.472798,2.290945,3.050347,-4.945735,-2.385432,-2.873502,4.826544,-0.234377,0.546269,-0.024490,-2.270972,188.495199,0
0.107292,121.650770,-192.760012,51.482576,3.866778,0.352493,4.538566,-4.404686,-0.363770,-4.514409,4.285751,-0.219765,0.557701,-0.028224,-6.161611,188.495341,0
0.108333,161.735166,-159.960358,-20.583712,2.532198,-1.344540,5.054482,-3.150946,1.279291,-5.005422,3.182819,-0.216112,0.555545,-0.043161,-8.921251,188.419898,0
0.109375,181.176212,-109.413855,-90.717235,1.197618,-3.364648,4.923519,-1.113618,3.374468,-4.938275,1.154846,-0.201500,0.543526,-0.039427,-10.301071,188.419947,0
0.110417,178.782945,-27.082495,-141.301516,0.224958,-4.440383,4.169488,0.692365,4.458814,-4.208050,-0.524458,-0.106522,0.541566,-0.020755,-10.798711,188.495278,0
0.111458,151.470203,46.284835,-174.626326,-0.431022,-5.043930,2.716986,2.509542,5.087368,-2.856715,-2.353191,-0.077298,0.561555,-0.035692,-10.685611,188.495197,0
0.112500,91.854021,114.590267,-176.780682,-0.521502,-4.774109,0.609668,4.143882,4.815362,-0.783549,-3.904412,-0.051727,0.546661,-0.031958,-4.985371,188.419786,0
0.113542,7.080172,155.097538,-177.667046,-0.521502,-3.882989,-1.251598,4.923739,3.881722,1.151126,-4.747622,-0.048074,0.568284,-0.013287,0.635698,188.419938,0
0.114583,-67.995839,171.080574,-136.057197,0.304128,-2.161104,-2.989837,4.822992,2.301149,2.892754,-4.648002,-0.018850,0.563123,-0.020755,7.331218,188.495264,0
0.115625,-121.611839,193.019495,-51.323296,1.876218,-0.190700,-4.505836,4.222241,0.279487,4.487497,-4.121441,-0.044421,0.554304,0.001650,10.678978,188.495302,0
0.116667,-162.433498,160.086951,20.939962,3.267348,1.467280,-5.017784,2.931187,-1.396656,4.982707,-2.943794,-0.088257,0.555611,-0.035692,13.823158,188.495354,0
0.117708,-181.409501,109.854552,90.938068,4.635858,3.455436,-4.866977,0.919979,-3.377885,4.840019,-0.962073,-0.161317,0.547380,-0.031958,15.123808,188.495379,0
0.118750,-178.982206,27.172845,141.288447,5.563278,4.495668,-4.001826,-0.897198,-4.502664,4.042648,0.727904,-0.157664,0.548425,-0.020755,15.564898,188.495224,0
0.119792,-152.202562,-46.568993,174.133144,6.162708,5.116966,-2.573136,-2.721838,-5.109163,2.699706,2.574427,-0.212459,0.563254,-0.054364,16.356598,188.495229,0
0.120833,-91.429445,-114.391188,177.149243,6.253188,4.783240,-0.442007,-4.333790,-4.789373,0.634933,4.104301,-0.270907,0.559204,-0.058098,9.683698,188.494952,0
0.121875,-7.313461,-154.717245,177.875569,6.309738,3.938274,1.423228,-5.091258,-3.910869,-1.274562,4.911932,-0.241683,0.565540,-0.035692,4.447168,188.495729,0
0.122917,67.444960,-171.038547,136.105682,5.450178,2.198638,3.137656,-4.930809,-2.304566,-3.011993,4.844333,-0.208806,0.564952,-0.035692,-2.406691,188.495781,0
0.123958,121.004247,-193.074116,51.519508,3.866778,0.192730,4.641749,-4.330059,-0.275552,-4.568966,4.264404,-0.219765,0.559269,-0.054364,-6.614011,188.495693,0
0.125000,162.030071,-159.912034,-20.583712,2.498268,-1.458149,5.058451,-3.065124,1.389563,-5.043192,3.044063,-0.201500,0.557113,-0.017021,-8.830771,188.571107,0
0.126042,181.119500,-109.438017,-90.655682,1.220238,-3.492458,4.927487,-1.009139,3.418577,-4.917291,1.048111,-0.168623,0.547706,-0.050629,-10.357621,188.495680,0
0.127083,178.828315,-26.647582,-141.092235,0.258888,-4.475885,4.058368,0.796844,4.477193,-4.161887,-0.592057,-0.106522,0.542676,-0.028224,-11.081461,188.495711,0
