1-Time,2-VGERA,3-VGERB,4-VGERC,5-VN,6-IGERAN,7-IGERBN,8-IGERCN,9-IGERAT,10-IGERBT,11-IGERCT,12-IN,13-IFD,14-IFAULT,15-VFAULT,16-Speed (rad/s),17-Active Power,18-Reactive Power,19-FAULT 
0.000000,141.658940,-176.656167,12.790341,3.165558,-4.390679,5.090199,-0.221820,4.444111,-5.118733,0.372120,-0.150358,0.439986,-0.035692,144.826885,188.495772,1591.329894,0.605974,0
0.001042,187.210422,-128.006367,-48.578030,1.966698,-5.494815,3.855970,1.968494,5.598297,-3.876512,-1.776820,-0.121134,0.439136,-0.039427,185.554194,188.495606,1590.607703,-0.337580,0
0.002083,190.783310,-51.159736,-107.041099,0.892248,-5.555170,1.839929,3.826716,5.756354,-1.946033,-3.573532,-0.059033,0.435543,-0.028224,187.872744,188.495685,1590.331355,-1.263289,0
0.003125,165.693699,13.146916,-166.907576,-0.250062,-5.129137,-0.100708,5.080456,5.234398,-0.028144,-4.843684,-0.029809,0.423524,-0.039427,163.646725,188.495725,1590.184601,-0.770939,0
0.004167,111.136272,70.531210,-188.795834,-0.691152,-3.485358,-2.311210,5.517027,3.723664,2.145743,-5.235047,-0.029809,0.461739,-0.043161,105.128786,188.495649,1589.630671,-0.158445,0
0.005208,35.776698,129.920934,-195.899054,-0.826872,-1.642763,-4.192318,5.322995,1.804923,4.109795,-5.174563,-0.069992,0.458211,-0.039427,33.355528,188.646433,1589.276399,0.118838,0
0.006250,-29.828325,170.089940,-153.095076,-0.023862,0.576160,-5.192401,3.994628,-0.363770,5.158968,-3.954222,-0.033462,0.451417,-0.054364,-29.788201,188.495787,1588.856582,-0.722758,0
0.007292,-81.198509,204.701730,-75.759849,1.446438,3.015202,-5.696412,2.173719,-2.811819,5.666768,-2.129047,-0.121134,0.436654,-0.020755,-80.106390,188.495761,1587.758881,-1.022625,0
0.008333,-141.234364,177.181430,-11.953977,2.656608,4.382059,-4.962224,0.110271,-4.197577,5.054051,-0.232714,-0.161317,0.436589,-0.028224,-139.551748,188.495693,1586.810917,-0.647901,0
0.009375,-187.489081,128.241688,48.454167,3.855468,5.521698,-3.724025,-2.094968,-5.348087,3.837010,1.973151,-0.190541,0.435739,-0.020755,-181.161238,188.646400,1585.631296,-0.559615,0
0.010417,-191.334189,52.989737,107.101894,4.941228,5.592704,-1.771482,-3.878563,-5.524523,1.898138,3.727169,-0.230724,0.442468,-0.039427,-183.004768,188.495682,1584.711503,-1.167842,0
0.011467,-166.380688,-12.537086,167.460796,6.038298,5.124067,0.268370,-5.210662,-5.017269,-0.103685,5.040015,-0.259948,0.455860,-0.046895,-158.699578,188.495749,1583.983759,-1.148221,0
0.012508,-110.654983,-71.201956,188.955114,6.502008,3.494489,2.470934,-5.591262,-3.455076,-2.248195,5.424262,-0.256295,0.453965,-0.050629,-98.044049,188.495658,1582.896607,-1.492944,0
0.013542,-34.784997,-129.806421,196.095266,6.671658,1.669646,4.296483,-5.397231,-1.551037,-4.178673,5.321085,-0.248989,0.437111,-0.046895,-27.333931,188.571046,1581.674624,-2.365549,0
0.014585,30.559148,-169.854618,152.909660,5.812098,-0.478272,5.252911,-4.158416,0.525762,-5.156503,4.129206,-0.219765,0.433192,-0.017021,35.199058,188.495671,1580.730353,-2.027142,0
0.015625,80.863138,-204.514732,76.226894,4.398348,-2.899562,5.776764,-2.303925,2.959108,-5.756630,2.321820,-0.197847,0.452005,-0.031958,84.793407,188.495734,1579.372271,-1.713743,0
0.016667,141.012418,-177.151484,13.418182,3.176868,-4.298372,5.102105,-0.236746,4.392651,-5.110339,0.421930,-0.157664,0.439855,-0.076769,144.498895,188.495673,1578.857110,-1.234226,0
0.017708,187.323847,-128.743302,-47.703977,2.000628,-5.462863,3.812315,1.968494,5.568891,-3.952052,-1.709221,-0.106522,0.442990,-0.035692,185.950044,188.571055,1579.022289,-0.177568,0
0.018750,191.021503,-53.141005,-106.881061,0.880938,-5.544519,1.863741,3.796865,5.749003,-2.021573,-3.562859,-0.055380,0.444624,-0.065566,187.827504,188.495720,1579.468654,0.049751,0
0.019792,165.818467,12.567032,-166.809091,-0.261372,-5.079433,-0.100708,5.080456,5.241749,-0.028144,-4.847242,0.024986,0.447171,-0.013287,163.511005,188.495740,1579.584687,-0.165789,0
0.020833,110.773312,70.664100,-188.955872,-0.657222,-3.492458,-2.331052,5.502101,3.664852,2.133153,-5.263510,-0.033462,0.451875,-0.043161,104.314466,188.495698,1579.434899,-0.469116,0
0.021879,33.871158,130.174633,-195.923675,-0.804252,-1.642763,-4.204224,5.337921,1.764490,4.143368,-5.174563,-0.044421,0.450568,-0.087972,32.620378,188.571015,1579.480421,-0.487138,0
0.022917,-29.816982,170.259072,-153.378220,-0.046482,0.530007,-5.208276,4.054329,-0.345391,5.146378,-3.975569,-0.062686,0.445538,-0.005818,-28.973881,188.495743,1579.635435,-0.110956,0
0.023959,-81.085084,204.496354,-77.200190,1.412508,2.969048,-5.716254,2.151331,-2.808144,5.754898,-2.161067,-0.080951,0.443317,-0.017021,-79.970670,188.495685,1580.956075,-0.179800,0
0.025000,-141.710749,177.302239,-13.320455,2.622678,4.399810,-5.009847,0.084152,-4.263741,5.087624,-0.182904,-0.150358,0.442141,-0.024490,-139.755328,188.495761,1582.061811,-1.442913,0
0.026042,-187.421026,128.857814,48.220265,3.776298,5.567852,-3.747837,-2.117356,-5.399547,3.866387,1.990940,-0.190541,0.436654,-0.024490,-180.901108,188.571100,1583.038844,-1.781412,0
0.027084,-191.300162,52.059508,106.818750,4.907298,5.649508,-1.755608,-3.990504,-5.553929,1.944301,3.809000,-0.219765,0.439267,-0.031958,-183.106558,188.495718,1583.980823,-1.747415,0
0.028125,-166.335318,-12.512924,166.574432,6.038298,5.163120,0.188998,-5.285289,-5.068730,-0.099488,5.068477,-0.248989,0.455206,-0.024490,-159.197218,188.495772,1584.505391,-1.686295,0
0.029167,-111.369561,-69.969704,188.967425,6.490698,3.558394,2.451091,-5.695740,-3.506536,-2.214621,5.498977,-0.263601,0.446126,-0.028224,-100.554869,188.495752,1585.578154,-1.539218,0
0.030209,-36.157440,-129.431913,196.046023,6.615108,1.722900,4.332200,-5.475589,-1.606173,-4.187067,5.370894,-0.278213,0.454945,-0.035692,-29.030431,188.495740,1586.414299,-1.374903,0
0.031250,29.198048,-169.987508,153.623675,5.800788,-0.481822,5.264817,-4.221849,0.533113,-5.190076,4.193247,-0.201500,0.454292,-0.017021,34.169848,188.495702,1587.569415,-1.755918,0
0.032292,80.647630,-204.490570,76.842424,4.375728,-2.920864,5.820419,-2.288999,2.977487,-5.794400,2.353840,-0.219765,0.444885,-0.043161,84.544587,188.495707,1588.352511,-1.850730,0
0.033334,141.001075,-177.272293,12.691856,3.154248,-4.358726,5.078294,-0.247940,4.407354,-5.143913,0.404140,-0.139399,0.436719,-0.017021,144.069115,188.495618,1588.850253,-1.771091,0
0.034375,186.904175,-128.320470,-47.962500,2.000628,-5.512567,3.867876,1.961031,5.609324,-3.897495,-1.776820,-0.095563,0.440312,-0.035692,185.610744,188.571125,1588.874061,-2.987222,0
0.035417,191.112243,-52.851063,-106.597917,0.914868,-5.558720,1.899458,3.770745,5.726948,-2.038360,-3.534396,-0.084604,0.444297,-0.058098,188.065014,188.495759,1588.406663,-2.552082,0
0.036468,166.090687,12.639518,-167.215341,-0.238752,-5.079433,-0.116583,5.106576,5.208667,-0.015554,-4.843684,-0.029809,0.450960,-0.054364,163.680655,188.495673,1588.253887,-2.836078,0
0.037508,111.533259,70.736585,-189.078978,-0.702462,-3.478257,-2.362801,5.531952,3.668528,2.208693,-5.263510,-0.000585,0.458734,-0.028224,104.009096,188.495776,1588.875994,-3.797979,0
0.038547,34.880641,130.065905,-195.935985,-0.826872,-1.646314,-4.180412,5.345383,1.801247,4.109795,-5.188795,-0.033462,0.452136,-0.035692,32.224528,188.646447,1588.939467,-3.439645,0
0.039590,-30.542902,170.186587,-152.861175,-0.001242,0.569060,-5.236056,4.069255,-0.356418,5.184148,-3.989800,-0.048074,0.441815,-0.017021,-30.206671,188.495776,1589.376793,-3.248514,0
0.040626,-80.880919,204.737972,-76.153788,1.457748,2.947746,-5.751972,2.203570,-2.760359,5.696145,-2.161067,-0.088257,0.441357,-0.043161,-79.812330,188.495745,1588.299966,-2.533143,0
0.041667,-140.916774,177.688828,-13.234280,2.633988,4.371408,-5.017784,0.169973,-4.186550,5.112804,-0.250504,-0.121134,0.445408,-0.028224,-139.291618,188.495716,1587.844873,-1.271582,0
0.042708,-187.477739,129.377293,47.457008,3.764988,5.546550,-3.779586,-2.038998,-5.370141,3.891567,1.891320,-0.194194,0.445995,-0.039427,-181.353508,188.646585,1587.443919,-0.202467,0
0.043750,-191.742519,54.185747,106.338637,4.929918,5.635307,-1.815137,-3.878563,-5.546577,1.952695,3.723611,-0.223418,0.447302,-0.031958,-183.185728,188.495655,1587.080546,-0.164942,0
0.044792,-166.335318,-10.954488,166.857576,6.083538,5.195072,0.208841,-5.244244,-5.065054,-0.028144,5.047130,-0.270907,0.451613,-0.020755,-158.891848,188.495725,1586.869821,0.270547,0
0.045833,-111.914001,-69.776409,188.659660,6.502008,3.558394,2.391562,-5.639770,-3.532266,-2.202031,5.442051,-0.230724,0.429011,-0.020755,-100.396529,188.495644,1586.310299,0.501565,0
0.046875,-34.637545,-129.190295,196.341478,6.637728,1.726451,4.264734,-5.509172,-1.639255,-4.174477,5.367337,-0.252642,0.437438,-0.039427,-28.069081,188.571111,1586.133238,1.392028,0
0.047917,29.833228,-169.298897,154.288447,5.846028,-0.425018,5.272754,-4.236774,0.477977,-5.198470,4.189689,-0.248989,0.441292,-0.035692,34.101988,188.495644,1586.069788,1.954524,0
0.048958,80.534205,-204.248952,77.999621,4.398348,-2.881811,5.812482,-2.337507,2.903972,-5.823777,2.382303,-0.205153,0.443513,-0.035692,84.397557,188.495776,1586.213212,2.612975,0
0.050002,141.023760,-177.501830,13.836742,3.154248,-4.312573,5.110042,-0.277791,4.414705,-5.181683,0.432603,-0.154011,0.443448,-0.043161,144.227455,188.495676,1586.827514,2.663831,0
0.051042,187.176395,-128.852030,-47.470076,1.989318,-5.455762,3.863907,1.931180,5.598297,-3.956249,-1.751915,-0.102869,0.439920,-0.028224,185.904804,188.571183,1587.263181,3.222777,0
0.052083,191.565943,-52.645688,-106.080872,0.880938,-5.594223,1.923269,3.770745,5.752678,-2.029967,-3.541512,-0.077298,0.449980,-0.035692,188.065014,188.495626,1587.595959,3.025858,0
0.053125,165.852494,12.132120,-166.587501,-0.250062,-5.139787,-0.084834,5.084188,5.271155,-0.028144,-4.872146,-0.018850,0.443186,-0.039427,163.816375,188.495671,1588.245867,3.146508,0
0.054167,111.862192,69.975488,-188.931251,-0.725082,-3.552813,-2.307241,5.561803,3.753070,2.149939,-5.309762,-0.029809,0.445408,-0.035692,106.112756,188.495665,1589.021583,4.163832,0
0.055208,35.958178,129.341050,-196.194508,-0.826872,-1.710219,-4.247878,5.397623,1.841680,4.126582,-5.227931,-0.055380,0.455010,-0.043161,34.294258,188.495723,1589.748626,4.037502,0
0.056250,-28.671389,169.944969,-154.301516,-0.057792,0.533557,-5.212244,4.117763,-0.308634,5.184148,-4.032495,-0.022503,0.453247,-0.035692,-28.736371,188.495747,1590.300539,3.878189,0
0.057292,-80.608699,204.580921,-77.274053,1.401198,3.004551,-5.724192,2.184913,-2.797116,5.792669,-2.203761,-0.102869,0.442207,-0.002084,-79.506960,188.495756,1591.967681,3.555011,0
0.058333,-140.939459,177.906285,-12.975758,2.633988,4.417562,-5.029689,0.110271,-4.241686,5.104411,-0.222041,-0.121134,0.438026,-0.024490,-139.042799,188.495664,1592.423136,2.850240,0
0.059375,-187.307601,129.051109,47.937121,3.787608,5.589153,-3.771648,-2.038998,-5.447332,3.899960,1.948246,-0.194194,0.435805,-0.020755,-180.980278,188.495604,1593.465089,2.260532,0
0.060417,-191.719834,53.146789,106.301705,4.975158,5.645958,-1.807199,-3.930802,-5.594362,1.990465,3.780537,-0.212459,0.443774,-0.024490,-183.321448,188.495676,1594.444897,2.555426,0
0.061469,-166.743648,-12.150497,167.042235,6.060918,5.219924,0.252496,-5.259170,-5.094460,-0.091095,5.111172,-0.278213,0.454749,-0.043161,-159.378178,188.495799,1595.626424,1.999124,0
0.062506,-112.152193,-69.933461,189.201326,6.513318,3.558394,2.482840,-5.688277,-3.554321,-2.252391,5.470514,-0.274560,0.458799,-0.024490,-100.057229,188.495669,1596.627929,1.619615,0
0.063542,-36.418317,-128.984920,196.538448,6.671658,1.733551,4.296483,-5.531560,-1.657634,-4.241624,5.395799,-0.259948,0.449392,-0.039427,-28.555411,188.495702,1597.791385,0.694038,0
0.064583,29.390871,-169.576757,154.189963,5.868648,-0.481822,5.316409,-4.236774,0.503707,-5.253027,4.179016,-0.227071,0.439332,-0.031958,34.215088,188.495781,1598.386907,-0.009871,0
0.065625,80.159903,-204.575136,76.977841,4.409658,-2.885361,5.872010,-2.371090,2.951757,-5.806990,2.364514,-0.201500,0.443056,0.005384,84.035637,188.495658,1598.267937,-0.489699,0
0.066679,141.295980,-176.571601,12.482576,3.188178,-4.365827,5.117979,-0.244209,4.451463,-5.156503,0.393467,-0.150358,0.441357,-0.009553,145.324525,188.495707,1598.034425,-0.676335,0
0.067723,187.425930,-128.405037,-48.639583,2.000628,-5.512567,3.832158,1.961031,5.657109,-3.943659,-1.769704,-0.088257,0.443252,-0.031958,185.723844,188.420242,1598.766546,-0.645199,0
0.068753,191.259695,-53.926263,-106.560985,0.914868,-5.604874,1.915332,3.778208,5.737975,-2.029967,-3.523723,-0.069992,0.448412,-0.046895,188.144184,188.495626,1598.630367,-0.792836,0
0.069801,166.226797,11.999230,-166.895266,-0.250062,-5.111385,-0.124520,5.099113,5.263804,-0.036538,-4.900609,-0.051727,0.460106,-0.017021,163.725895,188.495752,1599.063752,-0.964783,0
0.070838,111.794137,70.241268,-189.017425,-0.702462,-3.527961,-2.311210,5.531952,3.731016,2.158333,-5.316877,-0.040768,0.455076,-0.046895,104.857346,188.495694,1599.083595,-1.162341,0
0.071875,35.266286,128.894057,-196.477652,-0.815562,-1.671166,-4.216130,5.405085,1.867411,4.185335,-5.213700,-0.033462,0.450307,-0.039427,33.253738,188.571132,1599.407451,-1.296837,0
0.072917,-29.828325,169.304681,-154.621591,-0.035172,0.508705,-5.228119,4.121494,-0.286579,5.184148,-4.057400,-0.055380,0.435609,-0.002084,-28.906021,188.495783,1599.512383,-0.596851,0
0.073958,-80.268424,204.472192,-78.049621,1.389888,2.965498,-5.767846,2.218495,-2.749332,5.733915,-2.235782,-0.095563,0.442729,-0.054364,-79.224210,188.495636,1598.743110,-0.151190,0
0.075000,-140.826034,178.558653,-14.563826,2.566128,4.364307,-5.033658,0.181168,-4.226983,5.150575,-0.303871,-0.106522,0.442403,-0.013287,-138.816599,188.495653,1599.421689,0.481251,0
0.076042,-187.398341,129.655154,47.087690,3.764988,5.550100,-3.783554,-2.035266,-5.381169,3.920944,1.930457,-0.205153,0.440835,-0.035692,-181.274338,188.495642,1598.867780,0.643569,0
0.077083,-192.128164,53.980371,105.600000,4.929918,5.631757,-1.838948,-3.908414,-5.542902,1.998858,3.727169,-0.212459,0.446257,-0.005818,-183.491098,188.495662,1598.004070,0.685365,0
0.078125,-166.210550,-11.328996,166.648296,6.049608,5.216374,0.188998,-5.225588,-5.031972,-0.049128,5.068477,-0.230724,0.413594,-0.024490,-158.925778,188.495736,1596.614666,0.798435,0
0.079167,-112.299646,-69.377740,188.696591,6.524628,3.622299,2.387594,-5.639770,-3.576375,-2.197834,5.481188,-0.285519,0.441488,-0.028224,-101.742419,188.495693,1596.414948,1.344572,0
0.080208,-36.089385,-128.900354,196.464584,6.671658,1.783255,4.264734,-5.516634,-1.698067,-4.153493,5.378010,-0.285519,0.460171,-0.017021,-29.550691,188.495694,1595.494260,2.556066,0
0.081250,28.517498,-169.117683,155.051705,5.823408,-0.393065,5.288629,-4.262894,0.430192,-5.198470,4.214594,-0.248989,0.456513,-0.043161,33.412078,188.495680,1595.152511,3.329463,0
0.082292,80.001108,-204.381842,78.393561,4.387038,-2.885361,5.784701,-2.356164,2.929702,-5.815384,2.407208,-0.190541,0.445408,-0.020755,83.888607,188.495656,1595.486074,3.511767,0
0.083333,140.127703,-178.347494,13.996780,3.188178,-4.294821,5.153697,-0.326299,4.411030,-5.211060,0.461066,-0.124787,0.441553,-0.043161,143.073835,188.495633,1596.077806,3.823065,0
0.084375,186.734037,-128.900354,-47.076137,2.057178,-5.512567,3.887718,1.916255,5.587270,-3.964642,-1.737683,-0.088257,0.440965,-0.028224,185.791704,188.495611,1595.065215,3.871112,0
0.085419,191.543258,-52.730254,-105.822349,0.926178,-5.597773,1.919301,3.785671,5.782084,-2.038360,-3.559301,-0.037115,0.445538,-0.031958,188.065014,188.495647,1595.649423,3.894644,0
0.086459,166.181427,10.682411,-166.698296,-0.261372,-5.175290,-0.061022,5.087919,5.260128,-0.049128,-4.886378,0.003068,0.466377,-0.050629,164.212225,188.495772,1595.378023,3.615261,0
0.087500,113.359402,69.105663,-188.697349,-0.668532,-3.556363,-2.267555,5.543146,3.775125,2.128956,-5.316877,-0.029809,0.458538,-0.024490,107.040176,188.491123,1595.643110,3.534890,0
0.088542,36.967661,128.821572,-196.354546,-0.826872,-1.720870,-4.235973,5.434936,1.856383,4.181139,-5.210142,-0.059033,0.457754,-0.050629,34.124608,188.420224,1595.660320,2.846708,0
0.089583,-29.068377,169.618784,-154.547728,-0.023862,0.501605,-5.251930,4.132688,-0.323337,5.213525,-4.060957,-0.066339,0.451483,-0.009553,-29.075671,188.495749,1596.134764,2.109617,0
0.090625,-80.211712,204.713811,-77.175568,1.412508,2.983249,-5.759909,2.211033,-2.789765,5.775882,-2.207319,-0.102869,0.439463,-0.005818,-78.986700,188.495720,1596.645712,1.669995,0
0.091667,-140.247567,178.437844,-13.640530,2.611368,4.403360,-5.041595,0.158779,-4.271092,5.146378,-0.257619,-0.164970,0.441161,-0.039427,-138.579089,188.495736,1596.728171,0.988827,0
0.092708,-187.126121,129.703478,47.050758,3.810228,5.628206,-3.823240,-2.080043,-5.425278,3.937730,1.930457,-0.183235,0.439986,-0.076769,-181.093378,188.495656,1597.276304,0.944874,0
0.093750,-192.014739,54.971005,105.846212,4.918608,5.674360,-1.791325,-3.968116,-5.594362,1.935908,3.759190,-0.208806,0.446322,-0.065566,-183.581578,188.495683,1597.990096,-0.231095,0
0.094792,-167.015868,-9.661831,166.574432,6.049608,5.230575,0.204873,-5.270364,-5.101812,-0.078505,5.064920,-0.252642,0.450046,-0.046895,-159.615688,188.495683,1598.896567,-0.887023,0
0.095833,-112.889456,-68.930746,188.955114,6.468078,3.600998,2.431248,-5.684546,-3.569024,-2.202031,5.463398,-0.259948,0.452005,-0.024490,-101.165609,188.495736,1598.817005,-1.279201,0
0.096876,-35.533602,-128.670816,196.624622,6.671658,1.726451,4.300451,-5.565142,-1.631904,-4.191264,5.420704,-0.241683,0.448151,-0.017021,-28.114321,188.420307,1599.360618,-2.077776,0
0.097917,29.561008,-169.214330,154.510038,5.823408,-0.453420,5.308471,-4.281551,0.459598,-5.257224,4.228826,-0.223418,0.461151,-0.050629,33.807928,188.495740,1600.111038,-2.050217,0
0.098958,79.842313,-204.430165,78.282765,4.409658,-2.874710,5.832324,-2.344970,2.977487,-5.819580,2.432113,-0.172276,0.447759,-0.017021,83.741577,188.495685,1600.557638,-2.291062,0
0.100000,140.309183,-178.226685,14.957008,3.210798,-4.340975,5.137822,-0.318836,4.429408,-5.206863,0.450392,-0.172276,0.449196,-0.028224,143.469685,188.495788,1600.697966,-2.839463,0
0.101042,186.779407,-129.915150,-46.571402,2.034558,-5.466413,3.887718,1.912523,5.627703,-4.027593,-1.712779,-0.095563,0.443056,-0.054364,185.735154,188.420151,1601.795045,-2.556460,0
0.102083,191.645340,-54.047072,-105.305303,0.914868,-5.590673,1.927238,3.778208,5.771057,-2.059344,-3.541512,-0.084604,0.442207,-0.073035,188.279904,188.495732,1601.716254,-2.747787,0
0.103125,166.011289,11.056919,-166.341288,-0.216132,-5.182391,-0.088803,5.143890,5.260128,-0.053324,-4.868589,-0.051727,0.452789,-0.031958,163.838995,188.495756,1601.367297,-2.486797,0
0.104167,112.463344,69.371443,-188.832766,-0.668532,-3.570565,-2.267555,5.531952,3.789828,2.133153,-5.299088,-0.007891,0.444362,-0.054364,106.689566,188.495673,1601.158588,-2.033221,0
0.105208,36.014891,128.483306,-196.514584,-0.894732,-1.742171,-4.243910,5.449862,1.896817,4.143368,-5.252836,-0.037115,0.432669,-0.013287,34.667488,188.495682,1601.308540,-0.905029,0
0.106250,-28.580649,169.038901,-155.237122,-0.057792,0.490954,-5.255899,4.158808,-0.282903,5.154771,-4.071631,-0.066339,0.454814,-0.028224,-28.182181,188.495635,1600.669293,-0.518350,0
0.107292,-79.916807,204.254736,-78.726705,1.423818,2.965498,-5.728160,2.233421,-2.727277,5.759095,-2.235782,-0.091910,0.445734,-0.046895,-78.918840,188.495682,1600.293190,-0.168165,0
0.108333,-140.100114,178.824433,-14.329924,2.622678,4.399810,-5.049532,0.155048,-4.215956,5.121198,-0.278966,-0.150358,0.440116,-0.009553,-138.036209,188.495765,1599.640448,0.030221,0
0.109375,-186.865244,129.437698,46.903030,3.798918,5.564301,-3.835146,-2.068849,-5.355438,3.929337,1.916225,-0.201500,0.435086,-0.031958,-181.082068,188.420381,1598.566385,0.324243,0
0.110417,-192.218904,53.521297,105.046023,4.907298,5.653058,-1.838948,-3.912145,-5.583335,1.982072,3.730727,-0.234377,0.442207,-0.050629,-183.491098,188.495564,1598.124656,1.348351,0
0.111467,-166.074440,-11.353158,166.943751,6.072228,5.191522,0.149312,-5.244244,-5.094460,0.001233,5.100498,-0.267254,0.448347,-0.031958,-159.174598,188.495700,1598.214304,2.851216,0
