1-Time,2-VGERA,3-VGERB,4-VGERC,5-VN,6-IGERAN,7-IGERBN,8-IGERCN,9-IGERAT,10-IGERBT,11-IGERCT,12-IN,13-IFD,14-IFAULT,15-VFAULT,16-Speed (rad/s),17-Active Power,18-Reactive Power,19-FAULT 
0.000000,114.811242,83.832285,-183.588448,-0.544122,-5.661678,0.359647,5.289413,5.749003,-0.443617,-5.067828,0.006721,0.557440,0.005384,19.172788,188.420350,1581.136773,917.504586,0
0.001042,32.759593,130.996134,-184.388637,-0.566742,-4.280620,-2.374707,6.386436,4.341190,2.288430,-6.103161,0.035945,0.560575,-0.005818,-5.483011,188.495698,1580.444049,917.589362,0
0.002083,-42.293733,168.084510,-158.314773,-0.103032,-2.388322,-4.692360,6.494645,2.444503,4.634381,-6.370000,0.057863,0.564952,-0.013287,-25.592191,188.269463,1580.038052,918.263087,0
0.003125,-100.673583,186.966963,-85.263637,1.299408,0.260186,-6.196453,5.240905,-0.213064,6.149388,-5.146101,-0.015197,0.613097,-0.035692,-39.367771,188.420289,1580.240136,918.041604,0
0.004167,-146.848902,185.541416,-5.084659,2.837568,2.372601,-6.625060,3.591640,-2.403811,6.694958,-3.577090,-0.015197,0.601208,-0.031958,-48.438390,188.420296,1581.091401,918.232331,0
0.005208,-173.435723,135.997629,63.694697,4.115598,4.499218,-6.061521,0.975949,-4.385040,6.149388,-1.097271,-0.080951,0.593499,-0.024490,-54.545790,188.476656,1581.246572,918.180029,0
0.006250,-195.020502,54.185747,117.504356,5.122188,6.018737,-4.870946,-1.527800,-6.031776,5.012084,1.364759,-0.157664,0.587947,-0.005818,-53.267760,188.284703,1581.511004,918.379244,0
0.007292,-165.167040,-14.772053,169.467425,6.117468,6.206902,-2.934277,-3.520351,-6.182482,3.140359,3.211281,-0.234377,0.594022,-0.017021,-35.963461,188.420513,1581.872401,918.682979,0
0.008333,-116.496371,-82.751300,183.489205,6.388908,5.784419,-0.168174,-5.438276,-5.847989,0.383132,5.253485,-0.223418,0.590298,-0.024490,-15.922141,188.420283,1583.295885,917.731599,0
0.009384,-34.161160,-131.944741,184.400190,6.468078,4.357207,2.613803,-6.572612,-4.425474,-2.445439,6.281703,-0.234377,0.597811,-0.039427,10.452778,188.495700,1585.696634,917.274393,0
0.010417,40.415781,-167.812945,158.831061,5.970438,2.443607,4.848116,-6.580075,-2.554517,-4.736834,6.473827,-0.248989,0.609831,-0.043161,28.774978,188.344947,1586.790103,916.578455,0
0.011459,99.759744,-187.094068,86.395455,4.511448,-0.204901,6.360146,-5.344991,0.077320,-6.214069,5.274833,-0.227071,0.605192,0.009119,45.072687,188.420180,1587.990467,916.151953,0
0.012500,146.649641,-185.173204,6.068750,2.995908,-2.327967,6.713350,-3.654681,2.282770,-6.763836,3.691591,-0.197847,0.605976,-0.013287,52.944447,188.420238,1588.570789,915.771752,0
0.013542,173.429284,-135.919359,-63.498485,1.740498,-4.397779,6.205371,-1.080036,4.322812,-6.184693,1.201098,-0.135746,0.590364,-0.035692,59.470317,188.495707,1589.913217,915.861911,0
0.014584,194.673788,-53.769212,-117.308144,0.711288,-5.895997,5.018765,1.371475,5.921763,-5.064176,-1.271606,-0.117481,0.592454,-0.054364,57.852987,188.420303,1590.415303,915.811360,0
0.015625,165.194629,16.179223,-169.271213,-0.329232,-6.116114,3.070190,3.356563,6.109226,-3.209237,-3.075434,-0.051727,0.600424,-0.009553,40.118908,188.482263,1590.900857,916.341314,0
0.016667,115.412394,83.542343,-183.613069,-0.623292,-5.697181,0.359647,5.259562,5.756354,-0.493977,-5.099849,-0.022503,0.578932,-0.054364,17.510218,188.438164,1591.313128,916.712832,0
0.017709,33.292691,130.923649,-184.573296,-0.668532,-4.248668,-2.402487,6.356585,4.275027,2.263250,-6.110277,0.014027,0.603167,-0.043161,-5.844931,188.496235,1591.210696,916.016397,0
0.018750,-42.350445,168.132833,-158.253220,-0.136962,-2.370570,-4.688391,6.483451,2.422449,4.651168,-6.334421,-0.000585,0.578540,-0.054364,-25.162411,188.420752,1591.098531,915.456238,0
0.019801,-101.025200,188.295862,-82.875379,1.322028,0.338292,-6.196453,5.252099,-0.286579,6.107421,-5.085617,-0.007891,0.601404,-0.058098,-40.317811,188.420781,1590.458309,914.951393,0
0.020834,-146.690107,185.758872,-4.124432,2.792328,2.393903,-6.640934,3.584177,-2.400135,6.678171,-3.587764,-0.018850,0.595002,-0.054364,-47.307391,188.420781,1590.107250,915.279664,0
0.021875,-172.823228,135.647282,64.544129,4.126908,4.495668,-6.049615,0.994606,-4.348283,6.140994,-1.125734,-0.037115,0.584419,-0.020755,-54.477930,188.496056,1589.132239,915.834153,0
0.022917,-195.190639,52.723957,117.405872,5.156118,5.990335,-4.863009,-1.490486,-6.006046,4.974314,1.364759,-0.175929,0.588861,-0.031958,-52.034970,188.420830,1588.273912,915.764936,0
0.023959,-165.042273,-16.318409,168.802652,6.106158,6.217553,-2.977932,-3.453187,-6.171455,3.186522,3.221955,-0.154011,0.573575,-0.043161,-34.425301,188.420779,1587.778853,916.554757,0
0.025000,-115.248696,-83.210375,183.760038,6.388908,5.823472,-0.207860,-5.449470,-5.855340,0.395722,5.225023,-0.256295,0.571811,-0.020755,-15.537601,188.420808,1587.054854,917.229655,0
0.026042,-33.616720,-130.784975,184.178599,6.422838,4.431763,2.490777,-6.557687,-4.425474,-2.260785,6.253240,-0.256295,0.576384,-0.017021,10.792078,188.477709,1584.723211,918.264622,0
0.027084,41.379894,-168.199534,158.744887,5.970438,2.489760,4.820336,-6.632314,-2.561868,-4.694867,6.477385,-0.256295,0.602383,-0.035692,29.792878,188.285361,1584.207475,919.023581,0
0.028125,100.088676,-186.538347,86.653978,4.635858,-0.165848,6.320460,-5.341260,0.029536,-6.180496,5.253485,-0.245336,0.602383,-0.050629,46.271547,188.420245,1583.268268,919.225400,0
0.029167,146.774408,-185.475227,6.265720,3.063768,-2.285364,6.749067,-3.747965,2.242337,-6.759640,3.709380,-0.201500,0.604278,-0.009553,53.894487,188.420075,1583.040010,919.679353,0
0.030217,173.962382,-134.795835,-63.917046,1.717878,-4.465235,6.185528,-1.009139,4.308109,-6.197283,1.129941,-0.113828,0.596439,-0.020755,59.063157,188.495389,1582.898955,919.483388,0
0.031250,194.787213,-54.663198,-117.468182,0.733908,-5.920849,5.026702,1.401325,5.940142,-5.068372,-1.282279,-0.066339,0.593369,-0.043161,58.497657,188.420361,1583.547591,919.297397,0
0.032292,165.115232,14.874485,-169.714394,-0.306612,-6.144516,3.078127,3.319250,6.123929,-3.213434,-3.086107,-0.000585,0.599705,-0.020755,40.593928,188.420399,1584.110514,919.031095,0
0.033334,116.433219,82.938298,-183.711554,-0.589362,-5.704282,0.363616,5.270756,5.730624,-0.502371,-5.099849,0.021333,0.599901,-0.009553,19.478158,188.420323,1584.308626,918.485865,0
0.034375,34.642448,131.165267,-184.314773,-0.600672,-4.252218,-2.418361,6.360316,4.311784,2.246463,-6.124509,0.032292,0.595916,-0.065566,-5.392531,188.495776,1584.725770,918.798059,0
0.035417,-41.000687,168.181157,-158.560985,-0.148272,-2.345719,-4.704266,6.475989,2.389367,4.621791,-6.355769,0.014027,0.606826,-0.020755,-25.614811,188.495651,1584.993337,918.202776,0
0.036459,-100.276595,187.232742,-85.349811,1.299408,0.309890,-6.180579,5.199860,-0.224091,6.124207,-5.117638,-0.022503,0.602057,-0.058098,-39.333841,188.479560,1585.382974,918.155303,0
0.037500,-146.962327,185.529335,-4.629167,2.758398,2.411654,-6.625060,3.509549,-2.385432,6.699154,-3.559301,-0.026156,0.598595,-0.013287,-48.336600,188.439957,1585.494887,917.949256,0
0.038542,-173.617203,135.611040,64.150190,4.036428,4.485017,-6.053584,0.946098,-4.421798,6.090634,-1.079482,-0.102869,0.589253,-0.002084,-54.511860,188.497627,1586.347955,916.864971,0
0.039583,-195.088557,53.255517,117.208902,5.099568,5.976134,-4.859040,-1.538994,-6.039128,4.986904,1.418127,-0.150358,0.571223,-0.046895,-53.233830,188.495743,1587.314637,916.343922,0
0.040635,-164.497833,-17.973493,169.775190,6.140088,6.221103,-2.843000,-3.576322,-6.226591,3.069015,3.293112,-0.183235,0.583113,-0.046895,-35.284861,188.420235,1588.377635,915.870091,0
0.041668,-114.965133,-83.911067,183.415341,6.377598,5.752466,-0.152300,-5.427081,-5.825934,0.387328,5.257043,-0.216112,0.585138,-0.043161,-15.209611,188.495669,1588.369244,915.728640,0
0.042708,-32.834087,-130.990350,184.621781,6.411528,4.374958,2.593960,-6.565149,-4.359310,-2.344719,6.274587,-0.274560,0.543722,-0.024490,10.667668,188.495834,1589.154973,914.711811,0
0.043750,42.434746,-167.595489,158.597160,5.981748,2.432956,4.832241,-6.602463,-2.455272,-4.766210,6.459595,-0.289172,0.570113,-0.028224,28.933318,188.621939,1589.614121,913.249054,0
0.044792,100.100019,-187.565223,85.176705,4.613238,-0.233303,6.372052,-5.386036,0.106726,-6.172103,5.242812,-0.248989,0.595459,-0.024490,45.038757,188.478476,1589.849293,912.873027,0
0.045833,146.332051,-185.221528,4.911553,3.063768,-2.306665,6.757005,-3.721845,2.323204,-6.734459,3.645339,-0.183235,0.597223,-0.050629,52.921827,188.438656,1589.826628,911.710159,0
0.046875,173.270489,-135.544851,-63.658523,1.729188,-4.451034,6.185528,-1.046453,4.322812,-6.188889,1.169077,-0.143052,0.590037,-0.031958,59.549487,188.509973,1589.910290,911.648903,0
0.047917,194.583048,-53.201409,-117.271212,0.711288,-5.956351,4.987016,1.405057,5.958520,-5.026405,-1.289395,-0.077298,0.581414,-0.046895,57.875607,188.495278,1589.462079,911.461978,0
0.048958,164.979122,15.901362,-169.529735,-0.306612,-6.137416,3.094002,3.356563,6.145984,-3.192451,-3.111012,-0.044421,0.586901,-0.028224,40.265938,188.646035,1589.678338,911.549745,0
0.050000,115.616559,83.300725,-183.563826,-0.510192,-5.736234,0.379490,5.274487,5.760030,-0.468797,-5.099849,-0.011544,0.595132,-0.050629,18.041788,188.645958,1589.696044,911.719574,0
0.051042,34.653791,131.020296,-184.474811,-0.578052,-4.227366,-2.398518,6.427481,4.330163,2.254857,-6.156529,0.006721,0.588143,-0.046895,-5.132401,188.646049,1590.225392,911.934656,0
0.052091,-41.692580,167.939539,-158.093182,-0.170892,-2.320867,-4.692360,6.431212,2.348934,4.617595,-6.330864,0.046904,0.607283,-0.046895,-25.094551,188.645460,1589.682780,911.498388,0
0.053125,-100.117800,186.894477,-86.420834,1.276788,0.274387,-6.172642,5.211054,-0.194685,6.115814,-5.103406,0.006721,0.601012,-0.035692,-40.306501,188.646784,1589.544232,911.278762,0
0.054167,-147.416027,185.348121,-5.601705,2.758398,2.411654,-6.601249,3.558057,-2.396460,6.686564,-3.591322,-0.026156,0.600228,-0.020755,-47.488351,188.699669,1589.754013,911.364262,0
0.055208,-173.537806,136.529188,63.583902,4.002498,4.499218,-6.045647,0.961024,-4.385040,6.103224,-1.129292,-0.080951,0.591278,-0.035692,-54.613650,188.645102,1589.635736,911.765496,0
0.056250,-195.236009,54.826035,117.319697,5.088258,5.965483,-4.827292,-1.538994,-6.039128,5.003690,1.378990,-0.179582,0.592389,-0.039427,-52.136760,188.728557,1589.954448,911.928544,0
0.057292,-165.337178,-15.194885,169.135038,6.106158,6.182050,-2.910466,-3.494232,-6.189834,3.131965,3.186376,-0.175929,0.598725,-0.028224,-34.425301,188.650680,1589.115296,911.745849,0
0.058333,-115.963273,-82.956676,183.735417,6.400218,5.770218,-0.211829,-5.419619,-5.833286,0.395722,5.185886,-0.219765,0.593957,-0.020755,-15.345331,188.645589,1588.761034,911.489873,0
0.059375,-34.149817,-130.700408,184.301705,6.434148,4.343006,2.498714,-6.542761,-4.421798,-2.285965,6.196315,-0.241683,0.588535,-0.061832,11.097448,188.646583,1587.720479,911.881845,0
0.060417,41.527346,-168.066644,158.584849,5.959128,2.447157,4.816367,-6.598732,-2.547165,-4.699063,6.463153,-0.263601,0.583178,0.009119,29.962528,188.646578,1587.087055,913.070895,0
0.061458,100.224786,-186.840369,85.582955,4.579308,-0.212001,6.288712,-5.367380,0.088348,-6.138529,5.200118,-0.259948,0.590886,-0.031958,46.181067,188.648239,1586.201620,912.611993,0
0.062510,147.035286,-184.327541,3.163447,3.063768,-2.345719,6.701444,-3.665875,2.308501,-6.692492,3.609760,-0.175929,0.593107,-0.017021,53.566497,188.646623,1584.920551,912.879385,0
0.063542,172.680679,-135.327395,-64.335606,1.706568,-4.383578,6.133937,-1.068841,4.256648,-6.146922,1.197540,-0.139399,0.586379,-0.035692,58.655997,188.646533,1583.413576,913.138893,0
0.064584,194.696473,-52.259099,-117.283523,0.711288,-5.906648,4.987016,1.401325,5.951169,-5.009619,-1.310742,-0.095563,0.584092,-0.028224,58.418487,188.781839,1583.172086,913.030580,0
0.065625,164.514079,17.338989,-169.197349,-0.295302,-6.116114,3.066222,3.337906,6.061441,-3.188254,-3.082550,-0.066339,0.594349,-0.043161,40.345108,188.646989,1581.510709,913.040288,0
0.066667,114.618419,84.061822,-183.674622,-0.521502,-5.647477,0.339804,5.293144,5.701218,-0.393257,-5.092733,-0.029809,0.592389,-0.017021,19.195408,188.646661,1581.061296,912.168386,0
0.067708,32.748251,131.286076,-184.388637,-0.623292,-4.294821,-2.374707,6.423749,4.333839,2.305217,-6.099604,-0.000585,0.562078,-0.046895,-5.437771,188.667030,1580.342643,912.226163,0
0.068750,-42.305075,168.072429,-158.474811,-0.125652,-2.338618,-4.684423,6.472257,2.404070,4.646971,-6.337979,0.021333,0.592323,-0.013287,-25.580881,188.646864,1580.715588,913.039648,0
0.069792,-100.412705,187.377713,-85.374432,1.310718,0.309890,-6.200422,5.203591,-0.216740,6.124207,-5.096291,-0.018850,0.600816,-0.043161,-39.413011,188.646772,1580.755898,913.175785,0
0.070834,-146.985012,185.372283,-5.330871,2.803638,2.401003,-6.617123,3.554326,-2.425866,6.632007,-3.559301,-0.051727,0.599313,-0.035692,-48.483630,188.646672,1580.312342,912.254605,0
0.071875,-173.741971,135.756010,63.633144,4.059048,4.509869,-6.061521,0.942367,-4.410771,6.103224,-1.090155,-0.095563,0.592519,0.001650,-54.579720,188.646759,1580.499285,911.927107,0
0.072924,-194.702912,53.388407,118.316856,5.133498,5.976134,-4.815386,-1.542725,-6.072210,4.907166,1.428800,-0.146705,0.588404,-0.043161,-53.041560,188.646657,1580.314641,911.181229,0
0.073958,-165.087643,-14.904943,169.787501,6.151398,6.192701,-2.882686,-3.509157,-6.204537,3.106785,3.189934,-0.161317,0.593303,-0.061832,-35.850361,188.722061,1580.607964,911.062379,0
0.075000,-116.394288,-82.872109,183.366099,6.377598,5.787969,-0.215797,-5.464395,-5.818583,0.387328,5.164539,-0.252642,0.592781,0.001650,-15.752491,188.706306,1580.333220,910.668378,0
0.076042,-35.204670,-130.990350,184.277084,6.456768,4.382059,2.574117,-6.505447,-4.440177,-2.357309,6.274587,-0.311090,0.593891,-0.017021,10.170028,188.646456,1582.213782,910.424018,0
0.077083,40.722029,-167.825026,158.634091,5.947818,2.425855,4.804461,-6.550224,-2.506732,-4.686473,6.409786,-0.263601,0.600358,-0.035692,28.865458,188.646471,1581.740769,909.218552,0
0.078125,99.566921,-187.420253,86.001515,4.522758,-0.229753,6.284743,-5.289021,0.062617,-6.180496,5.228581,-0.256295,0.599575,-0.031958,45.061377,188.663476,1582.583502,909.558796,0
0.079167,146.536216,-185.004072,5.502462,3.018528,-2.310216,6.689539,-3.636024,2.279095,-6.688296,3.606202,-0.179582,0.597745,-0.028224,52.887897,188.646652,1582.977041,908.771132,0
0.080208,173.554052,-135.593174,-63.486174,1.717878,-4.447483,6.145843,-0.997945,4.289730,-6.138529,1.140615,-0.135746,0.589906,-0.039427,59.492937,188.646437,1583.916440,907.840960,0
0.081250,194.526335,-53.177247,-117.332766,0.677358,-5.864044,4.951299,1.382669,5.969548,-4.992832,-1.303626,-0.080951,0.574947,-0.031958,57.796437,188.646598,1584.235926,907.490601,0
0.082292,164.979122,16.469164,-169.258902,-0.295302,-6.094812,2.982881,3.356563,6.054090,-3.192451,-3.103897,-0.037115,0.589123,-0.039427,39.994498,188.721933,1584.739569,907.066335,0
0.083342,114.073979,85.366560,-183.046781,-0.611982,-5.587123,0.260433,5.308070,5.734300,-0.363880,-5.089175,0.010374,0.543656,-0.043161,16.910788,188.646373,1584.642138,907.566915,0
0.084375,32.793621,131.225671,-184.696402,-0.578052,-4.223816,-2.410424,6.386436,4.319136,2.271643,-6.067583,0.021333,0.567369,-0.046895,-5.912791,188.646388,1584.069134,907.534686,0
0.085417,-42.679378,168.108671,-158.191667,-0.148272,-2.299565,-4.692360,6.390167,2.407746,4.630185,-6.277496,0.021333,0.546988,-0.043161,-25.151101,188.779788,1583.171249,907.343225,0
0.086458,-100.480760,187.401875,-84.463447,1.310718,0.324091,-6.148830,5.203591,-0.213064,6.090634,-5.071386,-0.026156,0.597157,-0.020755,-40.182091,188.720867,1582.328457,907.323720,0
0.087500,-146.667422,185.553497,-4.099811,2.837568,2.397453,-6.557594,3.520744,-2.425866,6.627810,-3.516607,-0.033462,0.595002,-0.013287,-47.341321,188.647074,1582.001835,907.082003,0
0.088557,-174.604001,133.170697,65.319697,4.149528,4.566673,-6.009930,0.882665,-4.421798,6.044470,-0.997651,-0.088257,0.586248,-0.013287,-55.145220,188.663976,1581.089671,906.738576,0
0.089591,-194.884392,52.119912,118.058334,5.122188,5.986784,-4.763794,-1.561382,-6.024425,4.915560,1.432358,-0.146705,0.592715,-0.069301,-51.650430,188.646726,1580.246552,906.988688,0
0.090625,-164.996903,-16.342571,169.233523,6.128778,6.196251,-2.906497,-3.479306,-6.178806,3.136162,3.204166,-0.186888,0.601404,-0.031958,-34.447921,188.721985,1579.711049,907.460714,0
0.091667,-115.362121,-83.270779,183.673864,6.422838,5.805720,-0.215797,-5.393499,-5.781825,0.387328,5.189444,-0.219765,0.577103,-0.002084,-15.537601,188.646583,1579.477338,907.473894,0
0.092708,-33.922967,-130.821217,184.153978,6.445458,4.382059,2.522526,-6.520373,-4.403419,-2.306948,6.192757,-0.241683,0.570832,-0.050629,10.735528,188.646469,1577.589728,907.425088,0
0.093760,42.378034,-167.849188,157.944697,5.947818,2.401003,4.824304,-6.568881,-2.514084,-4.703260,6.445364,-0.274560,0.605127,0.012853,30.177418,188.646572,1577.582016,908.377999,0
0.094792,100.406266,-186.671237,86.481629,4.601928,-0.197800,6.256963,-5.382305,0.029536,-6.130136,5.267717,-0.208806,0.609047,-0.035692,46.350717,188.722050,1576.865105,909.184587,0
0.095833,146.899176,-185.306094,6.302652,3.063768,-2.246311,6.733193,-3.669606,2.249689,-6.726066,3.680917,-0.205153,0.606956,-0.061832,53.871867,188.722038,1577.408792,910.341876,0
0.096875,173.054982,-136.136815,-63.375379,1.785738,-4.404880,6.173623,-1.046453,4.256648,-6.176299,1.197540,-0.117481,0.592585,-0.031958,58.723857,188.630425,1577.201707,911.146979,0
0.097917,194.696473,-54.614875,-117.517425,0.677358,-5.895997,4.983048,1.397594,5.951169,-5.030602,-1.271606,-0.124787,0.590429,-0.024490,58.452417,188.646149,1577.413668,911.510988,0
0.098958,165.081204,15.019456,-169.751326,-0.340542,-6.109013,3.042410,3.334175,6.087172,-3.171467,-3.103897,-0.062686,0.597353,-0.031958,40.480828,188.663521,1578.162593,911.083981,0
0.100000,116.047574,83.276563,-183.662311,-0.589362,-5.704282,0.315993,5.285682,5.715921,-0.443617,-5.089175,-0.022503,0.591670,-0.017021,19.297198,188.724804,1578.594525,910.718674,0
0.101042,34.426941,131.346481,-184.400948,-0.578052,-4.234467,-2.442173,6.364047,4.315460,2.292627,-6.092488,0.017680,0.602122,-0.028224,-5.505631,188.646181,1579.403345,910.174403,0
0.102083,-41.647210,168.169076,-158.437879,-0.114342,-2.296015,-4.652674,6.420018,2.389367,4.655365,-6.302401,0.021333,0.589057,-0.028224,-25.682671,188.646074,1580.210059,909.681376,0
0.103134,-100.934460,188.742855,-82.567614,1.299408,0.373795,-6.192484,5.121501,-0.293930,6.136797,-5.046481,0.010374,0.595394,-0.020755,-39.469561,188.721514,1581.019426,909.460984,0
0.104167,-147.064410,185.420607,-4.346023,2.803638,2.408104,-6.589343,3.494624,-2.433217,6.615220,-3.505933,-0.055380,0.593499,-0.039427,-48.336600,188.646038,1581.004481,909.280747,0
0.105209,-173.707943,135.164046,64.421023,4.081668,4.527620,-6.001992,0.901322,-4.377689,6.040274,-1.058135,-0.117481,0.584354,0.012853,-54.500550,188.646096,1580.851407,909.174894,0
0.106250,-195.065872,52.687715,117.467425,5.122188,5.983234,-4.811417,-1.535263,-5.991343,4.936543,1.393222,-0.124787,0.562405,-0.020755,-53.199900,188.646138,1580.446563,909.335745,0
0.107292,-164.940190,-17.115749,169.467425,6.140088,6.174949,-2.910466,-3.479306,-6.182482,3.110982,3.214839,-0.168623,0.584615,-0.005818,-35.578921,188.705357,1580.498208,909.374558,0
0.108334,-114.760968,-84.164766,183.329167,6.388908,5.763117,-0.219766,-5.430813,-5.770798,0.387328,5.175213,-0.248989,0.565018,-0.024490,-15.232231,188.721449,1579.906613,909.671521,0
0.109375,-32.550525,-131.074916,184.535607,6.434148,4.371408,2.574117,-6.505447,-4.385040,-2.344719,6.199873,-0.267254,0.570244,-0.043161,10.599808,188.657825,1580.075271,909.695959,0
0.110417,42.820391,-167.619651,158.338637,5.993058,2.429406,4.812398,-6.572612,-2.499381,-4.732637,6.452480,-0.241683,0.591278,-0.020755,29.012488,188.646618,1580.517717,909.520957,0
