1-Time,2-VGERA,3-VGERB,4-VGERC,5-VN,6-IGERAN,7-IGERBN,8-IGERCN,9-IGERAT,10-IGERBT,11-IGERCT,12-IN,13-IFD,14-IFAULT,15-VFAULT,16-Speed (rad/s),17-Active Power,18-Reactive Power,19-FAULT 
0.000000,153.969884,-156.268768,2.301681,0.359306,-6.085602,3.184875,3.505290,6.580116,-3.021291,-3.640823,-0.061180,0.318614,-0.025873,103.324114,188.495568,1500.816450,-918.109866,0
0.001042,201.384371,-91.823897,-47.896875,-0.620253,-5.733333,0.703379,5.411291,6.253496,-0.553819,-5.510474,-0.126811,0.324815,-0.007290,139.936185,188.495645,1501.704724,-918.576807,0
0.002083,183.699988,-37.608931,-122.811931,-2.117740,-4.511399,-1.561447,6.219311,4.950815,1.685023,-6.188270,-0.108580,0.336390,0.007577,132.933507,188.420258,1501.748783,-918.769374,0
0.003125,137.178195,12.460047,-186.899848,-3.367522,-2.808763,-3.642306,6.401019,3.165799,3.712491,-6.367238,-0.112226,0.348792,-0.011006,105.226770,188.495680,1502.005677,-919.266041,0
0.004167,78.825381,68.342805,-200.096563,-3.603968,-0.155734,-5.367498,5.264378,0.454095,5.420741,-5.110650,-0.090349,0.341764,0.011294,63.086861,188.495622,1501.337757,-919.762285,0
0.005208,24.540539,146.235712,-175.538035,-3.176114,2.354185,-6.365002,3.772053,-2.090502,6.417219,-3.617976,-0.053887,0.327433,-0.018440,20.406553,188.495680,1501.384111,-919.982617,0
0.006250,-25.303431,185.898611,-119.239340,-2.005147,4.368726,-5.939836,1.301598,-4.107190,5.826234,-1.089569,-0.013779,0.304972,0.003860,-10.700198,188.571134,1500.799405,-919.977502,0
0.007292,-92.108590,196.105025,-54.240048,-0.800402,6.254835,-4.950508,-1.404691,-6.055516,4.937599,1.495955,0.055498,0.311448,0.018727,-54.314948,188.495577,1501.409735,-919.458303,0
0.008333,-153.873982,156.183736,-1.234456,0.224195,6.775900,-3.147642,-3.534926,-6.530254,2.957583,3.677849,0.066437,0.319372,0.011294,-102.342961,188.495544,1501.497390,-919.254225,0
0.009375,-201.491867,91.045910,48.271455,1.192494,6.317216,-0.649793,-5.448659,-6.116282,0.550504,5.505613,0.102898,0.326262,-0.040740,-139.259007,188.495671,1501.843779,-918.171300,0
0.010417,-183.558886,37.418194,123.113601,2.678722,5.109959,1.590504,-6.225750,-4.847782,-1.701280,6.229103,0.153945,0.336735,-0.007290,-131.153013,188.571000,1502.332397,-917.740782,0
0.011458,-137.172692,-12.239709,187.335186,3.917245,3.388976,3.679539,-6.438387,-3.104543,-3.737375,6.347146,0.106545,0.345761,-0.007290,-105.326417,188.495577,1502.540206,-917.804793,0
0.012500,-79.396174,-68.451327,200.203806,4.187468,0.743287,5.441524,-5.305612,-0.328274,-5.436997,5.162907,0.113837,0.341282,-0.014723,-62.038158,188.495615,1502.252986,-918.101116,0
0.013542,-24.783635,-146.825779,175.645277,3.692059,-1.755624,6.418588,-3.790091,2.189737,-6.433476,3.632154,0.088314,0.341213,-0.051890,-20.157191,188.495667,1502.265518,-918.563924,0
0.014583,25.388034,-186.089348,119.504554,2.622425,-3.718792,5.989334,-1.323502,4.198830,-5.898570,1.099940,0.022683,0.321163,-0.025873,10.746910,188.495678,1502.781894,-919.051121,0
0.015625,92.746889,-196.248782,54.590324,1.372643,-5.626918,5.049064,1.359590,6.173740,-4.975425,-1.519856,-0.017425,0.311448,-0.003573,55.251067,188.495609,1503.654426,-919.173836,0
0.016667,154.263682,-155.904672,1.426760,0.359306,-6.107619,3.205316,3.520755,6.656074,-3.021291,-3.648439,-0.083057,0.316202,-0.011006,102.119473,188.495674,1504.640620,-919.295677,0
0.017708,201.745968,-90.203086,-48.091302,-0.608994,-5.707647,0.695203,5.426755,6.249699,-0.562447,-5.563784,-0.104934,0.323919,-0.003573,140.510360,188.495658,1505.032872,-919.162984,0
0.018750,183.372290,-36.340469,-123.030661,-2.038925,-4.515068,-1.557358,6.250240,4.977400,1.702278,-6.249195,-0.115872,0.325228,-0.003573,131.424892,188.495725,1505.898429,-919.206414,0
0.019792,136.488900,12.671458,-187.191488,-3.390041,-2.834450,-3.638218,6.428082,3.222768,3.755629,-6.393893,-0.112226,0.353477,0.003860,105.204254,188.495674,1506.810597,-919.140534,0
0.020833,78.757581,68.648176,-200.072260,-3.525153,-0.130048,-5.387938,5.295307,0.457892,5.450937,-5.182999,-0.075764,0.346587,-0.014723,63.582228,188.495711,1507.941379,-919.310076,0
0.021875,25.082936,146.928668,-175.623096,-3.063521,2.365193,-6.393619,3.791384,-2.075311,6.451730,-3.640823,-0.042949,0.331843,-0.022156,20.339003,188.495698,1508.741849,-919.489497,0
0.022917,-24.851434,186.016062,-119.324401,-2.038925,4.346709,-5.968453,1.332527,-4.152765,5.856430,-1.120032,-0.006487,0.330809,-0.025873,-10.261124,188.495725,1509.369265,-920.018571,0
0.023958,-93.114283,195.870125,-54.543839,-0.822920,6.313546,-5.024095,-1.385360,-6.082101,4.954854,1.537841,0.070083,0.312689,-0.018440,-55.463297,188.495743,1509.826008,-920.565427,0
0.025000,-154.450278,155.244135,-1.307366,0.212935,6.797917,-3.155818,-3.577454,-6.522658,3.017975,3.685464,0.102898,0.317305,-0.029590,-102.962168,188.495607,1510.390502,-919.953185,0
0.026042,-202.158563,90.258994,48.514488,1.203754,6.394275,-0.633440,-5.518249,-6.135272,0.477170,5.593193,0.095606,0.320474,-0.003573,-139.000066,188.495731,1510.796497,-921.318996,0
0.027083,-182.959989,36.091008,123.344482,2.633685,5.139315,1.647737,-6.306939,-4.840186,-1.744417,6.290028,0.132068,0.313240,-0.007290,-132.143746,188.495664,1511.137045,-921.636669,0
0.028125,-136.087899,-13.308505,187.578219,3.894726,3.436680,3.753126,-6.426789,-3.134926,-3.767571,6.381416,0.132068,0.313102,-0.048173,-105.934366,188.495635,1511.986720,-921.221779,0
0.029167,-77.441287,-68.874147,200.106593,4.131172,0.721270,5.461965,-5.332675,-0.328274,-5.523272,5.200985,0.106545,0.328880,0.015011,-61.779217,188.495653,1512.974692,-921.159439,0
0.030208,-23.970040,-147.084170,175.839704,3.725837,-1.748286,6.475822,-3.809421,2.189737,-6.463672,3.666425,0.091960,0.312413,0.007577,-19.909508,188.495707,1513.864784,-920.950878,0
0.031250,25.376734,-185.948408,119.468099,2.622425,-3.740809,6.013863,-1.346699,4.263394,-5.877001,1.080900,0.029975,0.329018,-0.011006,10.915785,188.571009,1513.581687,-921.729306,0
0.032292,93.526583,-196.084352,55.173604,1.395162,-5.659944,5.102209,1.371188,6.166145,-4.979738,-1.516048,-0.028364,0.317374,-0.003573,55.926567,188.495674,1513.783798,-921.658183,0
0.033333,154.625280,-155.387892,1.827766,0.336788,-6.118628,3.172611,3.524621,6.633287,-2.995408,-3.656055,-0.057533,0.320199,-0.029590,103.785705,188.495714,1513.268448,-921.703274,0
0.034375,202.164066,-90.508456,-48.443700,-0.642772,-5.722325,0.670674,5.453818,6.226911,-0.514995,-5.537129,-0.115872,0.324126,-0.040740,140.217643,188.495669,1512.865105,-921.899042,0
0.035417,183.033292,-36.187784,-123.455970,-2.117740,-4.540754,-1.598240,6.246374,4.920432,1.736788,-6.249195,-0.108580,0.335219,-0.025873,132.764633,188.420294,1512.216879,-922.247493,0
0.036458,136.059502,13.340923,-187.556038,-3.401300,-2.812433,-3.630041,6.443546,3.226566,3.764256,-6.348199,-0.097641,0.333565,0.007577,104.821471,188.495582,1512.001540,-921.784296,0
0.037500,77.412890,69.106231,-199.926440,-3.603968,-0.063998,-5.367498,5.275976,0.416116,5.468192,-5.194423,-0.112226,0.311173,0.015011,62.377587,188.495747,1512.055647,-921.681955,0
0.038542,23.354047,146.928668,-175.428670,-3.164855,2.390880,-6.414060,3.737258,-2.098098,6.387023,-3.637016,-0.057533,0.323919,0.011294,20.091320,188.492086,1511.576710,-920.763076,0
0.039583,-25.631129,186.004317,-118.728969,-2.016406,4.350378,-5.943924,1.336393,-4.179350,5.808979,-1.108609,0.015390,0.305730,-0.022156,-10.688940,188.571000,1511.199100,-920.528938,0
0.040625,-93.408081,195.846635,-54.580294,-0.834180,6.269513,-4.999566,-1.396958,-6.028930,4.941913,1.526418,0.059144,0.315582,0.015011,-55.148064,188.495571,1510.848826,-919.893003,0
0.041667,-154.631077,155.596485,-1.513944,0.190417,6.783239,-3.102672,-3.546525,-6.503669,2.983465,3.647386,0.102898,0.320130,-0.003573,-103.108527,188.495669,1510.418917,-919.716951,0
0.042708,-202.102063,91.034165,48.842583,1.226272,6.331894,-0.641617,-5.440927,-6.142868,0.498739,5.574154,0.143006,0.327571,-0.037023,-139.360332,188.495693,1510.689528,-919.553656,0
0.043750,-183.129488,36.995374,123.879156,2.633685,5.076934,1.643649,-6.264412,-4.859175,-1.791869,6.278605,0.139360,0.334048,-0.003573,-130.939105,188.571152,1510.830758,-920.276871,0
0.044792,-136.155699,-13.014879,188.112893,3.917245,3.359621,3.712244,-6.430655,-3.100745,-3.802081,6.377608,0.113837,0.347621,0.011294,-104.763500,188.495573,1510.679203,-921.037337,0
0.045833,-77.599486,-69.203008,200.155199,4.108653,0.732278,5.453789,-5.274683,-0.316880,-5.471507,5.166715,0.110191,0.336666,-0.014723,-60.934843,188.495629,1510.051889,-920.654104,0
0.046875,-23.280745,-147.424775,175.608822,3.669540,-1.795989,6.455381,-3.766894,2.170748,-6.394652,3.628347,0.084667,0.317029,-0.022156,-19.234008,188.495620,1509.226327,-919.772361,0
0.047917,25.986930,-186.277268,118.398752,2.622425,-3.759157,5.968893,-1.319636,4.263394,-5.859746,1.096132,0.081021,0.318476,0.011294,11.050885,188.495600,1509.377185,-919.016190,0
0.048958,93.707382,-196.154822,53.946285,1.406421,-5.623249,5.069504,1.382787,6.181336,-4.979738,-1.535087,-0.013779,0.312620,-0.033307,55.904050,188.495560,1509.590625,-918.860250,0
0.050000,154.568780,-155.141247,1.232334,0.325528,-6.129636,3.225757,3.540085,6.606702,-3.008349,-3.663670,-0.075764,0.320268,0.000144,102.896297,188.571000,1509.530390,-918.438890,0
0.051042,202.277065,-90.543691,-48.723189,-0.631512,-5.759019,0.678850,5.438353,6.185134,-0.510681,-5.548552,-0.057533,0.329362,-0.018440,140.566651,188.495721,1509.225613,-918.495590,0
0.052083,182.920293,-36.974700,-124.112160,-2.128999,-4.540754,-1.553270,6.250240,4.954613,1.741102,-6.226348,-0.101287,0.338733,-0.011006,131.210984,188.495683,1509.539268,-918.482282,0
0.053125,136.601899,12.706693,-187.908436,-3.356263,-2.812433,-3.650482,6.435814,3.222768,3.755629,-6.348199,-0.137749,0.346105,-0.051890,104.911537,188.495696,1509.574886,-918.834643,0
0.054167,78.158685,69.399856,-199.792771,-3.615227,-0.097023,-5.424732,5.283708,0.427509,5.502702,-5.182999,-0.104934,0.346381,-0.022156,62.546462,188.570993,1509.782325,-919.285826,0
0.055208,23.794744,147.327998,-175.343608,-3.176114,2.376202,-6.409972,3.760455,-2.098098,6.438788,-3.644631,-0.053887,0.332325,-0.025873,19.145620,188.495644,1510.409313,-919.736920,0
0.056250,-25.857128,186.297942,-118.012021,-2.050184,4.434776,-5.976629,1.274535,-4.156563,5.869372,-1.051491,-0.010133,0.322059,0.029877,-10.779006,188.495606,1510.663423,-919.813007,0
0.057292,-93.927878,195.952340,-53.389431,-0.811661,6.328224,-4.975037,-1.431753,-6.089697,4.972109,1.583536,0.048206,0.309037,-0.018440,-56.093763,188.495629,1511.486816,-920.402156,0
0.058333,-154.698876,154.316279,-0.578265,0.212935,6.786908,-3.143554,-3.592918,-6.530254,3.009348,3.738774,0.132068,0.314893,-0.014723,-103.344951,188.495602,1512.010337,-920.726860,0
0.059375,-202.407161,89.483824,49.158527,1.215013,6.405283,-0.576207,-5.502785,-6.139070,0.485797,5.589385,0.132068,0.322748,-0.022156,-139.067616,188.495658,1512.111149,-920.368856,0
0.060417,-182.372393,36.067518,124.377375,2.723759,5.113629,1.651826,-6.264412,-4.840186,-1.757359,6.263373,0.128422,0.331085,0.000144,-132.019904,188.495693,1511.942137,-919.328418,0
0.061458,-136.155699,-13.108840,188.039983,3.917245,3.341273,3.720421,-6.461584,-3.112139,-3.771885,6.358569,0.128422,0.344589,-0.037023,-106.035691,188.495682,1511.790010,-918.793789,0
0.062500,-78.266181,-69.672808,199.705587,4.142431,0.673567,5.433348,-5.301746,-0.316880,-5.510331,5.166715,0.124775,0.344314,0.011294,-61.554050,188.495671,1512.042962,-919.256481,0
0.063542,-23.924840,-147.683165,175.669581,3.725837,-1.814336,6.434940,-3.739831,2.250504,-6.437790,3.613115,0.128422,0.333290,-0.018440,-19.042617,188.495613,1512.156208,-920.777993,0
0.064583,25.851331,-186.218543,118.252932,2.588648,-3.814199,5.952541,-1.311903,4.252000,-5.829549,1.031399,0.033621,0.328673,-0.011006,11.354860,188.571018,1511.195138,-921.078431,0
0.065625,94.407978,-196.049117,53.970589,1.372643,-5.670952,5.053152,1.456243,6.188932,-4.958170,-1.576973,-0.010133,0.311655,-0.033307,56.500742,188.495653,1511.043918,-921.487426,0
0.066667,154.907778,-154.342586,0.819177,0.336788,-6.100280,3.180787,3.563282,6.606702,-2.965212,-3.713172,-0.057533,0.315582,-0.029590,104.157230,188.495750,1510.711436,-921.889817,0
0.067708,202.491763,-89.251740,-49.039132,-0.665290,-5.700308,0.633881,5.469282,6.238305,-0.467544,-5.567591,-0.097641,0.319234,-0.003573,140.273935,188.495693,1511.236496,-922.034511,0
0.068750,182.208397,-35.130733,-124.112160,-2.106481,-4.438009,-1.610504,6.250240,4.939421,1.745416,-6.260619,-0.112226,0.314067,0.018727,132.528208,188.420367,1511.324153,-921.517493,0
0.069792,135.392807,13.845959,-188.017801,-3.345004,-2.746382,-3.687275,6.385554,3.177193,3.768570,-6.325352,-0.097641,0.318269,0.000144,104.832729,188.495698,1510.781770,-921.081660,0
0.070833,77.277291,69.740462,-199.501131,-3.547671,-0.060328,-5.355233,5.260512,0.389530,5.463878,-5.144921,-0.072118,0.343831,-0.007290,62.692820,188.495557,1509.888790,-920.575469,0
0.071875,23.783444,147.609879,-175.161333,-3.153596,2.379871,-6.385443,3.725659,-2.101896,6.391337,-3.591321,-0.050241,0.332118,-0.018440,20.215161,188.495693,1508.953203,-920.455424,0
0.072917,-25.891027,185.910356,-118.449481,-2.038925,4.372395,-5.878514,1.262937,-4.145169,5.800352,-1.028644,0.008098,0.326469,-0.011006,-10.925365,188.571031,1507.871915,-920.441847,0
0.073958,-94.549374,195.658715,-54.167138,-0.811661,6.262174,-5.003654,-1.420155,-6.085899,4.911717,1.587343,0.037267,0.314687,-0.003573,-55.643430,188.495651,1507.221912,-920.661130,0
0.075000,-154.913575,154.468964,-0.590417,0.235454,6.753883,-3.069967,-3.585186,-6.484679,2.970524,3.704503,0.110191,0.316754,-0.040740,-103.333693,188.495725,1506.513293,-920.265182,0
0.076042,-202.508860,89.601274,49.523077,1.215013,6.335563,-0.551678,-5.510517,-6.116282,0.451287,5.566538,0.113837,0.321370,-0.018440,-139.326557,188.495718,1506.088156,-920.272394,0
0.077083,-182.372393,35.362817,124.450285,2.689981,5.109959,1.684531,-6.206420,-4.768026,-1.817751,6.236718,0.146652,0.325917,0.003860,-130.657647,188.570964,1505.007180,-920.640529,0
0.078125,-135.172605,-13.942735,188.440988,3.951023,3.348612,3.753126,-6.430655,-3.085553,-3.784826,6.328106,0.102898,0.323781,-0.040740,-104.346942,188.495580,1504.639098,-920.250175,0
0.079167,-76.537293,-70.013413,199.790649,4.131172,0.625863,5.474229,-5.243754,-0.294093,-5.510331,5.151483,0.110191,0.327226,-0.033307,-60.518285,188.571064,1504.426171,-919.716735,0
0.080208,-22.659249,-148.023770,175.317182,3.703318,-1.792319,6.455381,-3.763028,2.204929,-6.442104,3.643578,0.070083,0.314135,-0.014723,-19.402883,188.495607,1505.096238,-918.470267,0
0.081250,26.393727,-186.300758,118.337994,2.577388,-3.766496,5.989334,-1.273242,4.263394,-5.812294,1.073285,0.008098,0.327295,-0.018440,10.972077,188.495611,1505.465337,-918.073629,0
0.082292,94.984274,-195.919922,54.553869,1.395162,-5.667283,5.065416,1.402117,6.200326,-4.949542,-1.538895,-0.028364,0.315238,0.007577,56.624583,188.495638,1505.733939,-917.872041,0
0.083333,155.348475,-154.647956,1.232334,0.336788,-6.081933,3.135818,3.540085,6.629489,-2.986781,-3.694133,-0.057533,0.320681,-0.003573,103.436697,188.570989,1506.305485,-917.888663,0
0.084375,202.695162,-90.120871,-49.330772,-0.654031,-5.696638,0.654321,5.473149,6.207922,-0.506368,-5.548552,-0.108580,0.326882,0.000144,140.634201,188.495734,1506.358555,-917.583070,0
0.085417,182.287497,-35.882414,-124.707592,-2.106481,-4.504060,-1.618680,6.269571,4.931825,1.749730,-6.249195,-0.093995,0.337906,0.003860,130.963301,188.495703,1506.345102,-917.819754,0
0.086458,135.415407,13.845959,-188.358048,-3.378782,-2.764730,-3.654570,6.424216,3.146810,3.768570,-6.325352,-0.090349,0.347621,-0.007290,104.269813,188.495667,1506.205789,-918.062824,0
0.087500,76.542796,70.151537,-199.695558,-3.637746,-0.067667,-5.379762,5.287574,0.366743,5.507016,-5.175384,-0.101287,0.318683,-0.014723,61.634538,188.570957,1506.860580,-918.371230,0
0.088542,22.416153,147.880014,-175.124878,-3.086040,2.434913,-6.418148,3.764321,-2.139875,6.473298,-3.598937,-0.068472,0.317029,-0.040740,18.447604,188.495729,1507.898348,-918.766717,0
0.089583,-26.410824,186.462372,-117.137100,-2.027666,4.445785,-5.923484,1.255205,-4.190744,5.847803,-1.043875,0.000805,0.302422,0.003860,-10.925365,188.495615,1508.928969,-918.656252,0
0.090625,-94.775372,195.811400,-53.413734,-0.777883,6.350241,-4.987301,-1.389226,-6.070707,4.985051,1.587343,0.037267,0.312206,-0.044457,-56.904362,188.495631,1509.849374,-918.104850,0
0.091667,-155.275172,153.822989,-0.809147,0.224195,6.724527,-3.139466,-3.589052,-6.537850,2.979152,3.712119,0.081021,0.320750,-0.025873,-104.054226,188.571053,1510.427876,-918.294704,0
0.092708,-202.802658,90.024094,49.826869,1.226272,6.335563,-0.588471,-5.541446,-6.158059,0.455601,5.593193,0.110191,0.327295,-0.051890,-139.168940,188.495638,1511.281829,-918.751630,0
0.093750,-182.044696,36.455103,125.337357,2.678722,5.080603,1.700883,-6.233483,-4.798409,-1.791869,6.290028,0.110191,0.336597,-0.033307,-131.839771,188.495653,1512.262316,-919.082545,0
0.094792,-135.895801,-13.590385,188.489594,3.905986,3.363290,3.740861,-6.415190,-3.081756,-3.849533,6.354761,0.153945,0.333014,0.000144,-105.596616,188.495734,1512.679062,-920.332690,0
0.095833,-77.034489,-70.483214,199.559767,4.142431,0.633202,5.461965,-5.274683,-0.267508,-5.488762,5.140060,0.110191,0.341902,0.018727,-60.428218,188.571058,1512.365805,-920.443915,0
0.096875,-22.444550,-148.246926,175.463002,3.714578,-1.803328,6.496262,-3.747563,2.250504,-6.446417,3.578845,0.062790,0.330534,-0.029590,-18.074401,188.495674,1511.778842,-921.235111,0
0.097917,26.766625,-186.559149,117.292950,2.577388,-3.748148,5.956629,-1.238447,4.312767,-5.855432,0.993320,0.051852,0.313446,-0.025873,11.760159,188.495729,1511.862221,-922.063617,0
0.098958,95.153773,-196.107842,53.107820,1.361384,-5.652605,5.032711,1.440779,6.185134,-4.966797,-1.550318,0.000805,0.313446,-0.011006,57.086174,188.495629,1512.156925,-921.468855,0
0.100000,155.145076,-153.614395,0.393868,0.336788,-6.078263,3.119465,3.598077,6.621893,-2.952270,-3.694133,-0.035656,0.317718,-0.022156,104.618821,188.495484,1511.665969,-920.995140,0
0.101042,202.808161,-88.981605,-49.719626,-0.654031,-5.722325,0.613440,5.484747,6.238305,-0.540878,-5.575207,-0.108580,0.329431,0.015011,140.397777,188.495595,1512.496618,-920.508278,0
0.102083,181.959799,-35.788454,-125.254417,-2.140259,-4.467365,-1.626857,6.199980,4.890048,1.749730,-6.218732,-0.112226,0.337630,-0.025873,132.426883,188.495577,1511.910691,-920.212327,0
0.103125,135.765704,13.622803,-188.528172,-3.378782,-2.746382,-3.646394,6.404885,3.146810,3.759942,-6.329160,-0.123164,0.342316,-0.022156,104.675113,188.495626,1512.013718,-920.345812,0
0.104167,77.729288,70.574357,-199.245946,-3.581449,-0.038311,-5.392027,5.233449,0.381934,5.459564,-5.148729,-0.068472,0.338457,-0.025873,61.938512,188.495700,1511.547894,-920.042247,0
0.105208,23.128049,148.314579,-175.076271,-3.131077,2.434913,-6.385443,3.748856,-2.120885,6.438788,-3.549435,-0.046595,0.333634,-0.033307,19.089329,188.495649,1510.799862,-920.063372,0
0.106250,-26.591623,186.239217,-117.222162,-2.038925,4.394412,-5.858074,1.239740,-4.194542,5.778783,-0.960103,0.015390,0.332256,-0.025873,-11.409473,188.571102,1509.339513,-920.557635,0
0.107292,-95.283869,195.752675,-52.842605,-0.811661,6.335563,-4.970949,-1.458816,-6.047920,4.877207,1.606383,0.055498,0.309933,-0.029590,-56.150055,188.495687,1508.115721,-920.392103,0
0.108333,-155.184773,153.470639,0.320958,0.235454,6.720858,-2.996381,-3.604516,-6.446700,2.914445,3.712119,0.117483,0.316202,-0.025873,-103.727735,188.571085,1506.762162,-919.740646,0
0.109375,-202.700959,88.379793,50.154964,1.260050,6.287860,-0.531237,-5.495052,-6.131474,0.446974,5.543691,0.124775,0.323850,0.011294,-139.236490,188.495626,1506.187526,-918.521017,0
0.110417,-181.954296,34.705097,125.118627,2.689981,5.029231,1.676354,-6.194821,-4.737642,-1.809124,6.221487,0.139360,0.329707,0.007577,-130.500030,188.495655,1504.980796,-917.652166,0
