1-Time,2-VGERA,3-VGERB,4-VGERC,5-VN,6-IGERAN,7-IGERBN,8-IGERCN,9-IGERAT,10-IGERBT,11-IGERCT,12-IN,13-IFD,14-IFAULT,15-VFAULT,16-Speed (rad/s),17-Active Power,18-Reactive Power,19-FAULT 
0.000000,-80.722124,-88.199788,193.177652,6.569868,2.347749,2.625709,-4.516627,-2.076669,-2.416062,4.364024,-0.245336,0.383218,-0.002084,-25.399921,188.422230,1187.908586,5.715042,0
0.001041,-16.455516,-142.563856,177.641667,6.264498,0.810479,3.574200,-3.815130,-0.576963,-3.440056,3.766305,-0.205153,0.381454,-0.043161,-11.273731,188.497079,1187.628947,4.705900,0
0.002083,46.121059,-183.542282,127.980682,5.359698,-0.989512,4.403634,-2.792734,1.143288,-4.212247,2.816360,-0.194194,0.391122,-0.031958,4.288828,188.495665,1188.510094,4.927595,0
0.003124,99.521551,-191.684812,52.627462,3.923328,-2.537434,4.336168,-1.184514,2.837809,-4.300378,1.311391,-0.186888,0.385896,-0.009553,17.510218,188.495535,1188.226981,4.104515,0
0.004166,156.914604,-162.207406,-11.990909,2.701848,-3.701925,3.780567,0.371467,3.889073,-3.738021,-0.232714,-0.128440,0.384002,-0.031958,28.910698,188.551598,1188.419583,3.567805,0
0.005208,178.238505,-107.166807,-71.537311,1.593468,-4.177662,2.494746,1.983419,4.484545,-2.554553,-1.819514,-0.080951,0.390535,-0.046895,40.096288,188.550483,1189.103035,2.747523,0
0.006249,184.374797,-29.172491,-128.646213,0.496398,-4.198964,1.077961,3.349101,4.433084,-1.031154,-3.132359,-0.051727,0.380409,-0.046895,46.169757,188.485556,1189.392466,2.630745,0
0.007291,152.207466,37.622827,-165.873485,-0.250062,-3.467606,-0.505504,3.916269,3.819234,0.458672,-3.754983,-0.022503,0.370872,-0.043161,45.479847,188.487970,1189.741198,3.241790,0
0.008333,80.091848,88.821698,-193.166099,-0.770322,-2.178855,-2.402487,4.446123,2.459206,2.393347,-4.189040,-0.037115,0.373746,-0.043161,30.584578,188.561370,1189.272824,3.343391,0
0.009374,15.553020,142.823339,-177.642425,-0.453642,-0.673537,-3.339073,3.703581,0.981555,3.358587,-3.658921,-0.062686,0.409413,-0.013287,18.460258,188.492197,1188.016655,4.818134,0
0.010416,-46.615225,183.668876,-127.599811,0.473778,1.122903,-4.156601,2.711036,-0.782805,4.193729,-2.627145,-0.102869,0.392560,-0.035692,1.382158,188.484772,1187.978992,5.161730,0
0.011460,-100.027060,192.028861,-51.938826,1.910148,2.702777,-4.184381,1.184906,-2.433217,4.286056,-1.143523,-0.113828,0.388248,-0.013287,-11.115391,188.479059,1187.141560,5.619516,0
0.012503,-157.567565,161.947410,12.888826,3.109008,3.792713,-3.600999,-0.434509,-3.506536,3.706912,0.386351,-0.132093,0.387726,-0.061832,-23.907001,188.555936,1186.543910,5.938053,0
0.013541,-178.834754,107.160511,71.758144,4.228698,4.293302,-2.299304,-2.035266,-4.043196,2.523445,1.941130,-0.161317,0.383349,-0.020755,-34.131241,188.549797,1186.062153,6.787620,0
0.014583,-184.369894,29.105790,128.780872,5.314458,4.332355,-0.890456,-3.371097,-4.013790,1.046209,3.232628,-0.197847,0.354671,-0.017021,-40.351741,188.486370,1184.542873,7.684031,0
0.015624,-152.474782,-37.423748,166.155872,6.049608,3.611648,0.625543,-3.938265,-3.421994,-0.456207,3.873041,-0.205153,0.385113,-0.054364,-40.724971,188.492528,1183.807137,7.783050,0
0.016666,-79.837409,-88.731348,192.956061,6.558558,2.333548,2.554274,-4.471851,-2.120778,-2.357309,4.353350,-0.256295,0.411569,-0.050629,-25.309441,188.567713,1183.458033,9.122930,0
0.017708,-15.582144,-142.877960,177.653978,6.287118,0.849532,3.522609,-3.815130,-0.643127,-3.410679,3.809000,-0.227071,0.402358,-0.017021,-12.042811,188.492026,1183.756682,10.554948,0
0.018750,46.733554,-183.421473,127.783713,5.371008,-0.943359,4.340137,-2.800197,1.161667,-4.178673,2.802129,-0.186888,0.392429,-0.002084,2.965558,188.496047,1183.290544,10.513156,0
0.019791,99.759744,-191.938511,52.565909,3.934638,-2.516132,4.367917,-1.281529,2.760618,-4.308771,1.339854,-0.157664,0.390273,-0.028224,16.277428,188.495633,1183.067188,11.591392,0
0.020833,157.209509,-161.808736,-11.978599,2.701848,-3.673523,3.820252,0.337885,3.848640,-3.738021,-0.211367,-0.124787,0.387660,-0.028224,28.322578,188.571129,1182.635439,12.161755,0
0.021875,178.408642,-107.130565,-71.685038,1.570848,-4.124408,2.542369,1.946105,4.440436,-2.512586,-1.780378,-0.062686,0.387399,0.001650,37.913458,188.495656,1181.726151,12.289443,0
0.022916,184.068550,-29.317462,-129.015531,0.485088,-4.198964,1.085898,3.300593,4.462490,-1.056334,-3.096781,-0.037115,0.376163,-0.046895,44.869107,188.495736,1181.813007,12.985206,0
0.023958,152.332233,37.224157,-166.230493,-0.216132,-3.460506,-0.493598,3.934926,3.815558,0.462869,-3.737193,-0.033462,0.399876,-0.009553,42.075538,188.495694,1181.695888,12.886482,0
0.025000,79.910368,89.075397,-193.018372,-0.770322,-2.182406,-2.442173,4.423735,2.499640,2.380757,-4.221060,-0.018850,0.402946,-0.039427,29.826808,188.571109,1182.187059,13.525390,0
0.026041,15.881952,143.415304,-177.310038,-0.431022,-0.716141,-3.378759,3.759551,1.003609,3.379570,-3.694499,-0.062686,0.403926,-0.024490,17.046508,188.495702,1182.858676,13.850268,0
0.027083,-46.445088,183.995060,-127.722917,0.462468,1.147755,-4.200255,2.767007,-0.793833,4.227302,-2.655608,-0.048074,0.398047,-0.020755,0.692248,188.495812,1183.592284,13.836395,0
0.028125,-100.299280,191.714758,-52.837500,1.876218,2.731179,-4.212161,1.162518,-2.440569,4.336416,-1.154197,-0.099216,0.392037,-0.024490,-11.432071,188.495589,1184.295925,13.836053,0
0.029166,-158.157375,162.176948,11.903977,3.109008,3.806914,-3.597031,-0.423314,-3.535942,3.736289,0.375678,-0.146705,0.392102,-0.020755,-25.705291,188.420376,1185.041171,13.773723,0
0.030208,-178.755356,107.679990,71.782765,4.240008,4.339455,-2.319147,-2.080043,-4.076277,2.498265,1.966035,-0.157664,0.391318,-0.024490,-33.848491,188.495584,1185.430233,13.113526,0
0.031249,-184.778224,30.410528,129.482576,5.371008,4.399810,-0.898394,-3.423336,-4.094656,1.033619,3.261091,-0.175929,0.394389,-0.091706,-39.627901,188.495801,1186.860412,12.738671,0
0.032291,-152.508810,-36.674732,166.488258,6.038298,3.640051,0.665228,-4.024086,-3.477130,-0.485584,3.951314,-0.205153,0.402097,-0.017021,-40.747591,188.495725,1188.323683,12.289005,0
0.033333,-80.540644,-88.501811,193.411554,6.547248,2.326448,2.613803,-4.512896,-2.142833,-2.386686,4.396044,-0.208806,0.398831,0.009119,-25.399921,188.495716,1189.314750,12.009716,0
0.034374,-16.784449,-143.167901,176.952273,6.230568,0.821130,3.530546,-3.852443,-0.628424,-3.419072,3.816115,-0.212459,0.401052,-0.046895,-11.545171,188.492397,1189.403405,11.625946,0
0.035416,46.041661,-184.158409,127.857576,5.325768,-1.000163,4.431414,-2.781540,1.154315,-4.287787,2.834150,-0.175929,0.397198,-0.031958,4.062628,188.495522,1191.037124,11.544801,0
0.036458,100.202101,-191.165333,53.156818,3.923328,-2.544534,4.375854,-1.214365,2.819430,-4.354935,1.311391,-0.143052,0.389881,-0.046895,17.476288,188.495559,1191.769307,10.779213,0
0.037500,157.980799,-162.050354,-11.843182,2.679228,-3.694824,3.816284,0.349079,3.874370,-3.779988,-0.243388,-0.117481,0.393213,-0.046895,29.272618,188.495524,1192.682023,10.566925,0
0.038541,178.136422,-107.492992,-71.931250,1.582158,-4.191863,2.546337,2.031927,4.458814,-2.504193,-1.801725,-0.044421,0.389555,-0.035692,40.198078,188.495555,1192.949567,10.200958,0
0.039583,184.442852,-30.151044,-129.520266,0.496398,-4.195413,1.093835,3.293130,4.447787,-1.060531,-3.096781,-0.080951,0.393931,-0.013287,46.214997,188.495436,1193.054813,10.048749,0
0.040624,152.309548,36.922135,-166.328978,-0.250062,-3.442755,-0.481692,3.949851,3.815558,0.471262,-3.740751,-0.084604,0.402489,-0.039427,45.264957,188.495577,1193.117161,9.868377,0
0.041666,80.636288,88.894184,-193.375379,-0.747702,-2.210808,-2.410424,4.457317,2.481261,2.380757,-4.174808,-0.022503,0.403012,-0.031958,30.561958,188.495546,1192.651963,9.450145,0
0.042708,16.585188,143.463627,-176.977652,-0.453642,-0.677088,-3.382727,3.707312,0.996258,3.392160,-3.655363,-0.051727,0.403012,-0.054364,18.562048,188.495611,1192.314167,8.950738,0
0.043750,-46.274950,184.285002,-127.402841,0.451158,1.122903,-4.180412,2.711036,-0.771778,4.206319,-2.637819,-0.091910,0.394193,-0.054364,1.416088,188.495598,1191.882782,9.134032,0
0.044791,-100.752980,191.497302,-52.418940,1.887528,2.709878,-4.156601,1.155055,-2.451596,4.273466,-1.147081,-0.121134,0.391514,-0.050629,-11.160631,188.495550,1191.187472,9.049148,0
0.045833,-158.248115,161.983653,12.371780,3.097698,3.835316,-3.624811,-0.430777,-3.506536,3.698519,0.372120,-0.139399,0.388967,-0.031958,-23.997481,188.570944,1190.509219,9.186178,0
0.046875,-178.800726,107.365886,72.213637,4.217388,4.293302,-2.354864,-2.087505,-4.076277,2.548625,1.944688,-0.175929,0.387268,-0.050629,-34.210411,188.495551,1190.757735,10.059569,0
0.047916,-184.664799,29.818563,129.568750,5.314458,4.325254,-0.854739,-3.408410,-4.079953,1.029422,3.246860,-0.223418,0.390665,-0.043161,-40.442221,188.495513,1190.411908,10.258249,0
0.048958,-152.463440,-37.254616,166.463637,6.060918,3.593897,0.689040,-3.945728,-3.433021,-0.435223,3.905062,-0.197847,0.396740,-0.043161,-40.577941,188.495553,1189.419774,10.877735,0
0.050000,-80.177684,-88.864238,193.510038,6.569868,2.340649,2.633646,-4.512896,-2.098724,-2.374096,4.353350,-0.234377,0.402685,-0.028224,-25.173721,188.495522,1188.619637,10.715516,0
0.051041,-16.081214,-143.349115,177.026137,6.241878,0.821130,3.538483,-3.800204,-0.610045,-3.381302,3.794768,-0.201500,0.400333,-0.024490,-11.895781,188.495575,1188.033181,10.869916,0
0.052083,46.631471,-184.218813,127.180493,5.291838,-0.985962,4.359980,-2.789003,1.150639,-4.166083,2.805687,-0.197847,0.393539,-0.031958,3.078658,188.495531,1186.354102,11.277934,0
0.053125,100.247471,-191.479436,52.098106,3.900708,-2.555185,4.344106,-1.221828,2.808403,-4.279394,1.282928,-0.113828,0.389228,-0.017021,16.379218,188.495615,1185.301947,11.180233,0
0.054166,158.014826,-161.700008,-12.926515,2.701848,-3.677073,3.820252,0.386393,3.892749,-3.721234,-0.232714,-0.110175,0.387791,-0.031958,28.277338,188.571024,1184.848100,11.168804,0
0.055208,178.283875,-106.466115,-72.386743,1.559538,-4.159911,2.486808,1.983419,4.480869,-2.541963,-1.780378,-0.095563,0.386746,-0.028224,37.970008,188.495622,1185.175277,12.053394,0
0.056249,184.295400,-28.653012,-129.532576,0.473778,-4.252218,1.018432,3.345369,4.433084,-1.018564,-3.139475,-0.088257,0.397328,-0.058098,44.993517,188.495468,1185.132134,11.600695,0
0.057291,151.765108,38.214792,-166.353599,-0.250062,-3.464056,-0.517410,3.916269,3.775125,0.483852,-3.783445,-0.015197,0.407323,-0.054364,41.951128,188.495541,1185.190223,11.437698,0
0.058333,78.628665,89.510310,-193.843182,-0.759012,-2.196607,-2.489796,4.457317,2.440828,2.435314,-4.249523,-0.026156,0.388313,-0.065566,29.589298,188.495548,1186.079102,11.135235,0
0.059374,15.087977,143.777731,-176.817614,-0.453642,-0.634484,-3.398601,3.740894,0.930094,3.396357,-3.662479,-0.018850,0.412941,-0.043161,16.605418,188.495495,1186.060671,10.868854,0
0.060416,-47.205035,184.744076,-126.602652,0.507708,1.165507,-4.228035,2.699842,-0.826914,4.239892,-2.655608,-0.084604,0.389293,-0.046895,0.262468,188.495521,1186.787881,10.766202,0
0.061458,-100.684925,191.557706,-51.249432,1.887528,2.752481,-4.152632,1.125204,-2.477326,4.294449,-1.107945,-0.106522,0.388509,-0.046895,-11.590411,188.495678,1186.961393,10.424526,0
0.062500,-158.418253,162.092381,13.615152,3.131628,3.838866,-3.632748,-0.497942,-3.557997,3.744683,0.429045,-0.150358,0.384590,-0.046895,-25.660051,188.495531,1188.040019,10.096772,0
0.063541,-178.301656,106.012825,72.632197,4.228698,4.318154,-2.295335,-2.117356,-4.105683,2.540232,2.019403,-0.168623,0.387530,-0.046895,-33.746701,188.495627,1188.374912,9.559062,0
0.064583,-184.937019,28.405097,129.704167,5.314458,4.378508,-0.866645,-3.453187,-4.087305,1.025226,3.342922,-0.208806,0.377796,-0.039427,-39.774931,188.495693,1189.268707,9.157002,0
0.065624,-151.408587,-38.366059,166.512879,6.015678,3.593897,0.708883,-4.020355,-3.421994,-0.540141,3.954871,-0.230724,0.399615,-0.058098,-40.611871,188.495575,1189.743556,8.150098,0
0.066666,-78.272144,-89.069613,194.371781,6.603798,2.326448,2.673332,-4.527821,-2.091372,-2.458029,4.424507,-0.212459,0.405951,-0.046895,-24.992761,188.570993,1191.028521,7.761191,0
0.067708,-14.799511,-143.590733,176.459849,6.264498,0.803378,3.598012,-3.826324,-0.580639,-3.456842,3.784095,-0.216112,0.404710,-0.017021,-11.081461,188.496521,1191.458848,7.327972,0
0.068749,47.266651,-185.016153,126.540341,5.303148,-1.025015,4.435383,-2.789003,1.264588,-4.258411,2.823476,-0.172276,0.358264,-0.076769,4.582888,188.495459,1193.132580,6.348849,0
0.069791,100.417609,-191.032443,51.408712,3.957258,-2.604889,4.363948,-1.199439,2.874566,-4.291984,1.282928,-0.168623,0.388117,-0.043161,17.487598,188.495490,1193.590442,6.010147,0
0.070833,157.980799,-161.953707,-13.591288,2.645298,-3.755179,3.816284,0.427438,3.936858,-3.738021,-0.282524,-0.128440,0.388771,-0.028224,29.351788,188.495325,1194.280774,5.425450,0
0.071874,177.864202,-105.451319,-72.694508,1.570848,-4.188313,2.486808,2.046852,4.510275,-2.499996,-1.815956,-0.102869,0.385309,-0.043161,40.152838,188.495351,1194.265679,4.887426,0
0.072916,184.522250,-28.024805,-129.667993,0.439848,-4.262869,1.034307,3.352832,4.488220,-1.026957,-3.150149,-0.066339,0.371917,-0.028224,46.362027,188.495432,1195.028895,5.239769,0
0.073958,151.141271,38.553057,-166.242804,-0.250062,-3.446305,-0.497567,3.964777,3.811882,0.504836,-3.815466,-0.029809,0.395042,-0.046895,45.208407,188.495432,1195.596131,5.312174,0
0.075000,78.061540,89.498229,-194.274054,-0.781632,-2.193057,-2.493764,4.446123,2.437152,2.426921,-4.281544,-0.011544,0.412288,-0.039427,30.414928,188.495197,1195.922718,5.494951,0
0.076041,14.781730,143.898540,-176.399054,-0.431022,-0.655786,-3.406539,3.737163,0.937446,3.421537,-3.644689,-0.055380,0.405821,-0.046895,18.460258,188.495531,1195.902098,5.476976,0
0.077083,-47.216378,185.203151,-126.565720,0.462468,1.204560,-4.200255,2.744619,-0.837942,4.248286,-2.659166,-0.059033,0.384786,-0.054364,1.280368,188.495427,1196.174558,5.405673,0
0.078124,-100.945803,191.328169,-51.520265,1.932768,2.720529,-4.152632,1.125204,-2.488353,4.298646,-1.132850,-0.106522,0.389881,-0.017021,-11.149321,188.495332,1196.400581,5.585959,0
0.079166,-158.713158,161.935329,13.430492,3.142938,3.856618,-3.624811,-0.456897,-3.521239,3.690126,0.453950,-0.121134,0.387660,-0.035692,-24.167131,188.568305,1195.543726,5.178141,0
0.080208,-178.483136,106.218200,72.730682,4.240008,4.343006,-2.287398,-2.094968,-4.090980,2.502461,1.998056,-0.190541,0.387987,-0.039427,-34.266961,188.495369,1195.116695,5.047833,0
0.081249,-184.789566,28.924576,130.048864,5.314458,4.378508,-0.838865,-3.423336,-4.083629,1.008439,3.307343,-0.194194,0.384590,-0.031958,-40.532701,188.495240,1194.794213,5.055082,0
0.082291,-151.624095,-37.834499,166.672917,6.038298,3.579696,0.740631,-4.042743,-3.433021,-0.468797,3.922851,-0.230724,0.396218,-0.039427,-40.442221,188.495369,1194.465617,5.911769,0
0.083333,-78.635104,-89.226665,194.236364,6.615108,2.340649,2.621740,-4.512896,-2.106075,-2.428653,4.396044,-0.208806,0.404383,-0.043161,-25.038001,188.495450,1194.073961,6.285179,0
0.084374,-15.650199,-143.977322,176.373675,6.241878,0.828230,3.546420,-3.796473,-0.606369,-3.414875,3.776979,-0.205153,0.400595,-0.035692,-12.031501,188.428145,1193.736287,6.660842,0
0.085416,46.790266,-185.100719,126.725000,5.325768,-1.021465,4.367917,-2.774077,1.213127,-4.258411,2.795013,-0.161317,0.392756,-0.009553,2.954248,188.495351,1193.381555,6.822313,0
0.086458,100.814596,-190.923715,52.073485,3.957258,-2.562285,4.324263,-1.199439,2.801051,-4.317164,1.272255,-0.128440,0.390730,-0.046895,16.435768,188.495296,1193.202679,7.343398,0
0.087499,158.797459,-161.736251,-12.975758,2.690538,-3.726777,3.808347,0.419975,3.922155,-3.767398,-0.239830,-0.143052,0.387007,-0.043161,28.401748,188.495186,1193.451867,8.091569,0
0.088541,178.102395,-106.079526,-72.731440,1.570848,-4.152810,2.411405,2.061778,4.458814,-2.504193,-1.815956,-0.088257,0.390404,-0.039427,38.128348,188.495363,1193.069538,8.085366,0
0.089583,184.431510,-29.172491,-130.246591,0.462468,-4.227366,1.006527,3.337906,4.455139,-1.047941,-3.178611,-0.066339,0.391057,-0.028224,45.038757,188.495394,1193.168524,7.801882,0
0.090624,151.379463,37.695313,-166.821402,-0.238752,-3.442755,-0.525347,3.957314,3.782476,0.517426,-3.794119,-0.040768,0.402685,-0.043161,41.838028,188.495229,1192.860714,7.314454,0
0.091666,78.674035,89.437825,-194.286364,-0.781632,-2.161104,-2.509639,4.446123,2.437152,2.431118,-4.285102,0.021333,0.399027,-0.039427,29.679778,188.495267,1193.011216,7.117649,0
0.092708,15.859267,144.381776,-175.955872,-0.408402,-0.613183,-3.406539,3.744626,0.941122,3.450914,-3.623342,-0.048074,0.400987,-0.073035,16.820308,188.495347,1193.122372,6.697881,0
0.093752,-46.842075,185.710549,-126.221023,0.485088,1.193909,-4.291533,2.699842,-0.885726,4.244089,-2.602240,-0.102869,0.394977,-0.013287,0.477358,188.500673,1192.824687,5.701070,0
0.094794,-101.546955,190.687881,-51.397159,1.898838,2.805735,-4.156601,1.106547,-2.484678,4.277663,-1.107945,-0.113828,0.390469,-0.043161,-11.613031,188.495365,1192.374395,5.611880,0
0.095833,-159.529818,162.116543,13.418182,3.176868,3.938274,-3.616874,-0.520330,-3.569024,3.740486,0.464624,-0.117481,0.388640,-0.058098,-25.874941,188.495195,1193.579614,5.623515,0
0.096874,-178.381054,106.121553,72.866099,4.273938,4.346556,-2.247712,-2.173327,-4.105683,2.431118,2.030076,-0.143052,0.386942,0.001650,-33.871111,188.495332,1193.398490,4.634352,0
0.097916,-185.118499,29.431974,130.590531,5.371008,4.396260,-0.791242,-3.483038,-4.138765,0.991652,3.378500,-0.197847,0.391776,-0.009553,-39.910651,188.495356,1194.797790,3.988941,0
0.098958,-151.204422,-37.520396,167.066857,6.060918,3.590347,0.816035,-4.094982,-3.414642,-0.548534,3.969103,-0.190541,0.401182,-0.028224,-40.521391,188.495351,1195.288671,2.776796,0
0.099999,-78.476309,-89.130018,194.876516,6.603798,2.273193,2.720955,-4.576329,-2.076669,-2.520980,4.431623,-0.238030,0.399353,-0.017021,-24.811801,188.570707,1196.243288,1.596281,0
0.101041,-15.808994,-144.291425,175.671970,6.219258,0.732373,3.641666,-3.789010,-0.532854,-3.490416,3.798326,-0.219765,0.397067,-0.035692,-11.160631,188.495379,1196.996486,0.458415,0
0.102083,46.552074,-185.753088,126.343372,5.314458,-1.092470,4.451257,-2.729301,1.271939,-4.296181,2.777224,-0.190541,0.393409,-0.009553,4.492408,188.495398,1197.557425,-0.379589,0
0.103124,101.075474,-190.343831,51.384091,3.923328,-2.658143,4.359980,-1.117349,2.914999,-4.333951,1.258024,-0.157664,0.387530,-0.069301,17.408428,188.495341,1198.321420,-1.267599,0
0.104169,159.330556,-161.929545,-14.489962,2.667918,-3.801333,3.788504,0.453558,3.988318,-3.738021,-0.296756,-0.143052,0.387595,0.009119,29.691088,188.570783,1198.923482,-2.036533,0
0.105208,177.796147,-105.354672,-72.989962,1.559538,-4.227366,2.403468,2.069241,4.517626,-2.466423,-1.879997,-0.088257,0.386680,-0.031958,40.118908,188.495354,1199.481962,-2.943530,0
0.106249,184.817155,-28.363070,-130.283523,0.473778,-4.269969,0.998589,3.390146,4.499248,-0.984990,-3.192843,-0.069992,0.391514,-0.028224,46.463817,188.494605,1199.989855,-3.441788,0
0.107291,150.653543,38.492652,-166.599811,-0.261372,-3.435654,-0.576938,4.020747,3.745719,0.567786,-3.829697,-0.066339,0.401444,-0.039427,45.016137,188.495848,1199.967035,-4.099993,0
0.108333,77.585155,89.582795,-194.877273,-0.792942,-2.118501,-2.553293,4.468512,2.418773,2.489871,-4.270870,-0.040768,0.397328,-0.039427,30.233968,188.515202,1200.087902,-4.589049,0
0.109374,14.827100,144.381776,-175.709660,-0.442332,-0.598982,-3.426382,3.711043,0.915391,3.467701,-3.634016,-0.037115,0.399549,-0.039427,18.132268,188.441107,1200.224211,-4.626295,0
0.110416,-47.148323,186.012571,-125.728599,0.485088,1.254264,-4.255816,2.677454,-0.922484,4.311236,-2.630703,-0.026156,0.393539,-0.020755,0.986308,188.505685,1201.339742,-4.753422,0
0.111458,-101.388160,190.772447,-50.584659,1.944078,2.766682,-4.176444,1.072965,-2.514084,4.281859,-1.097271,-0.113828,0.385570,-0.050629,-11.160631,188.503539,1201.485059,-4.958881,0
