1-Time,2-VGERA,3-VGERB,4-VGERC,5-VN,6-IGERAN,7-IGERBN,8-IGERCN,9-IGERAT,10-IGERBT,11-IGERCT,12-IN,13-IFD,14-IFAULT,15-VFAULT,16-Speed (rad/s),17-Active Power,18-Reactive Power,19-FAULT 
0.000000,-168.842011,165.173012,19.770455,3.233418,3.632950,-6.422662,2.211033,-3.484482,6.531287,-2.257129,-0.029809,0.609373,-0.061832,-147.072898,188.505204,1636.588960,878.661138,0
0.001042,-184.766881,114.384891,89.928599,4.556688,5.408089,-5.438454,-0.352418,-5.351763,5.675161,0.276058,-0.124787,0.595198,-0.020755,-171.513808,188.511075,1636.909920,878.103127,0
0.002083,-187.318944,25.445276,141.830114,5.529348,6.373765,-3.878800,-2.774077,-6.322161,4.088811,2.499712,-0.150358,0.608916,-0.020755,-184.203628,188.282396,1637.008548,878.585834,0
0.003125,-159.336995,-51.715458,173.431440,6.185328,6.448321,-1.799262,-4.591255,-6.487569,2.032432,4.445854,-0.175929,0.587751,-0.020755,-162.352708,188.503926,1637.094172,878.363228,0
0.004167,-84.680657,-108.930619,194.100948,6.626418,5.418740,1.093835,-6.233057,-5.403223,-0.779352,5.950823,-0.216112,0.588469,-0.039427,-96.856499,188.435964,1636.393827,878.586162,0
0.005208,-8.345629,-155.526666,183.181440,6.377598,3.867268,3.177342,-6.464402,-3.903517,-2.944846,6.352860,-0.252642,0.618061,0.001650,-29.833441,188.506992,1636.515171,879.382182,0
0.006250,61.705654,-187.504819,135.243940,5.427558,1.346571,5.252911,-5.837532,-1.440765,-4.929881,5.687543,-0.230724,0.613489,-0.005818,34.916308,188.348398,1635.468245,879.931269,0
0.007292,116.818864,-199.597804,51.199432,3.844158,-1.206079,6.348240,-4.356178,1.209451,-6.264430,4.346235,-0.186888,0.606238,-0.035692,96.521876,188.495320,1635.833818,880.438683,0
0.008333,168.041597,-164.804800,-21.002273,2.532198,-3.456956,6.598261,-2.359895,3.367117,-6.482658,2.428555,-0.164970,0.603886,-0.031958,151.850395,188.419920,1635.701519,881.150835,0
0.009375,184.136605,-113.279745,-89.966288,1.231548,-5.278248,5.661675,0.203556,5.278507,-5.655909,-0.054822,-0.095563,0.596635,-0.031958,176.506195,188.495314,1636.016171,882.021195,0
0.010423,186.847462,-24.980417,-142.507955,0.247578,-6.268776,4.102022,2.677454,6.234202,-4.090543,-2.406559,-0.048074,0.602188,-0.046895,187.488204,188.344451,1636.628761,882.495094,0
0.011472,158.854171,52.156155,-173.629167,-0.374472,-6.307829,1.923269,4.539408,6.377556,-1.992197,-4.313565,0.017680,0.620217,-0.005818,165.840865,188.495224,1636.498421,882.589935,0
0.012502,84.844356,109.190103,-194.384849,-0.804252,-5.281799,-0.878551,6.091657,5.329967,0.861555,-5.779397,0.024986,0.601338,-0.028224,101.362556,188.419565,1636.621495,881.946761,0
0.013542,7.284337,155.508289,-183.182198,-0.578052,-3.648671,-3.021586,6.337928,3.731016,3.001868,-6.160087,0.043251,0.597811,-0.024490,32.733478,188.495251,1636.917646,881.618389,0
0.014584,-62.800973,187.981758,-134.493750,0.326748,-1.152825,-5.025721,5.714789,1.253560,4.970117,-5.533906,0.024986,0.618584,-0.031958,-29.505451,188.344290,1636.828741,881.075782,0
0.015625,-117.086181,199.639831,-50.978599,1.932768,1.378523,-6.184547,4.263286,-1.348871,6.266895,-4.160577,0.006721,0.604082,-0.009553,-92.332500,188.495115,1636.241506,880.550516,0
0.016667,-168.853353,165.100526,20.041288,3.233418,3.661352,-6.458380,2.222227,-3.524915,6.497713,-2.253571,-0.033462,0.602775,-0.028224,-148.034248,188.438095,1636.271635,880.153616,0
0.017709,-184.540031,114.578186,89.903978,4.545378,5.425841,-5.454328,-0.359881,-5.377493,5.662571,0.265384,-0.099216,0.597353,-0.017021,-171.027478,188.441623,1636.430605,880.013976,0
0.018750,-187.398341,25.819784,141.940910,5.551968,6.409268,-3.890706,-2.770346,-6.237618,4.084615,2.553080,-0.157664,0.556133,-0.046895,-183.785158,188.282832,1636.090740,879.163696,0
0.019792,-159.314310,-51.751701,173.246781,6.151398,6.441220,-1.771482,-4.628568,-6.443460,1.982072,4.474317,-0.197847,0.607805,0.012853,-162.352708,188.502770,1636.080881,878.077446,0
0.020834,-84.034134,-108.882296,194.544129,6.581178,5.432941,1.137490,-6.199475,-5.373817,-0.833909,5.968613,-0.241683,0.599183,-0.039427,-96.664229,188.426859,1636.454700,877.415418,0
0.021875,-7.937299,-155.285048,182.959849,6.366288,3.856618,3.165436,-6.449477,-3.859408,-2.961633,6.338629,-0.241683,0.602775,-0.031958,-29.053051,188.438636,1636.203085,876.750718,0
0.022917,61.569544,-187.915570,135.354735,5.484108,1.332370,5.225131,-5.830069,-1.422386,-4.988635,5.669754,-0.234377,0.609047,-0.031958,34.226398,188.345013,1637.018712,876.283990,0
0.023959,116.909604,-199.223296,51.064015,3.878088,-1.188328,6.312523,-4.315133,1.202100,-6.197283,4.285751,-0.190541,0.600424,-0.043161,96.702836,188.420341,1635.752329,875.509499,0
0.025000,168.120994,-165.010176,-20.780682,2.520888,-3.467606,6.586355,-2.326313,3.381820,-6.436494,2.407208,-0.132093,0.598007,-0.017021,151.126555,188.419925,1635.594196,874.785617,0
0.026042,183.796330,-113.110612,-90.089394,1.254168,-5.224994,5.614052,0.225944,5.234398,-5.609746,-0.079727,-0.084604,0.600032,-0.046895,176.958595,188.495224,1634.725381,874.086243,0
0.027084,186.994915,-25.560301,-141.744697,0.258888,-6.197770,4.078210,2.595364,6.208471,-4.027593,-2.395885,-0.033462,0.590952,-0.046895,187.951914,188.270593,1634.283719,872.877035,0
0.028125,159.285186,50.658123,-173.444508,-0.374472,-6.254575,1.986767,4.457317,6.381232,-2.050950,-4.260197,-0.051727,0.610484,-0.031958,167.548675,188.495047,1633.842864,873.151814,0
0.029167,85.592961,108.972646,-193.843182,-0.792942,-5.246296,-0.882519,6.069269,5.326291,0.832178,-5.772282,0.043251,0.611529,-0.005818,102.041156,188.425484,1633.580594,873.075268,0
0.030217,6.796610,156.124415,-182.086554,-0.566742,-3.616718,-3.021586,6.285689,3.764098,2.989278,-6.103161,0.006721,0.566193,-0.017021,31.896538,188.495354,1632.451490,873.633238,0
0.031253,-62.744261,187.909273,-134.530682,0.326748,-1.163476,-5.021752,5.666281,1.268263,4.907166,-5.498327,0.017680,0.605127,-0.017021,-29.788201,188.343008,1631.352128,873.565865,0
0.032294,-117.210948,199.615669,-50.732387,1.944078,1.339470,-6.128987,4.188659,-1.304762,6.229125,-4.139230,-0.022503,0.601012,0.001650,-91.619970,188.478433,1630.411446,873.741854,0
0.033338,-168.830668,164.750180,20.829167,3.278658,3.600998,-6.386945,2.203570,-3.488157,6.472533,-2.242898,-0.048074,0.606956,-0.013287,-147.446128,188.472131,1629.519986,873.929479,0
0.034375,-184.721511,114.698995,89.830114,4.567998,5.372586,-5.434485,-0.352418,-5.296626,5.670965,0.194227,-0.113828,0.596962,-0.031958,-171.457258,188.476989,1628.323539,874.857628,0
0.035417,-187.092094,26.423829,141.780872,5.574588,6.331161,-3.882769,-2.710644,-6.222915,4.080418,2.460576,-0.161317,0.596962,-0.031958,-183.898258,188.397847,1627.306394,875.212201,0
0.036458,-159.427735,-51.268464,173.443751,6.140088,6.395066,-1.842917,-4.594986,-6.414054,2.057612,4.406718,-0.186888,0.583178,-0.028224,-162.341398,188.477814,1626.219347,876.004703,0
0.037500,-84.510519,-109.220561,193.694698,6.558558,5.400989,1.058118,-6.177087,-5.377493,-0.758369,5.901014,-0.238030,0.586771,-0.020755,-96.460649,188.483855,1624.766134,876.656810,0
0.038542,-7.506284,-155.309210,183.341478,6.411528,3.845967,3.149562,-6.430820,-3.848381,-2.932256,6.303050,-0.241683,0.599836,-0.020755,-29.448901,188.477349,1624.119940,876.674550,0
0.039583,61.909820,-187.033664,135.748675,5.506728,1.353671,5.121948,-5.815144,-1.459143,-4.871128,5.673311,-0.197847,0.609700,-0.031958,34.769278,188.327814,1622.431677,877.232043,0
0.040625,117.011687,-199.525318,51.753409,3.878088,-1.167026,6.272837,-4.356178,1.143288,-6.197283,4.317772,-0.212459,0.606630,-0.024490,96.589736,188.493309,1622.406241,878.024810,0
0.041667,168.041597,-164.732315,-20.349811,2.532198,-3.396601,6.550638,-2.374821,3.278899,-6.415511,2.424997,-0.154011,0.601404,-0.028224,151.646815,188.488449,1621.015211,878.489789,0
0.042708,184.193317,-113.158936,-89.917046,1.197618,-5.189491,5.610084,0.196093,5.219695,-5.609746,-0.040591,-0.117481,0.579585,-0.024490,176.664535,188.499400,1620.772964,878.943878,0
0.043750,186.518530,-25.052903,-141.830872,0.258888,-6.176469,4.098053,2.572976,6.131281,-4.140903,-2.310497,-0.033462,0.605584,-0.002084,187.058424,188.268728,1619.052213,880.852172,0
0.044792,159.398611,50.718527,-173.666099,-0.351852,-6.272326,2.034390,4.408810,6.329771,-2.126491,-4.238850,-0.015197,0.610810,-0.005818,167.435575,188.491873,1618.237491,881.515820,0
0.045833,85.921893,109.286750,-193.252273,-0.804252,-5.239195,-0.858708,6.028224,5.285858,0.748244,-5.690451,-0.000585,0.614077,-0.043161,102.606656,188.418531,1616.351896,881.829188,0
0.046875,8.259792,155.447884,-183.243751,-0.600672,-3.691274,-2.958089,6.330465,3.767773,2.913737,-6.117393,0.028639,0.602057,-0.024490,33.129328,188.492687,1616.384465,881.725350,0
0.047917,-62.506068,187.136095,-134.973864,0.338058,-1.202529,-4.954286,5.711058,1.352806,4.890380,-5.487654,0.021333,0.555545,-0.031958,-29.776891,188.266194,1615.729859,882.270717,0
0.048958,-117.074838,199.821044,-50.670833,1.966698,1.289766,-6.089301,4.222241,-1.256977,6.187158,-4.181924,0.006721,0.603037,-0.039427,-92.253330,188.494281,1615.073519,883.079486,0
0.050000,-168.274886,164.870989,20.201326,3.233418,3.522891,-6.394882,2.281929,-3.407291,6.464139,-2.321170,-0.055380,0.603363,-0.028224,-147.785428,188.472101,1614.078255,883.997031,0
0.051042,-184.596744,114.843966,89.694697,4.590618,5.329983,-5.406705,-0.300179,-5.285599,5.658374,0.201343,-0.088257,0.596439,0.012853,-170.925688,188.481561,1613.912086,883.693826,0
0.052083,-186.990011,26.931227,141.916288,5.574588,6.320511,-3.890706,-2.677062,-6.252321,4.109795,2.453460,-0.154011,0.594871,0.012853,-183.163108,188.289057,1614.358930,884.093115,0
0.053125,-159.665928,-51.051008,173.419129,6.162708,6.370215,-1.811168,-4.565135,-6.465515,2.091186,4.346235,-0.197847,0.585072,-0.024490,-162.544978,188.438683,1614.162125,885.016084,0
0.054167,-84.669314,-109.377613,193.596213,6.637728,5.436491,1.030338,-6.136042,-5.417926,-0.720599,5.854762,-0.219765,0.583309,-0.017021,-96.732089,188.419819,1613.587626,885.800793,0
0.055208,-7.177351,-155.079673,183.329167,6.388908,3.874369,3.113845,-6.449477,-3.837354,-2.881895,6.278145,-0.223418,0.591474,-0.020755,-28.566721,188.488514,1612.664364,885.893894,0
0.056250,61.977875,-186.937016,135.810228,5.529348,1.414026,5.090199,-5.826338,-1.510604,-4.803981,5.659080,-0.238030,0.611464,-0.020755,34.305568,188.339998,1611.541802,886.491318,0
0.057292,117.181824,-199.235377,51.999621,3.866778,-1.088920,6.276806,-4.382298,1.062421,-6.130136,4.378255,-0.183235,0.607414,-0.005818,96.906416,188.491532,1610.310126,887.719746,0
0.058333,168.018912,-164.744396,-19.992803,2.520888,-3.307844,6.514921,-2.400940,3.223762,-6.407117,2.496154,-0.132093,0.600358,-0.031958,150.843805,188.417914,1609.627466,888.690300,0
0.059375,183.966467,-113.569686,-89.953978,1.174998,-5.104285,5.637864,0.143854,5.149855,-5.634926,0.002104,-0.110175,0.595002,-0.039427,176.992525,188.493946,1608.801107,889.369637,0
0.060417,186.518530,-24.944175,-141.633902,0.236268,-6.165818,4.141708,2.464766,6.112902,-4.090543,-2.242898,-0.069992,0.573314,-0.017021,187.341174,188.341822,1607.803329,889.194767,0
0.061458,159.171761,51.068873,-173.382955,-0.397092,-6.240374,2.078044,4.360302,6.359177,-2.105507,-4.124999,-0.029809,0.610157,-0.031958,167.774875,188.492363,1606.609333,889.676177,0
0.062500,86.500361,109.407559,-192.821402,-0.713772,-5.292449,-0.735682,6.020761,5.333643,0.697884,-5.669104,0.017680,0.615775,-0.046895,103.273946,188.419976,1606.312068,890.536320,0
0.063542,8.475300,155.314994,-183.354546,-0.611982,-3.723226,-2.854905,6.281957,3.789828,2.880164,-6.103161,0.035945,0.614338,0.001650,33.525178,188.495843,1605.903202,890.827646,0
0.064583,-62.551438,186.471645,-135.478599,0.326748,-1.273534,-4.866977,5.670013,1.444699,4.823233,-5.469865,0.006721,0.582655,-0.039427,-29.946541,188.420459,1604.591539,891.633580,0
0.065625,-117.244976,199.966015,-50.596970,1.910148,1.247163,-6.049615,4.285674,-1.179786,6.124207,-4.206829,-0.037115,0.598791,-0.035692,-91.506870,188.495910,1603.383521,892.570523,0
0.066667,-167.855213,164.593128,20.275189,3.244728,3.480288,-6.371071,2.326705,-3.300694,6.422173,-2.395885,-0.051727,0.603951,-0.017021,-146.530018,188.420481,1601.551451,893.661878,0
0.067708,-184.834936,114.686914,89.731629,4.624548,5.294480,-5.458296,-0.225552,-5.230463,5.645784,0.108839,-0.139399,0.599509,-0.031958,-171.423328,188.495893,1600.328224,894.689253,0
0.068750,-186.570339,27.136603,141.817803,5.540658,6.270807,-3.918486,-2.594972,-6.208212,4.139172,2.382303,-0.139399,0.602188,-0.017021,-183.230968,188.421347,1599.112086,895.311153,0
0.069792,-159.790695,-50.374478,173.702273,6.185328,6.427019,-1.850854,-4.497970,-6.447136,2.175119,4.289309,-0.161317,0.603363,-0.050629,-162.827728,188.496335,1598.280675,896.202836,0
0.070833,-85.690139,-109.643393,192.635985,6.592488,5.411639,0.994621,-6.083803,-5.414250,-0.657648,5.787162,-0.234377,0.604017,-0.017021,-96.720779,188.496673,1597.022324,896.489618,0
0.071875,-6.939159,-155.115915,183.649243,6.434148,3.916972,3.050347,-6.438283,-3.962329,-2.869305,6.278145,-0.219765,0.617670,-0.043161,-28.894711,188.496288,1597.096128,898.156098,0
0.072917,62.635740,-185.946382,136.117993,5.484108,1.445979,5.074325,-5.796487,-1.565740,-4.770407,5.676869,-0.230724,0.591213,-0.039427,35.119888,188.344323,1596.379093,898.977265,0
0.073958,117.079742,-199.646127,52.282765,3.900708,-1.064068,6.272837,-4.397223,1.055070,-6.155316,4.392487,-0.234377,0.604801,-0.039427,96.555806,188.492908,1596.904794,899.207265,0
0.075000,167.610582,-164.575263,-19.635796,2.532198,-3.282992,6.542701,-2.449448,3.187005,-6.365150,2.517501,-0.135746,0.603951,-0.013287,151.352755,188.494030,1595.972564,899.116017,0
0.076042,184.499565,-113.883790,-89.744697,1.231548,-5.111385,5.665644,0.061764,5.138828,-5.668499,0.041240,-0.121134,0.602253,-0.035692,176.721085,188.493957,1596.135853,899.885113,0
0.077083,186.076172,-24.811285,-141.658523,0.270198,-6.119664,4.153614,2.412527,6.087172,-4.145100,-2.225108,-0.055380,0.576319,-0.028224,186.481614,188.491442,1595.595999,900.598042,0
0.078125,159.239816,51.165521,-173.641478,-0.317922,-6.268776,2.089950,4.326719,6.359177,-2.126491,-4.142788,-0.026156,0.600489,-0.005818,167.548675,188.493905,1595.830757,900.884193,0
0.079167,86.466333,109.878714,-192.304357,-0.781632,-5.313751,-0.699964,5.994642,5.348346,0.605556,-5.633526,0.003068,0.604801,-0.039427,103.669796,188.492843,1594.659665,902.058326,0
0.080208,8.645437,155.339156,-183.465341,-0.589362,-3.719676,-2.866811,6.304346,3.830261,2.842394,-6.128066,0.024986,0.618388,-0.031958,33.796618,188.491237,1594.669201,902.881017,0
0.081250,-62.381301,186.254189,-135.810985,0.315438,-1.294836,-4.819354,5.673744,1.418969,4.756086,-5.484096,0.017680,0.612509,-0.043161,-29.878681,188.492660,1594.133381,902.693651,0
0.082292,-117.347058,200.050582,-50.744697,1.955388,1.225861,-6.029773,4.289406,-1.172435,6.174568,-4.221060,0.014027,0.598921,-0.028224,-92.343810,188.492855,1594.812625,903.065923,0
0.083333,-167.696418,164.593128,20.459849,3.278658,3.416383,-6.311542,2.341631,-3.300694,6.417976,-2.346075,-0.044421,0.603102,0.001650,-147.457438,188.495609,1594.753276,902.446019,0
0.084375,-184.608086,114.505700,89.928599,4.635858,5.294480,-5.482108,-0.210626,-5.212084,5.683555,0.083934,-0.099216,0.598333,-0.005818,-170.936998,188.495973,1594.511185,903.178033,0
0.085417,-186.434229,27.354059,141.743940,5.563278,6.274357,-3.954203,-2.565121,-6.171455,4.227302,2.357398,-0.146705,0.588665,0.009119,-182.484508,188.496120,1594.049830,904.199899,0
0.086458,-160.051573,-50.036212,173.554546,6.151398,6.412818,-1.906414,-4.494239,-6.439785,2.179316,4.278635,-0.208806,0.603102,-0.009553,-163.155718,188.496156,1593.954685,904.049431,0
0.087500,-86.223237,-109.607150,192.611364,6.547248,5.411639,0.946998,-6.087534,-5.403223,-0.624075,5.772931,-0.212459,0.578736,-0.028224,-97.286279,188.496179,1593.660059,904.129213,0
0.088542,-6.723651,-154.886378,183.464584,6.400218,3.913422,3.058284,-6.423357,-3.910869,-2.802158,6.249683,-0.263601,0.584942,-0.013287,-27.922051,188.495966,1592.444755,903.793197,0
0.089583,62.828562,-186.115515,136.191856,5.495418,1.506333,5.058451,-5.811413,-1.598822,-4.753620,5.662638,-0.259948,0.615187,-0.013287,34.825828,188.571688,1592.069602,904.186524,0
0.090625,117.091084,-199.464914,52.307387,3.934638,-1.028565,6.252994,-4.434537,0.999934,-6.109152,4.420949,-0.230724,0.613750,0.016587,96.714146,188.496329,1591.139163,904.875628,0
0.091667,167.814747,-164.647749,-19.143371,2.566128,-3.275891,6.546670,-2.490493,3.142896,-6.398724,2.560195,-0.154011,0.610418,-0.050629,150.662845,188.496802,1591.115470,905.763277,0
0.092708,184.318085,-114.403269,-89.720076,1.186308,-5.132687,5.693424,0.069226,5.135152,-5.668499,0.051913,-0.113828,0.597745,0.005384,177.060385,188.496138,1591.141378,905.737441,0
0.093750,186.200940,-25.282440,-141.363069,0.247578,-6.112564,4.189331,2.419989,6.109226,-4.212247,-2.178856,-0.080951,0.558550,-0.005818,186.967944,188.569740,1591.247938,906.757505,0
0.094792,159.046994,51.479624,-173.346023,-0.385782,-6.293628,2.149479,4.334182,6.348150,-2.214621,-4.117883,-0.004238,0.614207,-0.020755,167.899285,188.493027,1590.438553,907.873870,0
0.095833,86.523046,109.902876,-192.021213,-0.747702,-5.331503,-0.676153,5.953597,5.359373,0.605556,-5.633526,0.032292,0.610614,-0.024490,103.669796,188.566480,1590.420007,907.946905,0
0.096875,8.554697,155.290832,-183.588448,-0.634602,-3.790682,-2.823157,6.293151,3.870694,2.834000,-6.096046,0.032292,0.618911,-0.020755,34.181158,188.489394,1590.046222,908.324343,0
0.097917,-62.392643,185.831358,-136.278788,0.281508,-1.309037,-4.815386,5.651356,1.466754,4.768676,-5.533906,0.017680,0.608655,-0.013287,-29.901301,188.719132,1590.457037,909.124348,0
0.098958,-117.494511,200.026420,-51.040152,1.910148,1.204560,-6.073427,4.255823,-1.139353,6.157781,-4.224618,-0.022503,0.599379,-0.009553,-91.552110,188.492705,1590.094741,909.401689,0
0.100000,-167.537623,164.387753,20.558333,3.244728,3.409282,-6.339322,2.375213,-3.271288,6.422173,-2.420790,-0.059033,0.600097,-0.005818,-146.247268,188.566265,1589.630530,910.481570,0
0.101042,-184.937019,114.300325,89.965531,4.613238,5.290930,-5.490045,-0.150924,-5.215760,5.708735,0.105281,-0.121134,0.597092,-0.017021,-171.468568,188.492059,1589.989110,910.634329,0
0.102083,-186.320804,27.148683,141.645455,5.551968,6.292108,-3.989920,-2.553927,-6.160428,4.193729,2.279126,-0.095563,0.602449,0.001650,-182.789878,188.719500,1588.961259,910.827014,0
0.103125,-160.017545,-49.613381,173.874622,6.185328,6.427019,-1.914351,-4.445731,-6.494921,2.221283,4.292867,-0.190541,0.612835,-0.002084,-163.370608,188.492191,1589.648965,911.628785,0
0.104167,-86.915130,-109.691716,191.995834,6.581178,5.418740,0.915249,-6.057683,-5.432629,-0.619878,5.737353,-0.223418,0.581871,0.005384,-97.354139,188.495338,1589.375889,911.752080,0
0.105208,-6.927816,-155.067592,183.796970,6.422838,3.899221,3.030504,-6.359924,-3.881463,-2.818945,6.217662,-0.238030,0.569982,-0.024490,-28.340521,188.496036,1589.378808,911.116729,0
0.106250,63.202865,-185.511470,136.154925,5.518038,1.460180,5.022733,-5.815144,-1.547361,-4.732637,5.659080,-0.201500,0.600424,-0.028224,35.606218,188.721864,1589.052035,910.533042,0
0.107292,117.057057,-199.754856,51.962690,3.934638,-1.028565,6.276806,-4.404686,1.025664,-6.121742,4.385371,-0.208806,0.609635,0.005384,96.601046,188.496073,1589.279150,910.036228,0
0.108333,167.655952,-164.418211,-19.106439,2.543508,-3.261690,6.558575,-2.527807,3.179653,-6.398724,2.563753,-0.157664,0.613031,-0.009553,151.341445,188.571223,1589.547916,909.814649,0
0.109375,184.601647,-114.729453,-89.473864,1.220238,-5.100734,5.681518,0.080421,5.105746,-5.660106,0.091050,-0.110175,0.599836,0.012853,176.709775,188.495774,1589.138429,910.097739,0
0.110417,185.962747,-25.475734,-141.461553,0.202338,-6.116114,4.125833,2.393870,6.138632,-4.140903,-2.207319,-0.055380,0.553847,-0.013287,186.278034,188.721942,1589.550184,909.072716,0
