1-Time,2-VGERA,3-VGERB,4-VGERC,5-VN,6-IGERAN,7-IGERBN,8-IGERCN,9-IGERAT,10-IGERBT,11-IGERCT,12-IN,13-IFD,14-IFAULT,15-VFAULT,16-Speed (rad/s),17-Active Power,18-Reactive Power,19-FAULT 
0.000000,180.504280,-127.867629,-0.334978,2.882808,-5.582193,-0.643368,5.690803,5.773066,0.559900,-5.868976,0.003068,0.188746,-0.028224,123.360506,188.571098,969.935561,-1277.039242,0
0.001042,189.865905,-71.293555,-62.031992,1.729188,-3.893534,-3.309029,6.452208,4.178941,2.985212,-6.584831,0.014027,0.193122,-0.050629,137.859925,188.495640,969.930338,-1276.835093,0
0.002083,168.412655,-25.071333,-146.985936,0.145788,-2.129487,-5.162663,6.267511,2.497066,4.703650,-6.584831,-0.007891,0.197303,-0.054364,128.970266,188.495767,969.576026,-1277.365588,0
0.003125,113.505530,20.561074,-192.115014,-0.691152,0.422349,-6.208520,4.767317,0.200941,5.642087,-4.964535,0.006721,0.199263,-0.031958,89.113826,188.646451,969.588830,-1277.492324,0
0.004167,59.610780,90.363852,-196.454824,-0.804252,2.879952,-7.182103,3.285970,-2.182934,6.621150,-3.555917,-0.029809,0.184499,-0.031958,49.460967,188.571252,970.736742,-1277.236046,0
0.005208,16.920405,156.603666,-154.033490,-0.035172,4.843773,-6.612408,0.971602,-4.007402,6.093025,-1.150489,-0.106522,0.182997,-0.043161,17.917378,188.495600,970.981124,-1277.290427,0
0.006250,-33.334345,205.642555,-91.211341,1.141068,6.310043,-5.137154,-1.621697,-5.411402,4.886462,1.551287,-0.168623,0.196062,-0.050629,-11.262421,188.495716,971.296545,-1277.184610,0
0.007292,-108.102220,176.801814,-43.250877,2.102418,6.686976,-2.990170,-3.792831,-5.787996,2.960837,3.798918,-0.205153,0.174439,-0.028224,-64.295010,188.646484,970.860642,-1277.172746,0
0.008333,-180.777095,127.750888,0.147223,2.905428,6.140423,-0.834683,-5.044249,-5.349246,1.002712,5.184445,-0.223418,0.185087,-0.035692,-118.255019,188.571078,970.782706,-1277.213268,0
0.009375,-189.854345,71.224963,62.103883,4.081668,4.447994,1.899001,-5.813192,-3.703934,-1.483538,5.942635,-0.267254,0.180907,-0.017021,-130.492439,188.495727,969.811993,-1277.689737,0
0.010417,-168.150845,25.676815,147.490572,5.732928,2.646254,3.718623,-5.571955,-2.043996,-3.145100,5.869510,-0.263601,0.192992,-0.028224,-123.921329,188.495731,970.056937,-1277.599791,0
0.011458,-113.232345,-19.943555,192.038536,6.569868,0.079340,4.734721,-4.041607,0.296004,-4.038850,4.256912,-0.216112,0.183716,-0.039427,-84.766110,188.571103,969.442037,-1277.046221,0
0.012500,-59.530970,-89.902814,196.464894,6.603798,-2.366955,5.653035,-2.526336,2.672566,-5.017913,2.763622,-0.175929,0.192142,-0.031958,-43.722121,188.571136,969.061393,-1276.724417,0
0.013542,-16.874720,-156.202814,153.944648,5.857338,-4.323237,5.079089,-0.219506,4.456816,-4.481663,0.358195,-0.132093,0.192142,-0.073035,-13.908961,188.495709,969.174910,-1276.959729,0
0.014583,33.107030,-205.446333,91.073042,4.703718,-5.732967,3.595331,2.358715,5.868129,-3.271038,-2.297397,-0.095563,0.178098,-0.039427,16.186948,188.571158,969.552296,-1277.437983,0
0.015625,107.988655,-176.605592,43.446410,3.798918,-6.113669,1.490862,4.446924,6.233754,-1.410413,-4.475753,-0.048074,0.177640,-0.009553,69.502287,188.571096,970.251127,-1277.130688,0
0.016667,180.572530,-127.374111,-0.062967,2.905428,-5.567116,-0.677379,5.702111,5.765754,0.568025,-5.915160,-0.048074,0.186263,-0.020755,123.190856,188.571064,970.082402,-1277.559708,0
0.017708,189.809030,-70.848185,-61.821802,1.740498,-3.901072,-3.368549,6.501209,4.200879,3.017712,-6.623318,0.032292,0.185283,-0.035692,135.349105,188.495693,970.303290,-1278.115422,0
0.018750,168.185155,-24.722259,-147.047756,0.134478,-2.110641,-5.226435,6.282588,2.508035,4.703650,-6.569437,-0.004238,0.184695,-0.046895,127.692236,188.495774,970.359462,-1277.803789,0
0.019792,113.039155,20.524963,-192.213927,-0.736392,0.444965,-6.238280,4.778625,0.149754,5.674587,-5.018417,-0.011544,0.210107,-0.020755,89.023346,188.495651,970.633999,-1278.562863,0
0.020833,59.485655,90.291629,-196.516644,-0.826872,2.879952,-7.224618,3.308586,-2.219496,6.637400,-3.536674,-0.044421,0.206057,-0.046895,49.076427,188.571109,970.352759,-1279.071609,0
0.021875,16.840780,157.121259,-153.514197,-0.012552,4.873928,-6.633666,0.994218,-4.007402,6.137712,-1.142792,-0.106522,0.185153,-0.009553,17.962618,188.495680,970.871285,-1279.209800,0
0.022917,-33.231970,205.786999,-90.902238,1.141068,6.362813,-5.154160,-1.621697,-5.393121,4.886462,1.524346,-0.168623,0.171434,-0.017021,-11.692201,188.495635,971.035957,-1278.714332,0
0.023958,-108.341095,176.645333,-43.312698,2.113728,6.766132,-3.058193,-3.845602,-5.817246,2.977087,3.864346,-0.201500,0.169736,-0.050629,-64.181910,188.495747,971.261574,-1279.594200,0
0.025000,-180.674720,127.618481,0.419234,2.950668,6.174347,-0.851689,-5.048018,-5.374840,1.035212,5.238326,-0.223418,0.183520,-0.024490,-118.877069,188.571178,971.925774,-1279.999878,0
0.026042,-189.922595,71.020333,62.276981,4.126908,4.489456,1.911756,-5.835808,-3.751465,-1.471350,5.958030,-0.241683,0.183062,-0.069301,-131.465099,188.495709,972.713773,-1280.012635,0
0.027083,-168.423845,25.087000,147.082555,5.744238,2.740487,3.752635,-5.613418,-2.084215,-3.173538,5.884905,-0.219765,0.200504,-0.024490,-125.120189,188.495743,973.246834,-1280.187352,0
0.028125,-112.492970,-19.991704,192.718563,6.569868,0.098187,4.768732,-4.098147,0.263098,-4.103850,4.303096,-0.216112,0.221343,-0.046895,-85.919730,188.495781,974.423619,-1280.686152,0
0.029167,-59.417220,-89.963000,196.501987,6.637728,-2.363186,5.746567,-2.631878,2.661598,-5.074788,2.821353,-0.175929,0.185937,-0.050629,-43.835221,188.571156,975.550125,-1280.993672,0
0.030208,-16.942970,-157.045407,153.338806,5.902578,-4.323237,5.164118,-0.264738,4.511660,-4.575100,0.408228,-0.132093,0.181690,-0.024490,-13.592281,188.495716,977.142277,-1281.749182,0
0.031250,33.243530,-205.482444,90.887580,4.692408,-5.781968,3.667606,2.321022,5.922973,-3.271038,-2.278154,-0.062686,0.165490,-0.017021,16.752448,188.495698,977.558697,-1282.069364,0
0.032292,108.409530,-176.509296,43.347496,3.776298,-6.245596,1.584394,4.492156,6.325160,-1.463225,-4.471904,-0.026156,0.179208,-0.073035,69.999927,188.495687,978.980880,-1282.577983,0
0.033333,180.413280,-127.458370,-0.285522,2.916738,-5.638733,-0.588099,5.728496,5.853504,0.531462,-5.911312,-0.000585,0.189203,-0.046895,123.417056,188.495727,980.197946,-1282.676669,0
0.034375,189.922780,-70.619481,-61.895986,1.797048,-3.987767,-3.394058,6.520056,4.241098,3.001462,-6.696443,0.021333,0.182540,-0.050629,138.199225,188.495740,981.215234,-1283.232509,0
0.035417,168.321655,-24.686148,-147.047756,0.111858,-2.212412,-5.226435,6.339128,2.581160,4.732087,-6.646410,-0.011544,0.191489,-0.031958,128.811926,188.495651,982.634515,-1283.872008,0
0.036458,112.686530,20.537000,-192.745584,-0.736392,0.358271,-6.293549,4.857781,0.215566,5.711150,-5.091542,-0.059033,0.202464,-0.028224,88.412607,188.571004,984.240416,-1284.022862,0
0.037500,59.553905,90.424037,-196.603193,-0.815562,2.902568,-7.275635,3.346280,-2.190246,6.690212,-3.629042,-0.040768,0.189921,-0.024490,49.200837,188.571055,985.828281,-1284.152643,0
0.038542,17.136530,157.277740,-153.217458,-0.069102,4.873928,-6.697437,1.013064,-4.003746,6.198650,-1.135095,-0.095563,0.159807,-0.050629,18.007858,188.495711,986.292856,-1284.482474,0
0.039583,-33.345720,205.919407,-90.642591,1.095828,6.370352,-5.243440,-1.614159,-5.378496,4.943337,1.512800,-0.168623,0.153078,-0.046895,-11.217181,188.495703,987.051075,-1284.239372,0
0.040625,-108.306970,176.741629,-43.201420,2.068488,6.788748,-3.143222,-3.766446,-5.846496,3.050212,3.787372,-0.219765,0.179273,-0.035692,-64.543830,188.495721,988.335827,-1283.441575,0
0.041667,-181.118345,127.498111,0.270864,2.961978,6.242195,-0.957975,-4.995248,-5.451621,1.108337,5.222931,-0.223418,0.189660,-0.039427,-118.175849,188.571089,989.834409,-1283.203078,0
0.042708,-190.036345,71.128666,62.178068,4.115598,4.534688,1.843733,-5.862194,-3.813621,-1.386038,5.977274,-0.278213,0.188876,-0.039427,-130.910909,188.495712,991.087195,-1282.693529,0
0.043750,-168.241845,25.556444,147.465843,5.687688,2.759334,3.697366,-5.685035,-2.135402,-3.206038,5.950333,-0.234377,0.192338,-0.061832,-123.876089,188.495698,992.148930,-1283.436777,0
0.044792,-112.663595,-19.943555,192.768019,6.535938,0.199959,4.824001,-4.158456,0.208254,-4.095725,4.422405,-0.208806,0.209846,-0.054364,-83.997030,188.495747,993.877189,-1283.422401,0
0.045833,-59.758470,-90.071333,196.637992,6.626418,-2.329262,5.827344,-2.688418,2.654285,-5.139788,2.913721,-0.179582,0.178882,-0.043161,-43.382821,188.571125,995.401539,-1283.991315,0
0.046875,-17.261470,-157.069481,153.227528,5.846028,-4.323237,5.236392,-0.332586,4.533598,-4.611663,0.489050,-0.135746,0.183520,-0.024490,-13.920271,188.495640,996.463613,-1284.050146,0
0.047917,33.107030,-205.843555,90.875216,4.669788,-5.778199,3.773892,2.275790,5.937598,-3.392913,-2.224272,-0.073645,0.183128,-0.076769,16.186948,188.495636,998.291119,-1284.031954,0
0.048958,108.352655,-176.425036,43.446410,3.719748,-6.279520,1.686429,4.465771,6.350754,-1.511975,-4.483450,-0.022503,0.183454,-0.039427,69.604077,188.495743,998.907887,-1284.240947,0
0.050000,181.220905,-127.109296,0.320321,2.894118,-5.717889,-0.520076,5.781267,5.952223,0.515212,-5.919009,0.006721,0.188354,-0.046895,123.360506,188.571174,1000.106916,-1284.805578,0
0.051042,189.888655,-70.679666,-62.031992,1.706568,-4.070692,-3.313280,6.602981,4.288629,2.993337,-6.750325,0.039598,0.193580,-0.065566,135.824125,188.495707,1001.004240,-1285.303218,0
0.052083,168.469530,-24.975037,-147.121941,0.111858,-2.284030,-5.188171,6.418284,2.636004,4.764587,-6.704141,0.017680,0.219775,-0.039427,127.658306,188.495801,1002.009021,-1286.012537,0
0.053125,112.424905,20.272185,-193.190693,-0.759012,0.343193,-6.297801,4.985938,0.200941,5.719275,-5.153121,0.006721,0.241332,-0.020755,88.061997,188.495725,1002.635892,-1286.461664,0
0.054167,59.735905,90.484222,-196.640286,-0.804252,2.846028,-7.339407,3.455590,-2.186590,6.722712,-3.709864,-0.066339,0.212197,-0.024490,48.771057,188.495727,1003.785424,-1286.700287,0
0.055208,17.614280,158.264777,-152.747621,-0.012552,4.889005,-6.807975,1.095990,-4.036652,6.283962,-1.223614,-0.073645,0.194560,-0.054364,18.279298,188.495732,1005.645535,-1287.139493,0
0.056250,-33.015845,206.099962,-90.902238,1.141068,6.385429,-5.336972,-1.576465,-5.506465,5.020525,1.485859,-0.183235,0.178620,-0.043161,-11.477311,188.495732,1007.055353,-1288.553994,0
0.057292,-108.921220,176.524962,-43.423975,2.091108,6.905597,-3.206994,-3.841833,-5.992746,3.127400,3.825859,-0.223418,0.178620,-0.043161,-64.589070,188.495662,1008.981593,-1289.971250,0
0.058333,-181.106970,127.437925,-0.100060,2.848878,6.325120,-0.928215,-5.112097,-5.528402,1.096150,5.292208,-0.230724,0.186198,-0.035692,-119.091959,188.420341,1009.578095,-1291.253762,0
0.059375,-190.081845,70.948111,62.450079,4.115598,4.643999,1.877744,-5.997889,-3.897715,-1.479475,6.092734,-0.256295,0.188027,-0.031958,-132.064529,188.495767,1010.734444,-1293.293778,0
0.060417,-168.537595,25.616630,147.305110,5.721618,2.830951,3.778144,-5.771730,-2.193902,-3.226350,6.008063,-0.234377,0.199459,-0.043161,-125.052329,188.495627,1011.784152,-1293.823403,0
0.061458,-111.685345,-19.582444,193.917883,6.637728,0.177343,4.892025,-4.256459,0.248473,-4.233850,4.449346,-0.208806,0.176856,-0.061832,-84.698250,188.495725,1012.365718,-1295.665629,0
0.062500,-59.883595,-90.071333,196.390710,6.592488,-2.325492,5.840099,-2.673340,2.661598,-5.208850,2.963754,-0.201500,0.185545,-0.039427,-43.688191,188.420343,1013.286558,-1296.255330,0
0.063542,-17.864345,-158.417629,152.349675,5.823408,-4.391085,5.338427,-0.343894,4.555535,-4.733538,0.458261,-0.132093,0.190379,-0.009553,-14.146471,188.495622,1014.376167,-1297.342594,0
0.064583,32.856780,-205.590777,90.875216,4.681098,-5.872432,3.790898,2.309714,5.996098,-3.401038,-2.220424,-0.069992,0.184565,-0.024490,16.435768,188.495714,1014.550094,-1297.904449,0
0.065625,108.932780,-176.292629,43.520594,3.731058,-6.336060,1.724692,4.541157,6.442160,-1.532288,-4.521937,-0.026156,0.179404,-0.028224,70.180887,188.495781,1015.498433,-1299.002971,0
0.066667,180.720405,-127.037074,0.357413,2.860188,-5.766891,-0.545584,5.811422,5.985129,0.442087,-6.015226,0.017680,0.190640,-0.024490,123.643256,188.420244,1016.396722,-1299.673480,0
0.067708,190.104780,-70.547259,-62.007264,1.740498,-4.108385,-3.334538,6.704753,4.376379,3.005525,-6.804206,0.032292,0.195931,-0.076769,138.685555,188.495731,1017.648493,-1300.400474,0
0.068750,168.503655,-25.167630,-147.072485,0.157098,-2.287799,-5.196674,6.463516,2.701816,4.797087,-6.758022,0.043251,0.196323,-0.043161,128.551796,188.495714,1018.692939,-1300.964551,0
0.069792,111.799280,19.959222,-193.981998,-0.792942,0.301731,-6.408339,5.008554,0.259441,5.759900,-5.230095,-0.022503,0.189725,-0.020755,87.417327,188.474908,1020.272286,-1301.232663,0
0.070833,60.065780,90.448111,-196.405367,-0.815562,2.910107,-7.377670,3.455590,-2.197559,6.791775,-3.652134,-0.044421,0.197434,-0.039427,49.212147,188.550646,1019.913140,-1302.058595,0
0.071875,18.035155,158.746259,-152.376697,-0.046482,4.911621,-6.807975,1.095990,-4.054934,6.288025,-1.177430,-0.128440,0.189203,-0.039427,18.505498,188.494726,1019.508735,-1302.557883,0
0.072917,-32.856595,206.063851,-90.828053,1.118448,6.464585,-5.311464,-1.602851,-5.561309,5.036775,1.508951,-0.146705,0.190313,-0.046895,-10.832641,188.495691,1019.662122,-1303.344450,0
0.073958,-108.955345,176.392555,-43.522888,2.079798,6.931982,-3.164480,-3.894603,-5.978121,3.115212,3.895135,-0.201500,0.177248,-0.046895,-65.086710,188.495839,1019.163886,-1303.999830,0
0.075000,-181.459595,126.992555,-0.569897,2.928048,6.310043,-0.915461,-5.097020,-5.575934,1.071775,5.296056,-0.238030,0.188158,-0.054364,-118.322879,188.420381,1019.374960,-1304.415443,0
0.076042,-190.036345,70.936074,62.190432,4.059048,4.693000,1.894750,-5.979043,-3.883090,-1.455100,6.162010,-0.245336,0.179731,-0.002084,-131.646059,188.495638,1019.610222,-1304.864259,0
0.077083,-168.355595,25.749037,147.700762,5.642448,2.849798,3.752635,-5.741575,-2.226809,-3.189788,6.081188,-0.238030,0.194755,-0.035692,-123.785609,188.495718,1020.753169,-1304.885178,0
0.078125,-111.764970,-19.450037,194.016797,6.603798,0.203728,4.896276,-4.222535,0.189973,-4.229788,4.480135,-0.201500,0.215855,-0.031958,-83.080920,188.495667,1021.546979,-1304.589071,0
0.079167,-60.202095,-90.179666,196.427802,6.626418,-2.329262,5.861356,-2.726111,2.621379,-5.192600,2.971451,-0.164970,0.207559,-0.028224,-43.473301,188.420338,1021.719016,-1304.161287,0
0.080208,-18.182845,-158.417629,152.226034,5.812098,-4.406163,5.359685,-0.381588,4.540910,-4.721350,0.465958,-0.102869,0.198414,-0.028224,-14.576251,188.495727,1021.596678,-1303.925573,0
0.081250,32.731655,-205.843555,90.924672,4.681098,-5.902587,3.820658,2.317253,6.029004,-3.478225,-2.255062,-0.091910,0.182605,-0.031958,15.870268,188.420347,1022.331704,-1304.801348,0
0.082292,108.819030,-176.220407,43.842062,3.753678,-6.377522,1.750201,4.544927,6.489691,-1.564788,-4.556575,-0.029809,0.180841,-0.039427,70.011237,188.495658,1022.779993,-1305.561787,0
0.083333,181.061655,-126.820407,0.864342,2.916738,-5.785737,-0.541333,5.773728,6.029004,0.494900,-5.995983,0.028639,0.192208,-0.035692,123.349196,188.420338,1022.659328,-1305.975278,0
0.084375,190.059280,-70.619481,-62.093812,1.717878,-4.198849,-3.313280,6.700983,4.358098,2.964900,-6.858088,0.032292,0.201876,-0.046895,136.480105,188.495678,1022.994107,-1306.125804,0
0.085417,168.560530,-25.468555,-147.084849,0.111858,-2.336800,-5.213680,6.538902,2.756660,4.805212,-6.804206,0.017680,0.197303,-0.024490,127.499966,188.420350,1023.897465,-1306.451084,0
0.086458,111.537655,19.826815,-194.365286,-0.759012,0.290423,-6.438099,5.057556,0.306973,5.804587,-5.268581,-0.026156,0.217358,-0.046895,87.292917,188.495633,1024.907311,-1306.727955,0
0.087500,60.384280,90.412000,-196.368275,-0.792942,2.857336,-7.432939,3.478206,-2.168309,6.836462,-3.771443,-0.069992,0.202660,-0.024490,49.166907,188.420191,1026.627803,-1306.803161,0
0.088542,18.524280,159.552740,-151.746126,-0.001242,5.002085,-6.952525,1.126144,-4.135371,6.389587,-1.273647,-0.084604,0.208343,-0.050629,18.969208,188.495658,1028.622390,-1307.732947,0
0.089583,-32.685970,206.075888,-90.852781,1.107138,6.472124,-5.409247,-1.599081,-5.553996,5.073337,1.470464,-0.139399,0.179600,-0.043161,-11.217181,188.420330,1029.214943,-1307.415854,0
0.090625,-109.364845,176.392555,-43.869083,2.045868,7.048831,-3.258012,-3.887065,-6.087809,3.151775,3.879741,-0.190541,0.179992,-0.046895,-64.917060,188.495644,1030.535336,-1308.164777,0
0.091667,-181.300345,127.281444,-0.705902,2.894118,6.392968,-0.966478,-5.161098,-5.619809,1.185525,5.384576,-0.230724,0.192534,-0.035692,-119.193749,188.420256,1031.986040,-1308.735468,0
0.092708,-190.445845,71.044407,62.561356,4.115598,4.753309,1.843733,-6.088353,-4.025684,-1.394163,6.215892,-0.238030,0.195670,-0.058098,-132.686579,188.495750,1034.446423,-1308.918477,0
0.093750,-168.696845,25.833296,147.342202,5.687688,2.868644,3.786647,-5.835808,-2.285309,-3.242600,6.096583,-0.223418,0.198936,-0.017021,-125.131499,188.420278,1034.992960,-1309.503095,0
0.094792,-111.139345,-19.125037,194.981199,6.603798,0.199959,4.964299,-4.377077,0.175348,-4.254163,4.587899,-0.234377,0.214745,-0.046895,-84.098820,188.495607,1036.556749,-1310.066538,0
0.095833,-60.497845,-90.083370,196.180519,6.569868,-2.348108,5.937882,-2.748727,2.632348,-5.225100,3.006089,-0.175929,0.206383,-0.028224,-43.914391,188.420215,1036.982942,-1310.445878,0
0.096875,-18.774345,-159.681518,151.706740,5.834718,-4.428779,5.414953,-0.396665,4.573816,-4.782288,0.550629,-0.135746,0.197368,-0.020755,-14.723281,188.495622,1038.639547,-1310.813387,0
0.097917,32.652030,-205.518555,91.048314,4.703718,-5.940280,3.833413,2.279559,6.014379,-3.502600,-2.212726,-0.055380,0.188158,-0.054364,16.345288,188.420401,1039.030318,-1310.308102,0
0.098958,109.535655,-176.160222,43.990431,3.697128,-6.441601,1.788464,4.563773,6.504316,-1.605413,-4.579667,-0.044421,0.183258,-0.020755,70.418397,188.420273,1039.732520,-1310.598436,0
0.100000,181.084405,-126.555592,1.062169,2.882808,-5.838508,-0.562590,5.875500,6.050941,0.474587,-6.030621,0.050557,0.188876,-0.050629,123.903386,188.420399,1040.104487,-1310.908321,0
0.101042,190.343655,-70.775963,-62.130905,1.695258,-4.172464,-3.389807,6.738677,4.365410,3.042087,-6.888877,0.039598,0.193122,-0.065566,139.171885,188.495577,1039.982262,-1312.088349,0
0.102083,168.480905,-25.757444,-147.060121,0.134478,-2.333031,-5.260446,6.478593,2.701816,4.801150,-6.823450,0.003068,0.201745,-0.031958,128.325596,188.495658,1039.492933,-1312.427854,0
0.103125,111.332905,19.381444,-194.785666,-0.792942,0.297961,-6.442350,5.072633,0.241160,5.808650,-5.257035,-0.015197,0.227679,-0.069301,86.930997,188.420200,1038.823307,-1313.012886,0
0.104167,60.600405,90.315703,-196.133356,-0.804252,2.887491,-7.373418,3.474437,-2.182934,6.832400,-3.717562,-0.033462,0.201811,-0.058098,49.347867,188.420209,1038.000440,-1313.177366,0
0.105208,18.774530,159.564777,-151.671941,-0.001242,4.975700,-6.901507,1.092220,-4.124402,6.373337,-1.300588,-0.080951,0.201288,-0.017021,19.127548,188.495778,1038.054637,-1312.858354,0
0.106250,-32.515345,205.943481,-90.889873,1.141068,6.483432,-5.332721,-1.587773,-5.543027,5.077400,1.505103,-0.161317,0.185022,-0.043161,-10.617751,188.495680,1037.708437,-1313.063302,0
0.107292,-109.194220,176.248110,-43.757806,2.079798,6.996061,-3.228251,-3.939835,-6.014684,3.098962,3.883589,-0.179582,0.178555,-0.054364,-65.267670,188.495716,1036.528936,-1312.559791,0
0.108333,-181.368595,126.812000,-1.175739,2.894118,6.355275,-0.889952,-5.130943,-5.568621,1.096150,5.315300,-0.230724,0.188223,-0.024490,-118.311569,188.420206,1034.991505,-1312.051890,0
0.109375,-190.241095,71.068481,62.227524,4.104288,4.719385,1.933013,-6.065737,-3.934277,-1.459163,6.181254,-0.238030,0.192012,-0.050629,-132.030599,188.495723,1033.229211,-1312.233013,0
