1-Time,2-VGERA,3-VGERB,4-VGERC,5-VN,6-IGERAN,7-IGERBN,8-IGERCN,9-IGERAT,10-IGERBT,11-IGERCT,12-IN,13-IFD,14-IFAULT,15-VFAULT,16-Speed (rad/s),17-Active Power,18-Reactive Power,19-FAULT 
0.000000,140.796910,-190.331750,15.892614,3.210798,-1.976490,6.455392,-3.811398,1.896817,-6.344167,3.769863,-0.212459,0.596700,-0.020755,142.926805,188.495734,1575.822952,908.508136,0
0.001042,166.669154,-151.189622,-58.795834,1.853598,-3.971746,6.133937,-1.475561,3.947885,-6.109152,1.620924,-0.168623,0.595132,-0.035692,167.333785,188.495785,1573.976998,910.276278,0
0.002083,193.085838,-67.589766,-111.866856,0.801768,-5.750435,5.066388,1.177443,5.704894,-5.080962,-1.040345,-0.106522,0.584354,-0.024490,193.459884,188.495745,1570.852665,912.462151,0
0.003125,171.501059,4.255370,-159.607387,-0.125652,-6.236823,3.451174,3.125218,6.296689,-3.523989,-2.851289,-0.080951,0.596635,-0.058098,166.248025,188.646442,1568.640021,914.409905,0
0.004167,124.520422,72.101727,-188.057198,-0.679842,-5.998955,0.804129,5.233442,5.991602,-0.959810,-4.886378,-0.029809,0.600097,-0.095440,120.487766,188.495580,1565.785260,916.527420,0
0.005208,46.381936,127.758452,-192.144319,-0.725082,-4.742156,-1.569084,6.080463,4.830065,1.486862,-5.822092,-0.007891,0.612248,-0.050629,42.516628,188.495749,1564.343654,918.673205,0
0.006250,-26.527657,174.523631,-162.906629,-0.227442,-2.874710,-3.823240,6.304346,2.951757,3.757273,-6.053352,-0.004238,0.616036,-0.024490,-30.444181,188.495665,1562.348699,919.487127,0
0.007292,-93.130820,183.185640,-103.569508,0.948798,-0.364663,-5.446391,5.214786,0.419165,5.419163,-5.114080,-0.015197,0.604213,-0.039427,-92.547390,188.646505,1560.749019,920.751005,0
0.008333,-140.814692,190.144240,-15.881061,2.611368,2.006923,-6.307573,3.643879,-2.017857,6.279485,-3.587764,-0.044421,0.597419,-0.058098,-138.149309,188.495712,1557.951751,920.970031,0
0.009375,-167.083923,151.932341,58.130303,3.957258,4.009280,-5.986118,1.349086,-3.991735,6.107421,-1.403246,-0.099216,0.595786,-0.046895,-162.872968,188.495752,1555.721550,921.627565,0
0.010417,-193.171674,69.456009,112.198485,4.997778,5.851874,-4.954286,-1.274067,-5.781825,5.091821,1.176193,-0.154011,0.593957,-0.017021,-188.467497,188.495667,1554.518060,922.995254,0
0.011458,-171.881801,-3.754269,159.606629,5.925198,6.299209,-3.303355,-3.255424,-6.318485,3.522258,3.012042,-0.216112,0.580500,-0.043161,-161.346118,188.646473,1552.474639,923.941634,0
0.012500,-124.458806,-72.518775,187.822538,6.445458,6.114595,-0.699964,-5.307678,-6.053831,0.924505,5.064920,-0.252642,0.578997,-0.039427,-114.997739,188.495631,1550.880160,925.043261,0
0.013542,-45.004590,-127.619778,192.131251,6.535938,4.864897,1.677217,-6.206938,-4.932727,-1.467610,6.004191,-0.252642,0.608132,-0.050629,-37.501621,188.495778,1548.988298,926.592327,0
0.014583,26.475848,-174.517847,162.635038,6.015678,3.047154,3.883750,-6.412163,-3.113231,-3.662480,6.235451,-0.252642,0.622569,-0.039427,34.396048,188.495694,1546.569992,927.518369,0
0.015625,92.931558,-182.442920,105.009091,4.918608,0.544208,5.538649,-5.341260,-0.606369,-5.408304,5.281948,-0.241683,0.608655,-0.017021,97.415366,188.646538,1546.195758,928.000404,0
0.016667,140.853623,-189.691463,17.074432,3.256038,-1.880632,6.391895,-3.826324,1.757138,-6.256036,3.798326,-0.227071,0.605454,-0.069301,143.107765,188.495680,1544.004011,928.601929,0
0.017708,166.623784,-151.829909,-58.463447,1.808358,-3.872338,6.090282,-1.527800,3.826585,-6.058792,1.677849,-0.175929,0.597680,-0.046895,167.051035,188.495683,1542.293762,929.056278,0
0.018750,192.121725,-68.097164,-112.248485,0.813078,-5.700731,5.074325,1.095353,5.682839,-5.080962,-0.930052,-0.095563,0.543983,-0.065566,192.690804,188.495694,1541.075643,929.945575,0
0.019792,171.614484,5.221843,-158.930304,-0.080412,-6.165818,3.482923,3.017009,6.230526,-3.553366,-2.776575,-0.099216,0.583047,-0.073035,166.327195,188.721907,1539.330745,930.494468,0
0.020833,124.327600,72.657449,-187.318561,-0.657222,-5.981203,0.875563,5.117770,5.940142,-0.976597,-4.825894,-0.018850,0.602122,-0.050629,120.318116,188.495711,1537.816996,930.385056,0
0.021875,46.688184,127.782614,-191.811932,-0.725082,-4.770559,-1.465901,5.987179,4.819038,1.373551,-5.797187,-0.015197,0.612117,-0.050629,43.772037,188.495649,1536.513708,931.069940,0
0.022917,-24.996419,174.680683,-162.254167,-0.238752,-2.977668,-3.696245,6.278226,3.039975,3.614585,-6.017773,-0.000585,0.616494,-0.043161,-29.019121,188.495736,1534.556747,932.077582,0
0.023958,-93.051422,182.605756,-104.812879,0.926178,-0.446320,-5.363050,5.192397,0.566195,5.318442,-5.146101,-0.026156,0.599770,-0.073035,-92.852760,188.721958,1532.933379,933.555290,0
0.025000,-140.746637,189.624761,-15.573296,2.577438,1.925266,-6.244076,3.722238,-1.834070,6.203945,-3.662479,-0.044421,0.595328,-0.009553,-138.081449,188.495658,1530.255374,935.509474,0
0.026042,-166.550825,152.560548,59.164394,4.002498,3.931173,-5.986118,1.475953,-3.866760,6.111617,-1.556233,-0.121134,0.592519,-0.035692,-161.888998,188.495655,1528.429348,937.919707,0
0.027083,-191.810574,69.613061,112.875569,5.009088,5.756016,-4.974129,-1.165857,-5.653174,5.100214,1.019648,-0.128440,0.592193,-0.039427,-187.732347,188.495600,1525.439147,939.333731,0
0.028125,-172.596378,-3.234790,159.225000,5.913888,6.249505,-3.362884,-3.050199,-6.325836,3.627175,2.891075,-0.175929,0.603429,-0.054364,-162.036028,188.646491,1524.589921,941.111298,0
0.029167,-125.286809,-72.083862,187.268561,6.456768,6.079092,-0.783305,-5.218125,-6.039128,1.033619,4.933279,-0.230724,0.606891,-0.031958,-115.359659,188.495640,1522.595612,942.030992,0
0.030208,-46.331663,-127.402322,192.229735,6.581178,4.886198,1.574034,-6.080071,-5.028297,-1.341709,5.933034,-0.241683,0.625182,-0.031958,-37.614721,188.495946,1521.452403,943.578240,0
0.031250,26.385108,-174.384957,161.945644,6.004368,3.125260,3.780567,-6.344998,-3.194097,-3.557563,6.199873,-0.259948,0.610157,-0.035692,34.599628,188.495673,1519.579220,944.727764,0
0.032292,93.283176,-182.515406,105.082955,4.941228,0.625864,5.479121,-5.371111,-0.735021,-5.274010,5.313969,-0.270907,0.600620,-0.054364,97.856456,188.646485,1517.472795,946.560693,0
0.033333,140.785568,-189.147822,16.865152,3.233418,-1.717319,6.376020,-3.882294,1.672596,-6.218266,3.890830,-0.190541,0.604213,-0.054364,143.288725,188.571098,1516.166716,948.129759,0
0.034375,166.771237,-152.675573,-58.241856,1.797048,-3.744528,6.070440,-1.669592,3.683231,-6.138529,1.773911,-0.183235,0.602971,-0.050629,166.881385,188.495698,1515.338311,950.292993,0
0.035417,191.237010,-69.836814,-112.888637,0.767838,-5.601324,5.117979,0.983412,5.557864,-5.127126,-0.812643,-0.117481,0.593173,-0.050629,192.249714,188.495651,1513.534630,951.467365,0
0.036458,172.226979,4.726526,-159.004167,-0.103032,-6.151617,3.578169,2.912530,6.204796,-3.616317,-2.726765,-0.095563,0.587685,-0.017021,166.508155,188.571047,1513.123706,952.275509,0
0.037500,124.066722,73.611840,-186.936932,-0.611982,-5.931500,0.954935,5.046874,5.951169,-1.056334,-4.758295,-0.029809,0.598921,-0.046895,119.865716,188.571111,1511.764216,953.693027,0
0.038542,45.519906,127.806776,-192.218182,-0.713772,-4.820262,-1.374624,5.998373,4.852120,1.339978,-5.797187,0.024986,0.603363,-0.031958,43.206538,188.495729,1511.385406,954.693159,0
0.039583,-25.608914,174.656521,-161.946402,-0.193512,-3.045123,-3.700214,6.270763,3.058354,3.572618,-6.071141,-0.004238,0.609308,-0.073035,-28.725061,188.495680,1511.176731,955.718461,0
0.040625,-93.142162,182.678242,-105.465341,0.880938,-0.510225,-5.331302,5.293144,0.584574,5.276475,-5.135427,-0.026156,0.607544,-0.061832,-92.807520,188.571087,1510.738623,955.735422,0
0.041667,-141.188994,189.262334,-16.484280,2.543508,1.896864,-6.236139,3.740894,-1.830394,6.203945,-3.626900,-0.055380,0.598072,-0.039427,-138.296339,188.495787,1510.766456,955.203224,0
0.042708,-166.789018,152.391415,59.250568,3.991188,3.885020,-5.938495,1.449833,-3.888814,6.065454,-1.545560,-0.084604,0.589776,-0.009553,-161.968168,188.495694,1510.629537,954.738676,0
0.043750,-191.889972,68.646589,113.023296,5.020398,5.752466,-4.986035,-1.195708,-5.689932,5.104411,1.062342,-0.168623,0.598987,-0.073035,-187.653177,188.495636,1511.111645,954.703906,0
0.044792,-172.119993,-4.406638,159.348107,5.936508,6.267256,-3.402570,-3.132289,-6.318485,3.593602,2.905307,-0.230724,0.600489,-0.050629,-161.651488,188.571105,1510.762858,954.576915,0
0.045833,-125.093986,-72.410046,187.219319,6.434148,6.103944,-0.739650,-5.236782,-6.079561,1.042012,4.940395,-0.248989,0.606172,-0.039427,-116.004329,188.495698,1510.998244,955.163230,0
0.046875,-47.000870,-127.764749,191.798864,6.502008,4.918151,1.558160,-6.087534,-5.024621,-1.387873,5.929476,-0.230724,0.617996,-0.039427,-38.519521,188.495613,1511.408256,954.642034,0
0.047917,25.148775,-174.505766,162.204167,5.959128,3.111059,3.820252,-6.371118,-3.223503,-3.637300,6.199873,-0.270907,0.613685,-0.005818,34.554388,188.495743,1512.614488,954.200867,0
0.048958,93.441971,-182.297949,104.652084,4.873368,0.593912,5.498963,-5.359917,-0.687236,-5.362141,5.310411,-0.230724,0.603886,-0.020755,98.093966,188.571056,1513.700070,953.747685,0
0.050000,140.592745,-189.425683,16.015720,3.222108,-1.809627,6.368083,-3.867369,1.713029,-6.235053,3.841020,-0.212459,0.597419,-0.058098,143.130385,188.495680,1514.062316,953.126667,0
0.051042,166.453647,-152.156094,-58.906629,1.819668,-3.847486,6.141874,-1.632278,3.767773,-6.125939,1.773911,-0.157664,0.598529,-0.058098,166.994485,188.495758,1514.557606,952.929430,0
0.052083,191.531915,-69.788490,-112.876326,0.790458,-5.658128,5.141791,1.009532,5.561539,-5.160700,-0.830433,-0.132093,0.597876,-0.039427,192.385434,188.495759,1514.978330,953.195277,0
0.053125,171.954759,3.832539,-159.336554,-0.091722,-6.187120,3.542452,2.946113,6.223174,-3.628907,-2.723207,-0.066339,0.606695,-0.043161,166.474225,188.571141,1515.280096,953.272713,0
0.054167,124.690560,73.056119,-187.195455,-0.657222,-5.920849,0.946998,5.099113,5.951169,-1.056334,-4.779642,-0.040768,0.603102,-0.039427,119.763926,188.495767,1515.890089,953.013798,0
0.055208,45.349769,128.072556,-191.885796,-0.713772,-4.816712,-1.418278,5.994642,4.874174,1.377748,-5.804302,-0.029809,0.603167,-0.080503,42.346978,188.495740,1516.210069,953.066112,0
0.056250,-26.618397,174.547793,-161.946402,-0.159582,-3.009621,-3.708151,6.311808,3.117166,3.564225,-6.060467,-0.026156,0.581675,-0.065566,-29.539381,188.495683,1515.724493,954.027485,0
0.057292,-93.550492,182.424543,-105.096023,0.914868,-0.506674,-5.386862,5.308070,0.595601,5.305852,-5.195911,-0.018850,0.604931,-0.050629,-93.045030,188.646554,1516.162431,954.942796,0
0.058333,-141.223022,189.250253,-16.989015,2.577438,1.896864,-6.283762,3.781939,-1.786285,6.283682,-3.690941,-0.059033,0.604278,-0.020755,-138.613019,188.495658,1516.878286,956.247200,0
0.059375,-166.902443,153.019622,58.659659,3.979878,3.909872,-5.986118,1.475953,-3.903517,6.136797,-1.609601,-0.084604,0.600816,-0.065566,-161.945548,188.495656,1517.798048,957.310190,0
0.060417,-191.935342,69.456009,112.949432,4.986468,5.766667,-4.970161,-1.195708,-5.748744,5.133788,1.076573,-0.128440,0.604801,-0.024490,-187.766277,188.495700,1519.005573,957.367299,0
0.061458,-172.324158,-4.950278,159.003410,5.947818,6.299209,-3.382727,-3.143483,-6.351567,3.606192,2.919538,-0.230724,0.617016,-0.058098,-161.685418,188.571094,1519.397171,957.692992,0
0.062500,-124.390751,-73.110739,187.477841,6.445458,6.075541,-0.811085,-5.259170,-6.097940,1.025226,5.007994,-0.263601,0.604670,-0.039427,-115.246559,188.571078,1520.179009,957.970056,0
0.063542,-46.206895,-127.837234,192.020455,6.558558,4.935902,1.570065,-6.165893,-5.024621,-1.413053,5.986402,-0.238030,0.602057,-0.031958,-38.610001,188.495758,1520.898911,958.171404,0
0.064583,25.216830,-174.735303,162.314963,5.993058,3.086207,3.875813,-6.438283,-3.190422,-3.612120,6.260356,-0.267254,0.610027,-0.043161,33.751378,188.495627,1521.327611,958.443351,0
0.065625,93.169751,-182.515406,105.267614,4.895988,0.608113,5.506901,-5.359917,-0.683560,-5.336961,5.338874,-0.248989,0.607414,-0.046895,98.037416,188.571123,1521.508782,958.532427,0
0.066667,141.069130,-189.437764,15.867992,3.222108,-1.809627,6.372052,-3.856175,1.735084,-6.318987,3.823231,-0.201500,0.598464,-0.058098,143.243485,188.571084,1522.645023,958.751644,0
0.067708,166.533044,-151.866152,-59.435985,1.819668,-3.854587,6.126000,-1.602427,3.844964,-6.117546,1.709870,-0.179582,0.595459,-0.024490,166.904005,188.495790,1523.489547,957.918621,0
0.068750,191.985615,-68.314620,-112.839394,0.824388,-5.697181,5.114011,1.043114,5.624027,-5.139716,-0.905147,-0.124787,0.592323,-0.039427,192.724734,188.495725,1524.339394,957.447970,0
0.069792,171.705224,4.352018,-159.595076,-0.080412,-6.240374,3.522609,3.031934,6.201120,-3.603727,-2.797922,-0.073645,0.602514,-0.031958,166.338505,188.495725,1524.728322,956.810598,0
0.070833,124.758615,72.778258,-187.675569,-0.657222,-6.016706,0.867626,5.177472,5.976899,-0.976597,-4.872146,-0.029809,0.611660,-0.043161,120.340736,188.571058,1526.571950,955.993304,0
0.071875,46.381936,128.072556,-192.070455,-0.736392,-4.791860,-1.541304,6.061807,4.870498,1.407125,-5.850554,-0.022503,0.601730,-0.031958,42.516628,188.495647,1527.736856,955.601584,0
0.072917,-26.992699,174.584036,-162.414205,-0.182202,-2.917313,-3.835146,6.323002,2.984839,3.706912,-6.088930,-0.007891,0.593826,-0.069301,-30.840031,188.495674,1529.867343,953.697646,0
0.073958,-93.845397,183.016507,-103.704925,0.971418,-0.389515,-5.478139,5.255831,0.477977,5.440146,-5.131869,-0.048074,0.606760,-0.073035,-93.316470,188.495767,1531.475940,952.293997,0
0.075000,-141.234364,189.793894,-15.684091,2.622678,1.999822,-6.295668,3.696118,-1.959045,6.350829,-3.616227,-0.044421,0.601208,-0.046895,-138.601709,188.495673,1533.592397,950.857168,0
0.076042,-167.174663,151.871936,58.487311,3.991188,4.062534,-6.001992,1.319235,-3.984384,6.107421,-1.474403,-0.106522,0.595916,-0.046895,-162.929518,188.495598,1534.302636,948.876623,0
0.077083,-193.251072,69.166068,112.690909,4.986468,5.919329,-4.922538,-1.344963,-5.814907,5.087624,1.179751,-0.139399,0.591670,-0.061832,-188.501427,188.495734,1535.961222,947.667734,0
0.078125,-171.462128,-4.177101,159.975947,5.891268,6.345363,-3.271607,-3.262887,-6.403027,3.425734,3.108104,-0.190541,0.595590,-0.035692,-160.984198,188.571147,1538.438972,944.654371,0
0.079167,-124.152559,-73.050334,187.994887,6.456768,6.071991,-0.628530,-5.393499,-6.075885,0.802801,5.125403,-0.256295,0.586575,-0.039427,-114.895949,188.495714,1540.740235,941.886881,0
0.080208,-44.732370,-128.211742,191.934281,6.535938,4.850695,1.764526,-6.203206,-4.925376,-1.576724,6.057559,-0.278213,0.606630,-0.050629,-37.218871,188.495794,1542.164675,940.075071,0
0.081250,27.179083,-174.662818,163.004357,6.038298,3.029403,4.018682,-6.456940,-3.091176,-3.855528,6.263914,-0.252642,0.620674,-0.039427,35.199058,188.495738,1544.892854,938.395736,0
0.082292,93.453313,-182.563729,104.504356,4.907298,0.437700,5.633895,-5.378574,-0.547557,-5.488042,5.331758,-0.248989,0.606630,-0.024490,97.845146,188.571174,1547.189743,937.159785,0
0.083333,141.432090,-190.065971,16.495833,3.256038,-1.987140,6.463329,-3.759159,1.889465,-6.432297,3.752074,-0.168623,0.599575,-0.020755,143.367895,188.495658,1550.192377,935.651605,0
0.084375,167.020772,-150.863437,-58.955871,1.785738,-4.017900,6.094251,-1.445710,3.973615,-6.083972,1.556883,-0.157664,0.596635,-0.050629,167.786185,188.495664,1551.601120,933.215322,0
0.085417,193.505510,-66.732022,-112.371591,0.801768,-5.807240,5.074325,1.225951,5.789436,-5.076766,-1.072366,-0.110175,0.580761,-0.058098,193.572984,188.496156,1554.454934,931.588996,0
0.086458,170.650372,5.729241,-159.902841,-0.069102,-6.243924,3.415457,3.162532,6.311392,-3.528186,-2.972256,-0.055380,0.579977,-0.035692,165.648595,188.571096,1556.758776,930.766784,0
0.087500,123.805845,73.128604,-188.241857,-0.645912,-6.069960,0.708883,5.319264,6.006305,-0.842303,-5.018018,-0.011544,0.600228,-0.054364,120.080606,188.495651,1559.116615,929.670967,0
0.088542,46.121059,128.374578,-191.516478,-0.679842,-4.770559,-1.652425,6.128971,4.804335,1.570796,-5.953732,-0.004238,0.613423,-0.031958,42.980338,188.495622,1561.225026,927.958695,0
0.089583,-26.777192,174.886059,-163.103599,-0.148272,-2.853408,-3.970078,6.330465,2.922351,3.849600,-6.138740,0.003068,0.617082,-0.039427,-30.873961,188.495649,1563.741453,926.891014,0
0.090625,-93.822712,183.016507,-103.310985,0.948798,-0.247504,-5.565448,5.184935,0.349326,5.519884,-5.124754,-0.018850,0.604931,-0.024490,-93.158130,188.571051,1565.256459,925.548064,0
0.091667,-141.257049,190.530829,-14.662311,2.611368,2.148934,-6.426631,3.614028,-2.084021,6.413779,-3.566417,-0.080951,0.598072,-0.065566,-138.420749,188.495689,1567.086237,924.681245,0
0.092708,-167.027211,150.941707,59.201326,3.979878,4.193894,-6.037710,1.240877,-4.157144,6.120011,-1.353436,-0.102869,0.594218,-0.058098,-163.144408,188.495711,1569.051478,923.115682,0
0.093750,-194.249212,67.668035,112.272349,5.009088,5.958382,-4.930475,-1.404665,-5.917828,5.054051,1.318507,-0.161317,0.595851,-0.050629,-189.180027,188.495721,1570.960940,921.916105,0
0.094792,-171.155881,-3.754269,160.394508,5.936508,6.437670,-3.220015,-3.397216,-6.417730,3.438324,3.211281,-0.164970,0.601796,-0.065566,-160.927648,188.495658,1572.246457,921.502000,0
0.095833,-124.186586,-72.410046,188.745834,6.479388,6.121695,-0.553127,-5.486783,-6.145725,0.756637,5.225023,-0.245336,0.602645,-0.058098,-114.850709,188.571055,1574.449874,921.373140,0
0.096875,-45.129358,-128.175499,191.798864,6.547248,4.804542,1.828023,-6.289028,-4.862888,-1.652264,6.121600,-0.296478,0.597419,-0.035692,-36.449791,188.495765,1575.697372,920.083709,0
0.097917,28.653608,-174.662818,163.385985,6.049608,2.919344,4.121865,-6.464402,-3.028689,-3.880708,6.285261,-0.281866,0.610157,-0.028224,36.759838,188.495716,1576.141132,919.893625,0
0.098958,93.668821,-183.107370,103.199432,4.895988,0.295688,5.756921,-5.315140,-0.429933,-5.576172,5.289064,-0.227071,0.607805,-0.058098,97.946936,188.495774,1577.358234,918.683761,0
0.100000,141.409405,-190.537126,15.806439,3.210798,-2.114950,6.562544,-3.718114,2.025468,-6.444888,3.709380,-0.175929,0.600750,-0.061832,143.661955,188.571160,1578.705529,917.463460,0
0.101042,167.678637,-150.476848,-58.352652,1.808358,-4.131508,6.149811,-1.277798,4.109618,-6.176299,1.492841,-0.183235,0.598464,-0.043161,168.736225,188.495763,1581.313118,917.051432,0
0.102083,194.809898,-66.876992,-112.088447,0.813078,-5.935050,5.054482,1.356549,5.907060,-5.059979,-1.214680,-0.099216,0.604474,-0.054364,194.285514,188.495727,1584.151609,915.733718,0
0.103125,170.196672,5.789645,-160.481440,-0.125652,-6.346882,3.288462,3.322981,6.432692,-3.389695,-3.114570,-0.059033,0.575012,-0.058098,165.139645,188.495655,1586.793936,914.080810,0
0.104167,122.864417,73.865539,-188.758902,-0.691152,-6.062860,0.597762,5.453593,6.076144,-0.728992,-5.160332,0.014027,0.572269,-0.046895,119.334146,188.571078,1589.287332,913.749752,0
0.105208,44.317601,128.821572,-191.836554,-0.713772,-4.724405,-1.799262,6.252106,4.741847,1.688303,-6.032004,-0.007891,0.602514,-0.043161,41.747548,188.495731,1590.608510,912.949082,0
0.106250,-28.274402,174.584036,-163.953031,-0.216132,-2.771752,-4.105009,6.397630,2.823106,4.034254,-6.209897,0.014027,0.615840,-0.028224,-31.462081,188.495729,1593.456974,911.819143,0
0.107292,-93.652575,183.741361,-102.535417,0.994038,-0.087742,-5.712286,5.181203,0.191269,5.679358,-5.082059,-0.022503,0.609047,-0.073035,-92.852760,188.495740,1596.020518,909.957489,0
0.108333,-141.812832,190.881175,-14.699242,2.588748,2.315797,-6.506003,3.558057,-2.278836,6.518696,-3.456123,-0.062686,0.599575,-0.061832,-138.703499,188.571149,1599.029952,907.888861,0
0.109375,-168.036693,149.274542,59.164394,4.002498,4.346556,-6.009930,1.054308,-4.300498,6.178764,-1.186217,-0.095563,0.591213,-0.076769,-164.478988,188.495696,1601.299461,906.419517,0
0.110417,-195.701052,65.312259,111.853788,5.020398,6.174949,-4.882852,-1.632278,-6.061182,4.982707,1.471494,-0.201500,0.592781,-0.058098,-189.892557,188.495731,1603.506461,905.018740,0
