1-Time,2-VGERA,3-VGERB,4-VGERC,5-VN,6-IGERAN,7-IGERBN,8-IGERCN,9-IGERAT,10-IGERBT,11-IGERCT,12-IN,13-IFD,14-IFAULT,15-VFAULT,16-Speed (rad/s),17-Active Power,18-Reactive Power,19-FAULT 
0.000000,151.834198,-164.654705,9.301044,0.438121,-6.775519,3.497003,3.542674,6.850060,-3.577775,-3.451679,-0.068979,0.327847,-0.074856,-148.603416,188.269492,1546.132879,-914.693328,0
0.001042,196.073406,-99.458154,-40.873209,-0.518919,-6.342521,0.958665,5.412433,6.335026,-1.070875,-5.279831,0.022176,0.335081,-0.071140,-173.833322,188.420108,1547.775309,-915.803618,0
0.002083,190.943240,-44.632447,-113.722481,-1.937591,-5.215993,-1.507264,6.445721,5.406514,1.414887,-6.532665,-0.010640,0.337975,-0.078573,-173.169081,188.420278,1548.033969,-916.853178,0
0.003125,145.246342,6.822443,-179.620996,-3.187373,-3.410613,-3.647352,6.627398,3.542236,3.524402,-6.665139,0.036760,0.348310,-0.086006,-147.736525,188.495712,1548.407721,-918.196148,0
0.004167,86.769228,59.369618,-206.111641,-3.637746,-0.647500,-5.413327,5.556261,1.035979,5.405634,-5.673471,0.014883,0.333634,-0.067423,-100.181362,188.269454,1548.117115,-918.569983,0
0.005208,32.947684,137.039369,-178.867593,-3.266189,2.071580,-6.559803,4.046071,-1.492040,6.470960,-4.068633,-0.025225,0.302974,-0.063706,-30.503591,188.420247,1548.310624,-918.539624,0
0.006250,-18.071479,187.108347,-126.408826,-2.196555,4.133823,-6.225917,1.684269,-3.595700,6.373728,-1.839271,-0.098148,0.331981,-0.048839,33.252301,188.420349,1548.500004,-918.761597,0
0.007292,-79.610872,196.198985,-62.892038,-0.946773,6.163042,-5.268509,-1.173359,-5.488994,5.274582,1.135735,-0.098148,0.318476,-0.052556,98.922109,188.495609,1548.647131,-919.528576,0
0.008333,-151.964294,164.276048,-8.914312,0.100342,6.874920,-3.454261,-3.353483,-6.286934,3.647000,3.368882,-0.182010,0.325297,-0.037689,149.258078,188.269407,1549.091173,-920.120557,0
0.009375,-196.226102,99.443592,41.174878,1.079901,6.386880,-0.899833,-5.223242,-5.764646,1.140100,5.231100,-0.222118,0.334392,-0.048839,174.420434,188.420403,1549.781086,-920.595406,0
0.010417,-191.107236,45.545741,114.340094,2.453536,5.238335,1.566096,-6.248960,-4.828880,-1.375254,6.446083,-0.236703,0.334805,-0.086006,174.105201,188.420403,1549.887329,-921.533183,0
0.011458,-145.319938,-6.331969,179.983424,3.759615,3.462310,3.690094,-6.434422,-2.993618,-3.450950,6.559633,-0.265872,0.350446,-0.093440,148.436220,188.495631,1550.180649,-921.875343,0
0.012500,-87.328721,-59.184514,206.291793,4.243765,0.666172,5.524455,-5.336790,-0.418448,-5.382911,5.609599,-0.229410,0.350377,-0.063706,100.903574,188.269537,1550.470074,-922.444183,0
0.013542,-32.930881,-137.335811,178.950532,3.804652,-2.041899,6.630704,-3.788751,2.145841,-6.435555,3.963126,-0.211179,0.338871,-0.063706,30.809245,188.420251,1550.213100,-922.527487,0
0.014583,18.178681,-187.346064,126.370249,2.757537,-4.089465,6.300840,-1.483724,4.158826,-6.287593,1.752689,-0.171072,0.349688,-0.067423,-32.912873,188.420345,1550.411915,-922.317742,0
0.015625,79.853674,-196.554152,62.403849,1.496495,-6.173726,5.291137,1.385259,6.095644,-5.243404,-1.226102,-0.094502,0.330189,-0.037689,-98.605197,188.495673,1550.732975,-922.139311,0
0.016667,151.675999,-164.114434,8.608398,0.494418,-6.823222,3.505048,3.531319,6.882703,-3.624277,-3.478174,-0.068979,0.325711,-0.063706,-148.580900,188.269541,1551.460912,-921.999890,0
0.017708,196.344604,-98.671238,-40.751692,-0.462623,-6.382886,0.954642,5.431358,6.364042,-1.083558,-5.298756,0.018530,0.334874,-0.052556,-174.227363,188.344858,1551.959125,-921.918000,0
0.018750,190.909340,-45.266677,-114.001969,-1.903813,-5.274705,-1.499218,6.472216,5.428276,1.372612,-6.532665,0.022176,0.341351,-0.063706,-173.754514,188.420301,1552.403553,-921.630377,0
0.019792,145.257642,5.835862,-180.532372,-3.221151,-3.454646,-3.679534,6.653893,3.596641,3.511720,-6.714344,0.054991,0.344727,-0.078573,-148.423283,188.495799,1553.589794,-921.787686,0
0.020833,88.057420,59.287403,-206.111641,-3.682783,-0.596127,-5.497804,5.567616,0.992455,5.469046,-5.703751,-0.025225,0.332394,-0.071140,-100.699245,188.344851,1554.018842,-923.396238,0
0.021875,33.953377,137.873265,-178.867593,-3.164855,2.078919,-6.660371,4.004436,-1.568207,6.559738,-4.114053,-0.025225,0.338388,-0.056273,-30.548624,188.269541,1555.318211,-925.057355,0
0.022917,-17.732481,187.026132,-126.372371,-2.185296,4.218221,-6.306372,1.646420,-3.639224,6.428686,-1.812776,-0.083563,0.336804,-0.059989,33.364884,188.420316,1555.647929,-926.037060,0
0.023958,-80.221068,196.551336,-62.308758,-0.935513,6.273126,-5.244373,-1.218778,-5.554280,5.304174,1.177370,-0.120025,0.313102,-0.086006,99.417475,188.495754,1556.546548,-926.799354,0
0.025000,-151.433198,163.700542,-8.136605,0.089083,6.918953,-3.462307,-3.432967,-6.359474,3.604725,3.418087,-0.185656,0.323713,-0.030256,148.841520,188.344901,1556.589031,-927.618638,0
0.026042,-197.152696,97.799291,41.089817,1.091161,6.463939,-0.875696,-5.268661,-5.797289,1.131645,5.321939,-0.200241,0.334943,-0.078573,174.420434,188.269404,1557.460244,-928.243254,0
0.027083,-190.474440,43.948419,114.157819,2.509832,5.322733,1.574142,-6.286810,-4.825253,-1.349889,6.465008,-0.269518,0.332394,-0.056273,173.621093,188.420200,1557.514014,-927.363721,0
0.028125,-144.382044,-6.202774,181.052771,3.804652,3.491666,3.714230,-6.498766,-3.026261,-3.505907,6.593698,-0.269518,0.356991,-0.119457,148.942845,188.420307,1558.463638,-927.733409,0
0.029167,-87.633819,-59.067064,205.878637,4.277543,0.629477,5.556637,-5.370855,-0.393059,-5.416731,5.624739,-0.243995,0.340938,-0.052556,101.522782,188.345008,1558.475012,-928.383519,0
0.030208,-34.083473,-138.251922,178.986987,3.804652,-2.012544,6.723226,-3.872019,2.174857,-6.528560,4.042611,-0.196595,0.335426,-0.074856,31.225803,188.269400,1560.329169,-929.478934,0
0.031250,17.636285,-186.817539,126.795557,2.780056,-4.122490,6.341068,-1.510218,4.184215,-6.355233,1.764044,-0.141902,0.347759,-0.082290,-32.518831,188.420283,1560.905737,-930.216335,0
0.032292,80.316971,-196.965227,63.120798,1.541533,-6.210420,5.335387,1.404184,6.160930,-5.230722,-1.267737,-0.101794,0.323024,-0.048839,-98.897913,188.420394,1561.211828,-931.596750,0
0.033333,151.427401,-163.832554,9.021555,0.494418,-6.856248,3.505048,3.607018,6.929854,-3.636959,-3.493314,-0.050748,0.325711,-0.030256,-148.085534,188.420267,1561.519114,-932.081629,0
0.034375,197.056499,-98.072243,-40.605872,-0.485141,-6.423250,0.954642,5.469207,6.374923,-1.079330,-5.393381,-0.017932,0.332601,-0.082290,-173.945905,188.269510,1562.168109,-933.065449,0
0.035417,190.344344,-44.056941,-113.564509,-1.892554,-5.274705,-1.515309,6.513850,5.446411,1.440252,-6.608364,0.003945,0.332876,-0.048839,-172.617423,188.420330,1562.470244,-933.838259,0
0.036458,144.285848,6.552307,-180.653888,-3.243670,-3.410613,-3.663443,6.691742,3.640165,3.558222,-6.752194,0.007591,0.329638,-0.074856,-147.781559,188.420323,1563.353645,-933.709049,0
0.037500,86.531930,59.299148,-205.917214,-3.694042,-0.625483,-5.534009,5.548691,0.992455,5.469046,-5.730246,0.000299,0.344176,-0.074856,-100.597920,188.420334,1563.525801,-933.058230,0
0.038542,33.546580,137.755815,-178.879744,-3.221151,2.086258,-6.648303,4.068780,-1.589969,6.580875,-4.117838,-0.017932,0.336046,-0.059989,-30.987699,188.269375,1563.698820,-933.294182,0
0.039583,-17.336984,186.849957,-126.785528,-2.241592,4.100798,-6.314417,1.669130,-3.606581,6.437141,-1.850626,-0.090856,0.326675,-0.071140,32.779452,188.420235,1563.925451,-932.941124,0
0.040625,-80.187169,196.621806,-63.451015,-0.935513,6.232762,-5.268509,-1.233918,-5.536145,5.287264,1.147090,-0.149195,0.324746,-0.071140,99.271117,188.420314,1563.714972,-932.960292,0
0.041667,-151.851295,164.041148,-9.096587,0.055305,6.904275,-3.434148,-3.406472,-6.297815,3.655455,3.406732,-0.211179,0.325573,-0.067423,148.897812,188.420352,1563.699379,-932.604724,0
0.042708,-196.994497,98.597951,40.798177,0.989827,6.463939,-0.855583,-5.291371,-5.779154,1.152783,5.291660,-0.240349,0.334392,-0.067423,174.431692,188.269454,1563.434149,-932.417890,0
0.043750,-190.474440,44.664865,114.036302,2.453536,5.297046,1.578164,-6.271670,-4.828880,-1.392164,6.442298,-0.251287,0.339560,-0.059989,173.452218,188.344914,1563.037574,-932.969853,0
0.044792,-144.359445,-6.355459,180.700373,3.782133,3.436624,3.726298,-6.472272,-3.029888,-3.548182,6.578558,-0.254934,0.350652,-0.059989,148.256087,188.420271,1562.834208,-933.271077,0
0.045833,-86.560327,-59.020084,206.303945,4.243765,0.636816,5.568705,-5.382210,-0.393059,-5.450551,5.620954,-0.236703,0.335977,-0.063706,100.858541,188.420265,1563.051864,-933.278455,0
0.046875,-32.535384,-137.723397,178.950532,3.804652,-2.027221,6.727249,-3.853095,2.185738,-6.460920,3.985836,-0.192949,0.318752,-0.056273,30.854278,188.269492,1561.765443,-932.538447,0
0.047917,17.896183,-187.287339,126.273035,2.768796,-4.107813,6.341068,-1.498863,4.238620,-6.372143,1.748904,-0.138256,0.327847,-0.041406,-32.518831,188.344887,1562.125742,-933.070458,0
0.048958,80.181372,-196.824287,63.412438,1.507755,-6.239776,5.319296,1.400399,6.128287,-5.272997,-1.218532,-0.116379,0.318545,-0.033973,-98.819105,188.420406,1562.539657,-932.315106,0
0.050000,151.788998,-164.220139,9.762807,0.483158,-6.834231,3.492980,3.603233,6.937108,-3.624277,-3.481959,-0.050748,0.328122,-0.056273,-148.434542,188.420345,1562.558403,-932.678002,0
0.051042,197.124299,-99.293724,-40.508659,-0.485141,-6.375547,1.006938,5.499487,6.425701,-1.104695,-5.385811,0.007591,0.339422,-0.071140,-174.373722,188.269366,1563.366454,-933.020838,0
0.052083,190.638142,-45.548557,-113.929059,-1.870035,-5.271035,-1.523355,6.536560,5.439157,1.402204,-6.604580,0.000299,0.341902,-0.059989,-173.281664,188.344943,1563.507063,-933.222341,0
0.053125,144.466647,5.812372,-180.909073,-3.198633,-3.432630,-3.707693,6.703097,3.589387,3.579360,-6.763549,0.003945,0.332325,-0.074856,-147.972950,188.420280,1563.129143,-934.160777,0
0.054167,87.017826,59.087737,-206.160247,-3.694042,-0.577780,-5.562168,5.571401,0.999709,5.507094,-5.715106,0.011237,0.334874,-0.089723,-100.395270,188.420249,1563.233252,-934.768543,0
0.055208,33.275382,137.990715,-178.709621,-3.198633,2.104605,-6.684508,4.049856,-1.648001,6.593558,-4.079988,-0.036163,0.334737,-0.078573,-30.222133,188.269595,1562.865315,-935.475287,0
0.056250,-17.687282,186.979152,-125.837697,-2.196555,4.203543,-6.290281,1.650205,-3.642851,6.399093,-1.801421,-0.072625,0.288642,-0.074856,33.263559,188.269481,1562.141954,-935.645534,0
0.057292,-80.130669,196.868451,-62.247999,-0.890476,6.320829,-5.292646,-1.230133,-5.576042,5.308402,1.184940,-0.123671,0.311448,-0.086006,99.541317,188.420242,1562.574931,-935.979391,0
0.058333,-151.308899,163.453897,-8.719886,0.111601,6.904275,-3.422080,-3.440536,-6.363101,3.630090,3.448367,-0.178364,0.323850,-0.052556,148.672645,188.495712,1562.631822,-936.710960,0
0.059375,-197.536893,98.468756,40.798177,1.068642,6.471278,-0.859606,-5.333005,-5.858948,1.059778,5.299229,-0.258580,0.333221,-0.071140,174.915800,188.269519,1563.062403,-937.805531,0
0.060417,-190.350141,45.557486,114.376549,2.498573,5.297046,1.586210,-6.309519,-4.832507,-1.383709,6.510428,-0.240349,0.339077,-0.063706,173.857517,188.194186,1563.690472,-938.587497,0
0.061458,-144.788842,-5.251428,181.465928,3.770874,3.458640,3.774571,-6.494981,-3.055277,-3.543955,6.665613,-0.280457,0.347345,-0.063706,148.954103,188.420316,1564.999688,-939.393352,0
0.062500,-87.859818,-58.855654,205.890788,4.243765,0.629477,5.588818,-5.344360,-0.396686,-5.408276,5.617169,-0.243995,0.347139,-0.082290,101.286357,188.420285,1564.616476,-939.404071,0
0.063542,-33.541077,-138.275412,179.120656,3.703318,-2.104280,6.731272,-3.826600,2.225635,-6.566607,4.057751,-0.163779,0.338457,-0.112023,30.843020,188.269561,1566.374529,-940.766752,0
0.064583,17.670185,-186.817539,126.066457,2.768796,-4.206888,6.324977,-1.453444,4.271263,-6.308731,1.718624,-0.152841,0.332049,-0.063706,-32.698964,188.194119,1565.222168,-941.092937,0
0.065625,80.158772,-197.223618,62.464607,1.507755,-6.258124,5.275046,1.430679,6.193573,-5.247632,-1.282877,-0.105440,0.312206,-0.056273,-98.999238,188.420256,1565.196612,-942.125378,0
0.066667,151.144903,-163.491949,8.863583,0.483158,-6.841570,3.492980,3.591878,6.937108,-3.535500,-3.519809,-0.072625,0.324126,-0.074856,-147.804075,188.420316,1564.041779,-942.480037,0
0.067708,197.225998,-97.696402,-40.508659,-0.440104,-6.393894,0.934529,5.465422,6.371296,-1.066648,-5.329036,0.003945,0.332187,-0.059989,-174.069747,188.269518,1562.853327,-941.420705,0
0.068750,190.276544,-44.397546,-113.686026,-1.903813,-5.227002,-1.527377,6.506280,5.417395,1.397977,-6.555375,0.007591,0.335563,-0.056273,-173.180339,188.269664,1562.121056,-940.464870,0
0.069792,144.658746,5.647942,-180.836163,-3.187373,-3.410613,-3.663443,6.680387,3.629284,3.570905,-6.680279,0.022176,0.337079,-0.074856,-148.569641,188.420374,1561.586317,-939.828266,0
0.070833,88.193019,59.075992,-205.698484,-3.682783,-0.581449,-5.497804,5.510842,0.977947,5.422544,-5.715106,-0.043455,0.344107,-0.086006,-101.127062,188.420338,1560.891274,-939.554471,0
0.071875,34.405374,137.755815,-178.879744,-3.209892,2.056902,-6.612099,4.012006,-1.582715,6.513235,-4.079988,-0.050748,0.341213,-0.089723,-30.875116,188.269474,1560.177980,-938.752810,0
0.072916,-17.235285,186.943917,-126.372371,-2.174036,4.148501,-6.274190,1.631280,-3.621089,6.369501,-1.808991,-0.098148,0.339077,-0.067423,33.038393,188.194054,1559.804308,-938.704181,0
0.073958,-79.938570,196.504356,-62.636853,-0.980551,6.247440,-5.220237,-1.218778,-5.518010,5.266127,1.196295,-0.167425,0.324333,-0.074856,99.158534,188.420283,1558.697733,-938.417507,0
0.075000,-151.546197,163.782757,-8.549762,0.089083,6.871250,-3.430125,-3.429182,-6.290561,3.604725,3.406732,-0.207533,0.321990,-0.086006,148.717678,188.420287,1557.993203,-937.625258,0
0.076042,-196.779798,97.881506,40.810328,1.001086,6.390549,-0.887765,-5.261092,-5.728376,1.042868,5.291660,-0.218472,0.328398,-0.086006,174.093942,188.269548,1556.048437,-937.038878,0
0.077083,-190.587439,43.995400,113.939089,2.509832,5.271360,1.566096,-6.279240,-4.821626,-1.392164,6.449868,-0.258580,0.318683,-0.089723,173.339634,188.194260,1555.452479,-936.112504,0
0.078125,-144.246445,-6.461164,180.420884,3.804652,3.370573,3.722275,-6.449562,-2.975483,-3.488997,6.555848,-0.258580,0.326813,-0.033973,148.469995,188.420367,1553.214138,-934.763109,0
0.079167,-86.673326,-58.937869,206.109518,4.288802,0.647824,5.544569,-5.333005,-0.414821,-5.378684,5.571749,-0.236703,0.346243,-0.041406,101.466490,188.420372,1552.702508,-933.814256,0
0.080208,-33.495877,-137.570711,178.889774,3.782133,-2.041899,6.638749,-3.822815,2.218381,-6.473603,3.982051,-0.200241,0.323713,-0.059989,31.417194,188.269561,1550.749151,-933.298659,0
0.081250,17.331187,-187.122909,126.856316,2.791315,-4.089465,6.300840,-1.453444,4.205977,-6.287593,1.733764,-0.145548,0.330120,-0.067423,-32.417506,188.269521,1550.636671,-932.827459,0
0.082292,80.113572,-196.695092,63.691926,1.485236,-6.162717,5.279069,1.430679,6.131914,-5.213812,-1.207177,-0.101794,0.316134,-0.086006,-98.672747,188.420298,1549.987123,-931.858891,0
0.083333,151.766399,-164.126179,9.386105,0.460640,-6.801206,3.444707,3.561599,6.846433,-3.586230,-3.489529,-0.043455,0.326055,-0.071140,-148.288183,188.420383,1549.952900,-931.022589,0
0.084375,196.593202,-98.518553,-40.508659,-0.473882,-6.338852,0.906370,5.450283,6.320518,-1.058193,-5.336606,-0.010640,0.332463,-0.045123,-173.855839,188.269534,1549.167308,-931.308476,0
0.085417,190.638142,-44.350566,-113.479447,-1.892554,-5.201315,-1.539446,6.453291,5.381125,1.444479,-6.551590,0.003945,0.346863,-0.048839,-172.865106,188.269566,1548.601539,-931.944420,0
0.086458,144.376247,6.423112,-180.362248,-3.176114,-3.377587,-3.703670,6.657678,3.534982,3.532857,-6.680279,0.011237,0.337148,-0.033973,-147.612684,188.344934,1547.587464,-931.700037,0
0.087500,86.441530,59.064247,-206.257461,-3.716561,-0.555763,-5.477691,5.533551,0.945304,5.439454,-5.643191,0.000299,0.337906,-0.033973,-100.305204,188.420341,1546.738862,-931.548318,0
0.088542,33.026783,137.473935,-178.636711,-3.209892,2.093597,-6.583939,4.008221,-1.626239,6.517463,-4.072418,-0.047102,0.346863,-0.033973,-30.627433,188.269572,1546.569123,-931.493579,0
0.089583,-17.675982,186.838212,-126.408826,-2.230333,4.185196,-6.258099,1.653990,-3.613835,6.394866,-1.801421,-0.109087,0.319165,-0.056273,32.970843,188.269483,1546.837911,-931.427092,0
0.090625,-80.164569,196.316435,-63.378105,-0.935513,6.240101,-5.216214,-1.241488,-5.525264,5.240762,1.192510,-0.152841,0.318476,-0.059989,99.090984,188.344869,1546.584946,-931.697652,0
0.091667,-151.738296,163.900208,-9.145194,0.055305,6.878589,-3.405989,-3.406472,-6.286934,3.583587,3.410517,-0.182010,0.324746,-0.071140,148.852778,188.420287,1546.309110,-932.071519,0
0.092708,-196.847598,98.903322,40.883238,1.068642,6.430913,-0.823401,-5.291371,-5.768273,1.064005,5.291660,-0.222118,0.330740,-0.037689,174.499242,188.269489,1547.034146,-932.382487,0
0.093750,-190.632639,44.981980,114.048454,2.476055,5.275030,1.626437,-6.290595,-4.810745,-1.387937,6.446083,-0.251287,0.337906,-0.052556,173.508509,188.269445,1546.872002,-932.715649,0
0.094792,-144.596743,-6.085323,180.591008,3.793393,3.410937,3.738366,-6.457132,-2.960975,-3.531272,6.570988,-0.243995,0.349412,-0.071140,148.413704,188.269510,1546.981776,-933.621742,0
0.095833,-86.944524,-58.890889,206.158125,4.266283,0.537740,5.532500,-5.306511,-0.374924,-5.399821,5.530114,-0.262226,0.337975,-0.048839,100.914832,188.420374,1546.356961,-934.314218,0
0.096875,-32.840482,-137.558966,179.023442,3.793393,-2.096941,6.674954,-3.762256,2.218381,-6.448238,3.932846,-0.225764,0.320336,-0.052556,30.854278,188.269415,1545.697976,-934.108336,0
0.097917,17.873583,-186.782304,126.042154,2.757537,-4.133499,6.292795,-1.457229,4.238620,-6.300276,1.673204,-0.152841,0.325228,-0.078573,-32.563865,188.269474,1545.296906,-934.463231,0
0.098958,79.785874,-196.730327,62.671186,1.575311,-6.170056,5.234819,1.464743,6.150049,-5.167310,-1.301802,-0.068979,0.314135,-0.059989,-98.548905,188.269509,1544.363996,-935.328924,0
0.100000,151.314402,-163.844299,9.337499,0.550714,-6.801206,3.468844,3.607018,6.886330,-3.565092,-3.497099,-0.061686,0.323988,-0.056273,-148.243150,188.420226,1544.282932,-935.693149,0
0.101042,196.480203,-99.246744,-40.520810,-0.485141,-6.338852,0.918438,5.401078,6.306010,-1.041283,-5.310111,0.036760,0.332532,-0.063706,-174.204847,188.344966,1543.904385,-935.785363,0
0.102083,190.615542,-45.724733,-113.758936,-1.892554,-5.179299,-1.555536,6.423012,5.355736,1.410659,-6.494815,0.007591,0.335632,-0.033973,-173.461797,188.269472,1543.282896,-935.485667,0
0.103125,145.302841,5.671432,-179.961243,-3.243670,-3.348232,-3.691602,6.566839,3.495085,3.520175,-6.634859,0.007591,0.347070,-0.056273,-148.186858,188.269622,1542.251852,-935.912797,0
0.104167,87.695822,58.982032,-205.844304,-3.716561,-0.515399,-5.453554,5.465422,0.945304,5.439454,-5.605341,0.011237,0.342729,-0.082290,-100.654212,188.420278,1541.689308,-936.326474,0
0.105208,33.817778,136.898429,-178.794683,-3.187373,2.111944,-6.547735,3.947662,-1.611731,6.466733,-4.023213,-0.054394,0.337699,-0.078573,-30.796308,188.345153,1540.464156,-936.383741,0
0.106250,-17.562982,186.861702,-126.032124,-2.207814,4.148501,-6.145463,1.612356,-3.617462,6.314543,-1.752216,-0.068979,0.330878,-0.059989,33.173493,188.269550,1539.118457,-936.409130,0
0.107292,-79.192775,196.210730,-62.235848,-0.946773,6.137356,-5.155873,-1.271767,-5.467232,5.143530,1.219005,-0.160133,0.320199,-0.059989,98.730717,188.269449,1537.217785,-935.909350,0
0.108333,-151.308899,163.817992,-8.367487,0.066564,6.786852,-3.361739,-3.383762,-6.207140,3.575132,3.384022,-0.192949,0.319647,-0.041406,148.728937,188.420405,1536.380663,-934.836193,0
0.109375,-195.853204,98.316071,40.725267,1.068642,6.309821,-0.819378,-5.211887,-5.652209,1.059778,5.219745,-0.262226,0.327433,-0.063706,173.936326,188.344916,1534.295069,-933.485483,0
