1-Time,2-VGERA,3-VGERB,4-VGERC,5-VN,6-IGERAN,7-IGERBN,8-IGERCN,9-IGERAT,10-IGERBT,11-IGERCT,12-IN,13-IFD,14-IFAULT,15-VFAULT,16-Speed (rad/s),17-Active Power,18-Reactive Power,19-FAULT 
0.000000,-55.666541,-98.698094,197.055493,6.603798,-0.563479,6.320460,-4.863645,0.933770,-6.193086,4.908374,-0.241683,0.320702,-0.087972,-16.114411,188.496386,1529.326827,-925.667787,0
0.001041,-9.729414,-165.940405,151.469319,5.812098,-3.098378,6.677633,-2.830048,3.356089,-6.512035,2.844823,-0.186888,0.316848,-0.043161,-5.811001,188.714878,1527.264884,-924.961578,0
0.002083,41.640771,-207.232935,88.586743,4.624548,-5.136237,5.911696,-0.009132,5.539485,-5.844761,0.229806,-0.139399,0.305743,-0.061832,0.805348,188.646581,1526.034719,-924.804769,0
0.003124,118.157279,-178.697840,38.285606,3.629268,-6.432089,4.407603,2.576707,6.763510,-4.371721,-2.296265,-0.066339,0.300974,-0.050629,16.594108,188.571916,1525.194035,-925.007554,0
0.004166,182.423887,-131.038674,-10.489015,2.713158,-6.481793,2.407437,4.386421,7.017137,-2.428653,-4.153461,-0.033462,0.313059,-0.069301,34.927618,188.495700,1525.650874,-926.055746,0
0.005208,192.235150,-67.915950,-72.239015,1.514298,-5.647477,-0.406289,6.132703,6.068793,0.353755,-5.761608,-0.007891,0.314039,-0.028224,44.948277,188.647442,1525.064248,-926.626134,0
0.006250,170.128617,-18.166787,-149.414205,0.089238,-4.230916,-2.680288,6.636437,4.683035,2.716493,-6.423368,0.014027,0.330566,-0.043161,46.294167,188.647252,1524.325120,-927.401544,0
0.007291,111.340437,29.866887,-196.883902,-0.838182,-1.802526,-4.616957,5.994642,2.286446,4.550448,-5.750935,0.010374,0.334812,-0.024490,35.334778,188.571920,1523.778842,-927.874718,0
0.008332,56.556159,99.078386,-196.822349,-0.804252,0.803378,-6.121050,4.804335,-0.334364,6.271092,-4.729833,-0.026156,0.325667,-0.035692,21.434788,188.496623,1523.066426,-928.272330,0
0.009374,10.244730,167.033471,-151.433144,-0.012552,3.292123,-6.513940,2.692379,-2.789765,6.594237,-2.662724,-0.084604,0.319461,-0.005818,10.599808,188.647905,1522.955046,-928.796916,0
0.010416,-41.806005,207.444095,-89.239962,1.197618,5.408089,-5.720223,-0.068834,-4.943754,5.943750,-0.037033,-0.139399,0.307049,-0.031958,4.537648,188.646547,1522.713089,-929.290669,0
0.011457,-119.286626,178.715705,-38.717235,2.136348,6.654237,-4.224067,-2.729301,-6.149400,4.403563,2.446344,-0.179582,0.300321,-0.031958,-10.776091,188.571056,1522.859635,-929.248809,0
0.012499,-182.657176,129.183999,10.611364,3.075078,6.650687,-2.172309,-4.464388,-6.377297,2.473085,4.303540,-0.208806,0.313843,-0.031958,-30.828721,188.495631,1522.766778,-929.649870,0
0.013541,-192.706632,68.296242,72.607576,4.285248,5.866075,0.637448,-6.259177,-5.484090,-0.355486,5.925918,-0.252642,0.314104,-0.039427,-39.322531,188.646406,1523.509320,-930.460053,0
0.014582,-170.282508,18.365866,149.265720,5.676378,4.435313,2.915415,-6.695747,-4.090980,-2.604914,6.609025,-0.263601,0.329325,-0.069301,-43.756051,188.571116,1523.838950,-930.785180,0
0.015624,-110.416791,-30.054397,197.067804,6.637728,2.010473,4.760807,-6.102459,-1.720122,-4.455655,5.925918,-0.227071,0.327431,-0.061832,-32.174611,188.571022,1523.922401,-931.483432,0
0.016666,-55.609828,-98.746417,196.649243,6.615108,-0.563479,6.336335,-4.874839,0.930094,-6.155316,4.879912,-0.230724,0.316913,-0.050629,-16.510261,188.495801,1523.246351,-931.012807,0
0.017707,-9.570619,-166.677340,151.223107,5.744238,-3.137431,6.760973,-2.777809,3.407550,-6.524625,2.819918,-0.201500,0.302607,-0.009553,-6.003271,188.646504,1523.404176,-931.664615,0
0.018749,41.550031,-206.942993,88.549811,4.624548,-5.182391,5.899790,-0.050177,5.510079,-5.878334,0.261826,-0.110175,0.309466,-0.028224,1.947658,188.571033,1523.748832,-931.066644,0
0.019791,118.350102,-178.564950,37.867046,3.651888,-6.400136,4.399666,2.587901,6.759834,-4.325558,-2.314055,-0.066339,0.298949,-0.043161,15.655378,188.571047,1523.262095,-931.161721,0
0.020832,182.004215,-128.066771,-10.735227,2.701848,-6.456941,2.332034,4.315525,6.969352,-2.361505,-4.100094,-0.011544,0.310577,-0.024490,37.653328,188.495626,1521.551638,-929.601519,0
0.021874,192.416630,-66.732022,-71.931250,1.570848,-5.633276,-0.445975,6.069269,6.028360,0.387328,-5.736703,-0.011544,0.311753,-0.009553,46.305477,188.646518,1520.738834,-929.288042,0
0.022916,169.493437,-17.055344,-149.081819,0.123168,-4.159911,-2.644571,6.580467,4.686711,2.691313,-6.373558,0.054210,0.301693,-0.028224,49.166907,188.571103,1520.233052,-928.031183,0
0.023957,109.990679,30.458851,-196.920834,-0.792942,-1.763473,-4.545522,5.975985,2.249689,4.508481,-5.715356,0.010374,0.333571,-0.043161,36.578878,188.571138,1519.427827,-927.056264,0
0.024999,54.843442,99.078386,-196.908523,-0.792942,0.821130,-6.097238,4.692394,-0.319661,6.216535,-4.680023,-0.026156,0.292220,-0.020755,22.509238,188.495656,1518.628433,-925.809964,0
0.026041,8.929000,166.501911,-151.162311,0.021378,3.267271,-6.454411,2.643872,-2.749332,6.564860,-2.627145,-0.080951,0.295095,-0.043161,9.943828,188.721871,1517.986601,-924.812090,0
0.027082,-42.044198,207.576985,-88.279735,1.208928,5.337084,-5.628946,-0.109879,-4.884942,5.889193,-0.008570,-0.121134,0.304306,-0.024490,3.282238,188.646677,1517.041906,-923.969577,0
0.028124,-118.583391,178.655301,-37.350758,2.158968,6.586782,-4.140727,-2.673330,-6.090588,4.336416,2.471249,-0.175929,0.297381,-0.039427,-11.511241,188.571051,1515.672492,-923.547462,0
0.029165,-182.952081,128.447064,11.116099,3.086388,6.622284,-2.116749,-4.438268,-6.303782,2.481478,4.278635,-0.194194,0.309205,-0.043161,-31.971031,188.495875,1515.105822,-922.462524,0
0.030207,-192.513809,67.221042,72.336743,4.251318,5.748916,0.637448,-6.169624,-5.340735,-0.347093,5.865435,-0.216112,0.311230,-0.054364,-41.245231,188.721938,1513.035930,-921.327987,0
0.031249,-170.010288,17.798064,149.585796,5.721618,4.357207,2.863824,-6.643508,-4.054223,-2.600717,6.527195,-0.267254,0.329194,-0.024490,-44.344171,188.646437,1512.055752,-920.566070,0
0.032291,-110.881833,-30.404743,196.329167,6.581178,1.960769,4.748901,-6.005444,-1.727473,-4.409492,5.812067,-0.230724,0.333049,-0.050629,-32.163301,188.571085,1510.583426,-919.663751,0
0.033332,-55.836678,-99.133006,196.883145,6.603798,-0.591881,6.268869,-4.822600,0.897013,-6.088169,4.844333,-0.208806,0.325993,-0.039427,-16.137031,188.495810,1510.050205,-918.889234,0
0.034374,-9.445851,-165.867920,151.457008,5.789478,-3.038023,6.633978,-2.736764,3.389171,-6.449084,2.787898,-0.164970,0.316195,-0.028224,-5.743141,188.721822,1508.717776,-918.489148,0
0.035416,42.049101,-207.039641,88.832955,4.624548,-5.118486,5.852167,-0.001670,5.495376,-5.815384,0.233364,-0.132093,0.308356,-0.050629,0.827968,188.571013,1507.947399,-918.518048,0
0.036457,118.633664,-178.444141,38.285606,3.651888,-6.353983,4.352043,2.569244,6.715725,-4.317164,-2.232224,-0.062686,0.301301,-0.061832,16.752448,188.571214,1507.767216,-917.364570,0
0.037499,182.503285,-128.924515,-10.722917,2.747088,-6.456941,2.359814,4.326719,6.954649,-2.378292,-4.103652,-0.033462,0.315215,-0.039427,34.893688,188.495754,1508.095863,-917.565289,0
0.038541,192.019643,-68.073002,-72.546781,1.525608,-5.594223,-0.422164,6.061807,5.984251,0.383132,-5.683336,-0.011544,0.315019,-0.058098,44.857797,188.721891,1507.372799,-917.349117,0
0.039582,169.879082,-18.058059,-149.672728,0.077928,-4.159911,-2.640602,6.573004,4.649953,2.712296,-6.377116,0.014027,0.328280,-0.069301,46.226307,188.571069,1507.167946,-918.246751,0
0.040624,111.181642,30.434689,-196.600758,-0.792942,-1.784775,-4.553459,5.916283,2.242337,4.529464,-5.694009,-0.007891,0.337229,-0.058098,35.391328,188.571105,1506.957990,-918.906772,0
0.041666,55.920979,99.452894,-196.686932,-0.838182,0.803378,-6.109144,4.744633,-0.330688,6.237518,-4.712043,-0.018850,0.324034,-0.035692,21.480028,188.495678,1507.458320,-919.486582,0
0.042707,9.303302,166.888500,-151.113069,0.010068,3.277922,-6.482191,2.688648,-2.793441,6.594237,-2.612914,-0.069992,0.315933,-0.050629,10.588498,188.721851,1507.677810,-920.349310,0
0.043749,-42.191650,207.262881,-88.944508,1.208928,5.365486,-5.676569,-0.094954,-4.884942,5.918569,-0.001454,-0.124787,0.304436,-0.043161,4.435858,188.571138,1507.901792,-920.622959,0
0.044791,-119.377366,178.582815,-37.843182,2.136348,6.615184,-4.156601,-2.714376,-6.123670,4.390973,2.474807,-0.190541,0.299014,-0.043161,-10.957051,188.571044,1508.972378,-920.818955,0
0.045832,-182.645834,128.555792,11.448485,3.142938,6.636485,-2.180246,-4.453194,-6.325836,2.485675,4.289309,-0.219765,0.314431,-0.076769,-30.862651,188.495718,1509.232827,-920.941620,0
0.046874,-192.729317,67.172718,73.075379,4.285248,5.805720,0.637448,-6.180818,-5.410575,-0.334503,5.876109,-0.252642,0.313712,-0.039427,-39.254671,188.721983,1510.494410,-920.835614,0
0.047915,-169.874178,17.157776,149.364205,5.721618,4.371408,2.899541,-6.669628,-4.021141,-2.600717,6.544984,-0.252642,0.313908,-0.035692,-43.676881,188.571107,1510.294641,-920.818612,0
0.048957,-109.815638,-30.658442,196.932387,6.637728,1.946568,4.772713,-6.027832,-1.676013,-4.426278,5.868993,-0.241683,0.330958,-0.031958,-32.095441,188.571163,1510.737112,-921.156866,0
0.049999,-54.611688,-99.145087,196.612311,6.626418,-0.627384,6.284743,-4.796480,0.948473,-6.117546,4.858564,-0.252642,0.323576,-0.069301,-16.250131,188.495560,1510.855224,-921.341360,0
0.051041,-8.753959,-166.725664,150.730682,5.766858,-3.059324,6.665727,-2.733032,3.403874,-6.512035,2.791455,-0.175929,0.310642,-0.043161,-5.720521,188.721915,1511.880097,-921.321758,0
0.052082,42.117156,-206.882589,87.786553,4.601928,-5.132687,5.808513,-0.012864,5.521106,-5.832170,0.183554,-0.132093,0.303326,-0.058098,2.128618,188.571125,1511.783051,-921.608447,0
0.053124,118.724404,-178.395817,37.066856,3.640578,-6.371734,4.344106,2.572976,6.730428,-4.283591,-2.292708,-0.080951,0.297708,-0.024490,15.768478,188.570988,1511.552429,-922.029831,0
0.054166,182.026900,-127.861396,-11.547727,2.724468,-6.432089,2.304253,4.304331,6.936270,-2.323735,-4.085862,-0.037115,0.310250,-0.073035,37.642018,188.495671,1510.725696,-921.475904,0
0.055207,192.303205,-66.526646,-72.485227,1.548228,-5.597773,-0.453912,6.046881,5.991602,0.412508,-5.686893,-0.015197,0.309858,-0.061832,46.362027,188.721824,1510.770856,-921.246851,0
0.056249,169.368669,-16.608351,-149.401894,0.055308,-4.124408,-2.700131,6.524496,4.627899,2.657739,-6.352211,0.024986,0.316129,-0.031958,49.132977,188.495649,1510.374897,-919.854575,0
0.057291,110.036049,30.966249,-196.859281,-0.838182,-1.742171,-4.541554,5.897626,2.297473,4.487497,-5.654873,-0.011544,0.322139,-0.031958,36.454468,188.571111,1510.359196,-918.288037,0
0.058332,54.877469,99.537460,-196.736175,-0.804252,0.828230,-6.093270,4.692394,-0.327012,6.229125,-4.644444,-0.033462,0.320310,-0.054364,22.463998,188.495888,1509.633984,-917.855739,0
0.059374,8.713492,166.538154,-150.977652,-0.001242,3.281472,-6.418694,2.643872,-2.760359,6.493516,-2.609356,-0.059033,0.316325,-0.050629,9.921208,188.721875,1508.547665,-916.690786,0
0.060416,-42.384473,207.371609,-88.402841,1.208928,5.344184,-5.617040,-0.128536,-4.881267,5.851422,-0.015686,-0.124787,0.305873,-0.024490,3.169138,188.646373,1507.965771,-916.194863,0
0.061457,-119.184543,178.474087,-37.313826,2.170278,6.547728,-4.081198,-2.658405,-6.028101,4.265072,2.485481,-0.168623,0.298426,-0.046895,-11.646961,188.570991,1505.783253,-915.751370,0
0.062499,-183.224301,128.459144,11.596212,3.086388,6.622284,-2.120717,-4.449463,-6.303782,2.426921,4.260846,-0.179582,0.309532,-0.017021,-32.072821,188.571218,1505.256182,-915.695418,0
0.063540,-192.536494,67.595550,73.038447,4.273938,5.720514,0.661260,-6.091265,-5.315005,-0.359683,5.840530,-0.234377,0.311883,-0.050629,-41.256541,188.721012,1503.750598,-915.720800,0
0.064582,-169.919548,17.665174,150.016667,5.732928,4.364307,2.875730,-6.602463,-4.024817,-2.613307,6.509405,-0.289172,0.325732,-0.058098,-44.276311,188.571198,1503.632296,-915.795205,0
0.065624,-111.278821,-30.694685,196.366099,6.649038,1.914615,4.752870,-5.964399,-1.676013,-4.405295,5.794278,-0.230724,0.331677,-0.031958,-32.174611,188.571134,1502.710187,-915.845901,0
0.066665,-56.052186,-99.664566,196.661554,6.637728,-0.567029,6.264900,-4.785286,0.948473,-6.092365,4.815870,-0.234377,0.321551,-0.061832,-16.170961,188.571134,1502.196220,-916.228414,0
0.067707,-9.332426,-166.121619,151.321591,5.778168,-3.077076,6.594293,-2.721838,3.352414,-6.415511,2.748761,-0.208806,0.316717,-0.039427,-5.833621,188.721947,1500.558106,-915.795738,0
0.068749,42.570856,-206.785942,88.808334,4.590618,-5.079433,5.808513,0.005793,5.502727,-5.773417,0.176438,-0.084604,0.307964,-0.039427,0.918448,188.571042,1499.889820,-915.868354,0
0.069791,119.121392,-178.262927,37.903977,3.651888,-6.339782,4.332200,2.572976,6.656913,-4.208050,-2.264245,-0.055380,0.303064,-0.084238,16.956028,188.495703,1498.575708,-915.426789,0
0.070832,182.548655,-128.670816,-11.276894,2.701848,-6.400136,2.339971,4.367765,6.888485,-2.369899,-4.089420,-0.059033,0.313059,-0.058098,34.995478,188.646527,1498.751783,-915.325924,0
0.071874,191.883533,-67.481038,-73.113068,1.525608,-5.565821,-0.449944,6.031956,5.976899,0.408312,-5.658431,0.017680,0.312863,-0.058098,44.823867,188.721963,1498.502276,-915.198537,0
0.072916,169.584177,-17.067425,-149.894319,0.100548,-4.113757,-2.652508,6.517034,4.657305,2.640952,-6.341537,0.014027,0.324426,-0.054364,46.203687,188.571158,1498.905511,-915.042825,0
0.073957,110.240214,31.171624,-196.748485,-0.792942,-1.759923,-4.533616,5.901358,2.271743,4.516874,-5.672662,-0.011544,0.328084,-0.031958,35.278228,188.495676,1499.035755,-915.624462,0
0.074999,54.854784,99.851564,-196.613069,-0.815562,0.814029,-6.093270,4.696125,-0.330688,6.191354,-4.637329,-0.062686,0.309466,-0.035692,21.355618,188.646426,1498.750952,-915.253121,0
0.076041,8.339190,167.166361,-150.571402,0.089238,3.288573,-6.430600,2.651334,-2.778738,6.543877,-2.609356,-0.080951,0.304306,-0.050629,10.373608,188.721849,1499.509935,-915.458545,0
0.077082,-42.611323,207.214558,-88.107387,1.231548,5.372586,-5.676569,-0.124805,-4.921700,5.851422,-0.005012,-0.143052,0.304697,-0.054364,4.277518,188.571230,1499.615935,-915.775994,0
0.078124,-119.558846,178.341197,-36.981440,2.204208,6.632935,-4.168507,-2.699450,-6.131022,4.344810,2.503270,-0.197847,0.298492,-0.024490,-10.934431,188.495828,1501.400169,-916.336964,0
0.079165,-182.521066,128.060475,11.928599,3.109008,6.625835,-2.160403,-4.453194,-6.344215,2.447904,4.292867,-0.197847,0.310185,-0.058098,-30.862651,188.646417,1501.798939,-916.457265,0
0.080207,-192.536494,66.375379,73.457008,4.330488,5.791519,0.633480,-6.195744,-5.384844,-0.355486,5.908129,-0.238030,0.313059,-0.080503,-39.322531,188.646538,1503.169659,-916.537905,0
0.081249,-169.715383,16.372517,149.573485,5.721618,4.325254,2.895572,-6.665896,-4.021141,-2.651077,6.516521,-0.285519,0.324622,0.001650,-43.688191,188.571245,1503.137426,-916.497529,0
0.082291,-109.475363,-31.177921,197.190910,6.592488,1.950118,4.800493,-6.035295,-1.653958,-4.468245,5.854762,-0.267254,0.351993,-0.013287,-31.982341,188.495761,1504.067349,-916.795690,0
0.083332,-54.520948,-99.616242,196.390720,6.603798,-0.616733,6.264900,-4.803943,0.963176,-6.096562,4.855007,-0.201500,0.309727,-0.050629,-16.148341,188.646507,1504.443111,-916.219881,0
0.084374,-8.141464,-167.293467,150.410607,5.744238,-3.080626,6.661759,-2.751689,3.374468,-6.465871,2.823476,-0.179582,0.323838,-0.054364,-5.573491,188.646531,1506.237635,-915.549942,0
0.085415,42.729651,-206.737618,87.614205,4.579308,-5.132687,5.844230,0.020719,5.510079,-5.773417,0.176438,-0.110175,0.301431,-0.031958,2.286958,188.571125,1506.286972,-915.103083,0
0.086457,119.461667,-178.323332,36.796023,3.584028,-6.353983,4.316325,2.580438,6.704698,-4.275197,-2.289150,-0.073645,0.298622,-0.050629,15.904198,188.494895,1507.631450,-915.109599,0
0.087499,182.072270,-127.861396,-11.830871,2.713158,-6.382385,2.292348,4.334182,6.914216,-2.344719,-4.096536,-0.040768,0.310315,-0.054364,37.709878,188.646035,1507.525264,-915.000935,0
0.088540,192.257835,-66.478323,-73.211553,1.502988,-5.576472,-0.394384,6.035687,5.954845,0.395722,-5.686893,0.003068,0.311426,-0.035692,46.294167,188.646136,1507.700545,-914.807353,0
0.089582,169.345984,-16.366733,-149.746591,0.077928,-4.124408,-2.660445,6.498377,4.605844,2.682919,-6.334421,0.021333,0.326451,-0.035692,49.099047,188.570863,1507.046980,-915.117502,0
0.090624,110.149474,31.219948,-196.933145,-0.838182,-1.731520,-4.565365,5.920014,2.246013,4.521071,-5.651315,-0.000585,0.335139,-0.073035,36.420538,188.495340,1506.688618,-915.281629,0
0.091666,55.183717,100.141505,-196.416099,-0.826872,0.853082,-6.073427,4.673737,-0.327012,6.182961,-4.637329,-0.040768,0.326908,-0.061832,22.509238,188.646080,1506.683211,-915.211313,0
0.092707,8.566040,167.154280,-150.694508,0.032688,3.270822,-6.418694,2.636409,-2.789765,6.510303,-2.602240,-0.080951,0.318089,-0.046895,9.932518,188.721561,1506.245833,-915.323396,0
0.093749,-42.906228,207.105830,-88.415152,1.208928,5.351285,-5.605134,-0.139730,-4.903321,5.859816,-0.019243,-0.110175,0.305220,-0.043161,3.033418,188.570843,1506.420368,-915.036889,0
0.094790,-119.899121,178.401602,-37.313826,2.147658,6.583231,-4.101041,-2.654674,-6.046479,4.340613,2.460576,-0.172276,0.302084,-0.024490,-11.839231,188.495327,1505.936972,-913.997864,0
0.095832,-183.156246,128.434983,12.002462,3.086388,6.583231,-2.128655,-4.412149,-6.278052,2.439511,4.289309,-0.223418,0.312275,-0.035692,-32.208541,188.721440,1505.509813,-913.872152,0
0.096874,-192.513809,67.692197,73.789394,4.296558,5.756016,0.637448,-6.113654,-5.355438,-0.347093,5.840530,-0.259948,0.315084,-0.043161,-41.301781,188.646263,1504.920549,-913.587543,0
0.097915,-169.908206,17.725578,150.250569,5.732928,4.321704,2.851918,-6.576343,-4.028493,-2.567143,6.463153,-0.270907,0.328933,-0.043161,-44.253691,188.570756,1504.695652,-912.787811,0
0.098957,-110.836463,-31.105436,196.661554,6.660348,1.946568,4.736995,-5.971861,-1.668661,-4.388508,5.801394,-0.263601,0.331285,-0.058098,-32.061511,188.495372,1503.905140,-912.137799,0
0.099999,-55.462376,-100.208207,196.279925,6.649038,-0.595431,6.237120,-4.781554,0.911716,-6.092365,4.833660,-0.175929,0.324360,-0.028224,-16.193581,188.721520,1504.011498,-911.879716,0
0.101040,-8.515766,-166.846473,150.718372,5.744238,-3.023822,6.598261,-2.759152,3.392847,-6.411314,2.805687,-0.179582,0.307702,-0.035692,-5.844931,188.646118,1503.084659,-912.137725,0
0.102082,42.933816,-206.725537,88.278978,4.613238,-5.093634,5.824387,-0.005401,5.469646,-5.748237,0.201343,-0.121134,0.305743,-0.009553,1.099408,188.570683,1502.870647,-911.664248,0
0.103124,119.711202,-178.069633,37.091477,3.674508,-6.325580,4.288545,2.546856,6.686319,-4.254214,-2.264245,-0.048074,0.304567,-0.009553,17.057818,188.495378,1502.555695,-911.312372,0
0.104165,182.503285,-127.873477,-12.077083,2.724468,-6.396586,2.328065,4.315525,6.888485,-2.361505,-4.085862,-0.000585,0.313647,-0.050629,35.108578,188.721596,1502.666309,-910.907431,0
0.105207,191.928903,-66.212543,-73.765531,1.536918,-5.530318,-0.438038,6.013299,5.932790,0.420902,-5.701125,0.003068,0.306200,-0.061832,44.948277,188.503040,1502.449374,-911.037053,0
0.106249,169.130477,-15.955982,-149.992803,0.066618,-4.142159,-2.656476,6.509571,4.561735,2.708099,-6.341537,0.010374,0.336119,-0.024490,46.135827,188.571467,1502.134882,-911.333579,0
0.107290,109.094622,31.799831,-197.203978,-0.849492,-1.720870,-4.553459,5.905089,2.220283,4.504284,-5.669104,-0.022503,0.317240,-0.054364,35.074648,188.495264,1502.214943,-910.864440,0
0.108332,53.924699,100.346881,-196.194508,-0.849492,0.828230,-6.057553,4.699856,-0.382149,6.174568,-4.608866,-0.011544,0.332461,-0.031958,21.140728,188.721491,1501.652058,-910.800260,0
0.109374,7.942202,167.951620,-149.808144,0.043998,3.277922,-6.450442,2.610289,-2.793441,6.552270,-2.612914,-0.073645,0.303130,-0.035692,10.170028,188.646111,1502.474599,-910.469062,0
0.110415,-43.042338,206.876292,-87.221023,1.231548,5.361936,-5.640851,-0.173313,-4.929051,5.868209,0.069703,-0.121134,0.305155,-0.031958,4.130488,188.570711,1502.013279,-911.022238,0
