1-Time,2-VGERA,3-VGERB,4-VGERC,5-VN,6-IGERAN,7-IGERBN,8-IGERCN,9-IGERAT,10-IGERBT,11-IGERCT,12-IN,13-IFD,14-IFAULT,15-VFAULT,16-Speed (rad/s),17-Active Power,18-Reactive Power,19-FAULT 
0.000000,-135.455103,-73.067116,170.918277,3.579466,4.878782,-2.268693,-2.885417,-5.003496,2.068948,2.978639,0.070083,0.583948,0.018727,-25.639995,188.345048,1013.420596,1006.673254,0
0.001042,-54.683237,-123.676365,187.906314,3.984801,4.596233,-0.081543,-4.540119,-4.657886,-0.031854,4.520815,0.073729,0.587117,-0.003573,-16.757177,188.420323,1013.778958,1006.079175,0
0.002083,15.297200,-163.069128,156.032479,3.343021,3.590797,1.521005,-5.065912,-3.628654,-1.679711,4.989180,0.084667,0.590769,0.011294,-9.146549,188.269499,1013.918539,1005.998130,0
0.003125,87.379424,-180.263823,107.292124,2.408499,1.767069,3.466956,-4.980858,-1.790468,-3.556197,4.886368,0.066437,0.588840,0.007577,5.860797,188.269498,1014.361163,1005.416370,0
0.004167,136.669698,-174.767158,26.143261,0.865975,-0.086014,4.509430,-4.076184,0.100889,-4.561304,3.922984,0.081021,0.581054,-0.007290,13.291292,188.344965,1014.109918,1005.791209,0
0.005208,172.682560,-147.906320,-50.072024,-0.642772,-1.990471,5.134914,-2.726906,2.049215,-5.156603,2.563585,0.019036,0.587393,0.011294,21.104569,188.420198,1014.193912,1006.241206,0
0.006250,173.326656,-85.070516,-115.618141,-1.870035,-3.590361,4.771071,-0.782244,3.727889,-4.764050,0.549236,0.000805,0.580089,0.022444,23.907892,188.263255,1013.607526,1006.789546,0
0.007292,174.253250,-2.150745,-154.005272,-2.624408,-4.764592,3.904386,1.123756,4.882453,-3.892670,-1.373724,-0.042949,0.583879,0.003860,27.352939,188.268887,1013.866735,1005.863452,0
0.008333,136.364600,72.946849,-170.349271,-2.973447,-4.948066,2.273222,2.782325,5.045762,-2.158538,-3.060598,-0.090349,0.583672,0.007577,25.607899,188.344415,1013.303803,1006.059460,0
0.009375,55.468435,123.708783,-187.543886,-3.311226,-4.621483,0.131040,4.452491,4.757122,-0.057737,-4.625621,-0.101287,0.588220,-0.011006,17.929721,188.419929,1012.631983,1006.794137,0
0.010417,-14.749301,162.526041,-156.301938,-2.759520,-3.678428,-1.553270,5.020812,3.693708,1.607375,-5.078754,-0.123164,0.592285,0.000144,10.150219,188.269234,1012.202742,1007.356523,0
0.011458,-86.854125,180.296242,-107.002606,-1.768702,-1.858370,-3.478781,4.928025,1.908692,3.539941,-4.972134,-0.137749,0.586497,0.000144,-6.377002,188.269044,1011.854491,1008.018014,0
0.012500,-136.121799,174.893537,-26.400568,-0.248696,0.002053,-4.549871,4.004020,-0.001654,4.519164,-4.008750,-0.072118,0.581950,0.000144,-12.096230,188.344475,1010.990936,1008.855252,0
0.013542,-172.936956,147.386723,49.693200,1.237532,1.965221,-5.163091,2.662475,-1.968969,5.105836,-2.649351,-0.035656,0.581330,0.018727,-21.204215,188.420034,1010.196915,1009.525637,0
0.014583,-173.027355,85.584480,115.907659,2.521092,3.598136,-4.848305,0.764206,-3.681825,4.752108,-0.642618,-0.050241,0.576644,0.015011,-23.489655,188.344321,1010.229026,1010.445879,0
0.015625,-174.281647,2.535514,154.039605,3.309243,4.713656,-3.961180,-1.219116,-4.809803,3.850531,1.261303,0.037267,0.579400,0.044744,-25.989003,188.269221,1009.920337,1010.800033,0
0.016667,-136.777195,-72.620806,170.116267,3.590725,4.893460,-2.309575,-2.850622,-4.965517,2.116399,2.906290,0.037267,0.580503,0.018727,-25.313504,188.269082,1008.933185,1010.789303,0
0.017708,-55.508132,-123.582404,187.882011,3.951023,4.618250,-0.126512,-4.528521,-4.711057,0.058735,4.543662,0.070083,0.587875,-0.003573,-16.532010,188.419990,1008.923154,1012.075654,0
0.018750,14.698304,-162.411408,156.688670,3.354280,3.594467,1.439243,-5.054314,-3.697016,-1.640887,5.012027,0.084667,0.591527,0.026161,-7.739259,188.344645,1008.954245,1012.908261,0
0.019792,86.712728,-180.792349,107.680978,2.442277,1.822112,3.421987,-4.996322,-1.855032,-3.543256,4.897792,0.066437,0.586290,0.022444,5.174040,188.269284,1008.861481,1013.596095,0
0.020833,135.912603,-175.225214,27.127546,0.854715,-0.012625,4.513518,-4.114845,0.062910,-4.578559,3.972486,0.066437,0.586635,0.007577,12.773409,188.402417,1009.194547,1014.154605,0
0.021875,173.111957,-147.753635,-48.771795,-0.575216,-1.972123,5.204413,-2.784898,2.026427,-5.169544,2.590240,0.044560,0.581261,0.003860,21.352252,188.399688,1009.198196,1014.411465,0
0.022917,173.134557,-85.986627,-115.217136,-1.870035,-3.568344,4.816040,-0.820905,3.689910,-4.755423,0.568276,0.029975,0.577196,0.018727,23.952925,188.414714,1008.833058,1014.205218,0
0.023958,174.321050,-2.691016,-153.652874,-2.613149,-4.731567,3.912563,1.108292,4.874857,-3.918553,-1.301375,-0.024718,0.580641,0.015011,27.409231,188.262326,1008.168373,1014.697776,0
0.025000,137.008696,72.336109,-170.045479,-2.973447,-4.944396,2.277310,2.797789,5.049560,-2.184421,-3.014904,-0.061180,0.581605,-0.018440,24.774783,188.259306,1007.799268,1014.846219,0
0.026042,56.146430,123.391668,-187.568190,-3.288707,-4.628822,0.077895,4.506617,4.753324,-0.070678,-4.618005,-0.086703,0.585808,-0.003573,17.096605,188.414097,1007.808343,1014.713799,0
0.027083,-14.218205,162.314631,-156.909522,-2.703224,-3.612378,-1.581887,4.958954,3.731687,1.616003,-5.048291,-0.090349,0.591389,0.022444,10.656844,188.405552,1007.873214,1014.744249,0
0.028125,-86.402128,180.390202,-107.622341,-1.779961,-1.818006,-3.450164,4.900962,1.855522,3.514058,-4.991174,-0.115872,0.587048,-0.014723,-6.016735,188.251162,1008.223539,1014.228931,0
0.029167,-135.624602,175.504278,-26.996000,-0.226178,-0.012625,-4.582576,4.027217,-0.039633,4.527792,-4.054444,-0.079410,0.579745,-0.011006,-11.713447,188.326046,1009.060976,1014.303526,0
0.030208,-172.756157,147.938739,48.891190,1.237532,1.961551,-5.142650,2.670207,-2.010746,5.127405,-2.653159,-0.072118,0.584499,-0.007290,-21.767131,188.402633,1009.976798,1014.088196,0
0.031250,-173.309853,86.019046,115.178559,2.498573,3.572450,-4.811512,0.717813,-3.659037,4.717597,-0.612155,-0.032010,0.575060,-0.025873,-23.241972,188.486947,1009.973625,1013.205038,0
0.032292,-174.507645,2.805649,153.638600,3.275465,4.743012,-3.924387,-1.172723,-4.832590,3.850531,1.265111,0.015390,0.581536,0.018727,-26.169136,188.266774,1010.347628,1013.141076,0
0.033333,-137.003193,-72.350670,170.262087,3.579466,4.904469,-2.289134,-2.889283,-5.007294,2.116399,2.932945,0.044560,0.581054,-0.003573,-25.718803,188.264141,1011.115312,1013.408860,0
0.034375,-56.050528,-123.230054,187.796949,3.984801,4.599902,-0.118336,-4.559450,-4.695865,0.006970,4.528431,0.091960,0.586222,0.007577,-16.926052,188.420128,1011.429775,1012.560367,0
0.035417,14.506206,-162.070803,157.235495,3.410576,3.557772,1.537358,-5.065912,-3.643846,-1.662456,4.966333,0.059144,0.591045,0.000144,-9.484299,188.420200,1011.434624,1011.403351,0
0.036458,86.057333,-180.510468,108.142741,2.476055,1.789086,3.417899,-4.953795,-1.790468,-3.508746,4.833058,0.088314,0.585050,0.007577,5.365431,188.269342,1011.115219,1009.807258,0
0.037500,135.404107,-175.554074,27.285518,0.877234,-0.067667,4.493078,-4.060719,0.097091,-4.539735,3.911561,0.062790,0.581192,-0.018440,13.088642,188.269369,1010.998976,1008.538659,0
0.038542,172.953759,-147.683165,-48.127757,-0.586475,-1.979462,5.130826,-2.773299,2.007438,-5.165230,2.605471,0.029975,0.584706,0.026161,21.037019,188.420233,1010.774082,1008.526625,0
0.039583,173.157157,-86.562133,-114.658159,-1.824998,-3.568344,4.787423,-0.813173,3.678516,-4.759737,0.587315,0.011744,0.574302,0.000144,23.840342,188.420088,1010.735709,1008.511902,0
0.040625,174.411449,-3.066856,-153.288324,-2.635668,-4.738906,3.892122,1.139221,4.886250,-3.866788,-1.270912,-0.042949,0.572166,0.007577,27.341681,188.269306,1010.607684,1007.973362,0
0.041667,137.878790,72.183424,-169.680929,-3.007225,-4.918710,2.289574,2.786191,5.060954,-2.188735,-2.973017,-0.050241,0.581605,-0.014723,25.731740,188.269344,1010.426022,1008.060798,0
0.042708,56.677527,123.145023,-187.337308,-3.356263,-4.621483,0.126952,4.464090,4.783707,-0.040481,-4.598966,-0.119518,0.584430,0.029877,18.166146,188.420265,1010.658541,1007.899636,0
0.043750,-14.026106,161.633421,-157.419892,-2.759520,-3.649072,-1.528741,4.970552,3.743081,1.598748,-5.063523,-0.112226,0.588978,0.011294,10.555519,188.420140,1010.744036,1007.994867,0
0.044792,-85.678932,180.648592,-107.743858,-1.813739,-1.862039,-3.441987,4.897096,1.897299,3.509744,-4.945479,-0.112226,0.583259,0.018727,-6.005477,188.269415,1010.380072,1007.817239,0
0.045833,-135.070906,175.891863,-27.372702,-0.237437,0.013061,-4.504902,4.054280,0.002144,4.532106,-4.035405,-0.093995,0.578987,0.007577,-11.927356,188.269373,1010.234834,1007.739924,0
0.046875,-173.004755,147.527663,47.979815,1.248791,1.935865,-5.118122,2.705002,-1.912001,5.136032,-2.660774,-0.068472,0.579125,-0.014723,-21.192957,188.420057,1009.255405,1008.093631,0
0.047917,-173.117755,86.841196,114.789706,2.453536,3.568781,-4.831952,0.741010,-3.594473,4.713284,-0.661657,-0.039302,0.573751,-0.025873,-23.422105,188.420178,1008.369881,1008.224540,0
0.048958,-174.383346,3.169744,153.504932,3.230428,4.702648,-3.912123,-1.226849,-4.779419,3.876414,1.200377,0.026329,0.577609,-0.033307,-26.045295,188.269359,1007.226672,1008.528045,0
0.050000,-138.065386,-72.080535,169.690958,3.568207,4.893460,-2.350456,-2.804228,-4.946527,2.163851,2.917714,0.037267,0.579125,0.000144,-25.392312,188.269322,1006.662241,1008.330012,0
0.051042,-56.604224,-123.065624,187.772646,3.996060,4.548530,-0.138776,-4.493726,-4.669280,0.041480,4.528431,0.073729,0.585188,0.026161,-16.745918,188.341931,1006.449035,1008.212730,0
0.052083,14.201108,-161.495297,157.891685,3.354280,3.612814,1.467860,-5.019519,-3.685623,-1.619318,4.989180,0.099252,0.594076,0.000144,-7.885617,188.419904,1006.400182,1008.854040,0
0.053125,85.639236,-180.851074,108.227803,2.464795,1.811103,3.401546,-4.965393,-1.866426,-3.495804,4.913023,0.102898,0.583603,-0.018440,4.903840,188.344478,1006.518415,1010.397501,0
0.054167,134.793911,-176.164815,27.880950,0.899753,-0.019964,4.476725,-4.110979,0.043921,-4.561304,3.945831,0.040913,0.580434,-0.007290,12.627050,188.269219,1006.691432,1011.061588,0
0.055208,172.976358,-147.589205,-47.337898,-0.608994,-1.968454,5.114474,-2.781032,2.011236,-5.160916,2.571200,0.008098,0.579125,-0.022156,21.329735,188.344614,1006.883887,1010.411156,0
0.056250,173.236257,-87.137638,-114.147789,-1.858776,-3.579352,4.766982,-0.817039,3.686112,-4.776992,0.583507,0.000805,0.576920,0.007577,23.862858,188.419819,1007.296907,1010.355085,0
0.057292,174.467949,-3.184306,-152.984532,-2.579371,-4.709550,3.924827,1.143087,4.844473,-3.862474,-1.324222,-0.042949,0.562589,0.018727,27.431747,188.344392,1007.402781,1009.652084,0
0.058333,138.443787,71.913289,-169.583715,-2.917150,-4.929719,2.310015,2.770726,5.064752,-2.184421,-3.018711,-0.061180,0.581192,-0.007290,24.887366,188.269160,1008.173460,1009.443324,0
0.059375,57.140824,122.827907,-187.446673,-3.333744,-4.603135,0.094247,4.491152,4.760920,-0.044795,-4.602774,-0.112226,0.581674,0.011294,17.209189,188.269185,1008.265982,1009.100541,0
0.060417,-13.811407,161.375030,-158.039627,-2.714483,-3.649072,-1.590063,4.966686,3.682314,1.616003,-5.086370,-0.104934,0.596832,0.022444,10.915785,188.419871,1008.917109,1008.363472,0
0.061458,-85.407734,180.448927,-108.290683,-1.813739,-1.806997,-3.466516,4.893230,1.866915,3.509744,-4.975942,-0.093995,0.579194,-0.011006,-5.701502,188.344466,1009.416920,1008.174020,0
0.062500,-134.494610,176.455623,-27.688645,-0.203659,0.035078,-4.570312,4.038816,-0.032037,4.527792,-4.046829,-0.053887,0.580021,0.011294,-11.668414,188.269227,1009.928614,1007.853693,0
0.063542,-172.620558,147.844779,47.469444,1.226272,1.935865,-5.154915,2.635412,-2.003150,5.131719,-2.634119,-0.068472,0.576989,0.022444,-21.755873,188.193772,1011.090618,1006.911829,0
0.064583,-173.332453,87.029116,114.024150,2.521092,3.594467,-4.844217,0.733277,-3.700814,4.734853,-0.612155,0.008098,0.572304,-0.018440,-23.208197,188.419909,1012.902053,1006.513336,0
0.065625,-174.767544,3.322430,152.848741,3.230428,4.713656,-3.920299,-1.211384,-4.787015,3.859159,1.242264,0.040913,0.579263,-0.007290,-26.169136,188.419967,1013.480235,1005.899092,0
0.066667,-138.325284,-71.869125,169.812475,3.556947,4.919147,-2.342280,-2.854488,-5.007294,2.146596,2.925330,0.029975,0.574233,-0.003573,-25.921453,188.269236,1014.243069,1006.185857,0
0.067708,-56.999722,-122.689784,187.930618,3.894726,4.570547,-0.130600,-4.532387,-4.680674,0.011284,4.532239,0.106545,0.584844,-0.007290,-17.117443,188.269116,1014.731422,1005.913765,0
0.068750,14.122008,-161.107712,158.402055,3.399317,3.594467,1.529182,-5.031117,-3.624856,-1.627946,4.954909,0.077375,0.570857,-0.014723,-9.675691,188.419996,1014.666347,1004.822840,0
0.069792,85.209838,-180.862819,108.944752,2.442277,1.818442,3.430163,-4.980858,-1.809457,-3.586393,4.890176,0.091960,0.572235,-0.007290,5.140265,188.495341,1016.134654,1003.758383,0
0.070833,134.443613,-176.505420,28.087528,0.933530,-0.045650,4.521694,-4.126444,0.062910,-4.569931,3.930600,0.088314,0.580434,-0.018440,12.919767,188.268954,1016.511686,1003.361885,0
0.071875,172.716460,-147.953300,-46.815376,-0.541438,-1.979462,5.130826,-2.738504,2.041619,-5.169544,2.609279,0.037267,0.577954,0.007577,20.935694,188.193832,1016.988459,1003.528694,0
0.072917,173.224957,-87.501733,-113.515902,-1.802480,-3.575683,4.779247,-0.820905,3.693708,-4.746795,0.549236,0.015390,0.575680,-0.003573,23.795308,188.419813,1017.287062,1002.645682,0
0.073958,174.626147,-3.466186,-152.449858,-2.635668,-4.731567,3.859417,1.143087,4.855867,-3.892670,-1.350877,-0.035656,0.556181,0.022444,27.341681,188.419457,1017.757907,1002.679700,0
0.075000,139.053983,71.831073,-169.182710,-2.973447,-4.962744,2.297750,2.766860,5.057156,-2.201676,-3.011096,-0.050241,0.556043,-0.003573,25.900615,188.268961,1017.673512,1002.691661,0
0.076042,57.717120,122.651732,-187.470976,-3.299967,-4.621483,0.090159,4.413830,4.738132,-0.066364,-4.610389,-0.104934,0.582363,-0.003573,18.357538,188.193397,1017.682177,1002.523819,0
0.077083,-13.630608,160.646840,-158.671514,-2.759520,-3.612378,-1.549182,4.970552,3.724091,1.646199,-5.052099,-0.104934,0.569134,0.007577,10.814460,188.419620,1017.807973,1002.392273,0
0.078125,-84.910537,180.895237,-108.606627,-1.779961,-1.799658,-3.450164,4.877765,1.866915,3.509744,-4.994981,-0.104934,0.581605,0.000144,-5.814085,188.495068,1018.180355,1002.510585,0
0.079167,-133.873114,176.960659,-28.138257,-0.248696,0.016731,-4.525342,4.031083,-0.020644,4.510537,-4.050637,-0.072118,0.580158,0.007577,-11.837289,188.268896,1018.157875,1002.358126,0
0.080208,-172.812657,147.609879,46.570221,1.237532,1.924857,-5.175356,2.701136,-1.980363,5.140346,-2.656966,-0.042949,0.576369,0.007577,-21.136665,188.193631,1018.019187,1002.580616,0
0.081250,-173.355053,87.722072,113.635297,2.464795,3.583458,-4.827864,0.733277,-3.651441,4.752108,-0.695928,-0.035656,0.570512,0.015011,-23.332038,188.419719,1017.203541,1003.342481,0
0.082292,-174.665844,3.616055,152.690770,3.230428,4.739342,-3.957092,-1.192054,-4.779419,3.854845,1.227032,0.033621,0.554183,0.003860,-26.101586,188.419489,1016.997063,1003.226059,0
0.083333,-139.138879,-71.634225,169.326408,3.579466,4.941163,-2.325927,-2.866086,-4.976910,2.176792,2.902483,0.059144,0.564725,-0.055607,-25.493637,188.269091,1016.579370,1003.149724,0
0.084375,-57.576018,-122.525354,187.651129,4.007319,4.563208,-0.122424,-4.513056,-4.676876,0.011284,4.547470,0.095606,0.580296,0.007577,-16.959827,188.193763,1016.832892,1002.976534,0
0.085417,13.715211,-160.555696,159.119004,3.489392,3.649509,1.512829,-5.019519,-3.670431,-1.636573,4.985372,0.102898,0.555217,-0.011006,-8.031975,188.344476,1017.447118,1003.436527,0
0.086458,84.735242,-181.097719,109.102723,2.442277,1.818442,3.405634,-4.926732,-1.805659,-3.495804,4.905407,0.091960,0.586153,-0.014723,4.723707,188.419795,1016.663621,1003.507519,0
0.087500,133.630018,-177.257101,28.524988,0.944790,-0.052989,4.501254,-4.122577,0.036325,-4.544048,3.961063,0.040913,0.574922,-0.022156,12.525726,188.269134,1016.538893,1003.722199,0
0.088542,172.761660,-147.847595,-46.037669,-0.563957,-1.942768,5.110386,-2.746236,2.056811,-5.195426,2.586432,0.033621,0.575266,0.003860,21.340994,188.269089,1017.083922,1003.400083,0
0.089583,173.450955,-87.995024,-112.884015,-1.847517,-3.590361,4.807864,-0.805441,3.731687,-4.802874,0.591123,-0.028364,0.570581,0.015011,23.761534,188.344643,1017.755986,1004.207631,0
0.090625,174.705247,-3.630616,-152.061005,-2.590631,-4.705881,3.883946,1.143087,4.886250,-3.845219,-1.343261,-0.032010,0.537647,-0.014723,27.488039,188.419989,1017.999481,1003.706782,0
0.091667,139.641579,71.373018,-169.279924,-2.939669,-4.970083,2.297750,2.755262,5.045762,-2.193048,-2.999672,-0.079410,0.591389,-0.011006,25.056241,188.269176,1018.081321,1003.427438,0
0.092708,58.236917,122.287637,-187.300853,-3.333744,-4.621483,0.114688,4.452491,4.711547,-0.010285,-4.656083,-0.097641,0.579332,-0.014723,17.287997,188.269228,1019.043609,1002.553718,0
0.093750,-13.235111,160.329724,-159.230491,-2.827076,-3.597700,-1.561447,4.982150,3.686112,1.637572,-5.040675,-0.097641,0.575473,0.015011,11.073402,188.344514,1019.094221,1001.919169,0
0.094792,-84.379441,180.613357,-109.019784,-1.858776,-1.818006,-3.478781,4.885497,1.863118,3.539941,-4.949287,-0.119518,0.577885,-0.003573,-5.487594,188.420008,1019.305908,1001.152134,0
0.095833,-133.398517,177.536164,-28.332684,-0.237437,0.038748,-4.562136,4.000154,-0.039633,4.523478,-4.020174,-0.064826,0.575955,-0.007290,-11.567089,188.344587,1019.762366,1000.590810,0
0.096875,-172.484959,148.056189,46.120609,1.158716,1.990907,-5.142650,2.627679,-2.037332,5.114464,-2.603657,-0.097641,0.570443,-0.011006,-21.733356,188.269261,1020.463861,999.342175,0
0.097917,-173.581051,88.027442,112.942652,2.476055,3.612814,-4.823776,0.729411,-3.640048,4.717597,-0.615963,-0.032010,0.564311,-0.018440,-23.140647,188.269156,1020.861422,998.005458,0
0.098958,-174.857943,3.921425,152.131793,3.264206,4.739342,-3.871241,-1.257778,-4.806005,3.781511,1.249879,0.008098,0.564656,0.007577,-26.146620,188.420021,1021.398091,996.922716,0
0.100000,-139.647376,-71.093954,169.484380,3.601985,4.937494,-2.305487,-2.869952,-4.995900,2.168164,2.921522,0.044560,0.565483,0.000144,-26.112845,188.344489,1022.064338,996.831928,0
0.101042,-58.287913,-122.090788,187.711887,3.951023,4.640267,-0.126512,-4.571048,-4.669280,-0.010285,4.536047,0.055498,0.542746,-0.011006,-17.297576,188.276664,1022.302922,996.313575,0
0.102083,13.331013,-160.215091,159.629374,3.365539,3.583458,1.504653,-5.034983,-3.651441,-1.666770,4.973949,0.081021,0.576093,0.011294,-9.765757,188.269243,1022.729134,995.694618,0
0.103125,84.079846,-180.851074,109.722459,2.453536,1.778078,3.389282,-4.942196,-1.805659,-3.530315,4.848290,0.081021,0.574784,0.018727,4.937615,188.419884,1022.984360,994.806085,0
0.104167,133.291021,-177.538981,28.865235,0.899753,-0.067667,4.513518,-4.091648,0.070506,-4.556990,3.911561,0.073729,0.574922,-0.029590,12.829700,188.344308,1023.481888,993.881607,0
0.105210,172.648661,-148.223436,-45.952608,-0.518919,-1.986801,5.085857,-2.734638,2.056811,-5.130720,2.506467,0.059144,0.573062,-0.014723,20.789336,188.269113,1023.234023,992.416012,0
0.106258,173.360556,-87.290323,-113.236414,-1.768702,-3.583022,4.730189,-0.770646,3.720293,-4.707971,0.530197,-0.006487,0.563760,-0.029590,23.772792,188.269021,1022.778656,990.998946,0
0.107304,174.874746,-2.949406,-152.413403,-2.590631,-4.687533,3.843064,1.193347,4.890048,-3.858160,-1.366108,-0.035656,0.556595,0.003860,27.397972,188.419978,1022.973015,991.299000,0
0.108344,139.189582,72.007249,-169.437895,-2.905891,-4.830643,2.232340,2.809387,5.060954,-2.102459,-3.011096,-0.061180,0.524280,-0.025873,25.923132,188.344547,1023.372128,990.632779,0
0.109386,57.739720,122.452067,-187.762616,-3.266189,-4.551763,0.086071,4.456357,4.757122,-0.005971,-4.610389,-0.104934,0.565896,-0.033307,18.301246,188.269187,1023.043821,991.167196,0
0.110425,-13.404610,160.564625,-159.011761,-2.725742,-3.590361,-1.573711,4.935757,3.693708,1.667768,-5.063523,-0.101287,0.594972,-0.014723,10.735652,188.200018,1023.495746,991.354150,0
