1-Time,2-VGERA,3-VGERB,4-VGERC,5-VN,6-IGERAN,7-IGERBN,8-IGERCN,9-IGERAT,10-IGERBT,11-IGERCT,12-IN,13-IFD,14-IFAULT,15-VFAULT,16-Speed (rad/s),17-FAULT 
0.000000,-182.226161,119.229334,20.398296,3.301278,6.352463,-1.616707,-4.706927,-6.101616,1.948498,4.463643,-0.223418,0.311949,-0.050629,-103.653809,188.721675,0
0.001042,-195.020502,59.791286,87.958902,4.590618,5.635307,0.994621,-6.348730,-5.289275,-0.733189,6.150063,-0.259948,0.320637,-0.050629,-120.924179,188.571049,0
0.002083,-162.456183,10.017962,155.224054,5.891268,3.899221,3.181311,-6.531567,-3.679296,-2.944846,6.384881,-0.278213,0.325079,-0.069301,-104.796119,188.571046,0
0.003125,-99.822895,-38.752648,207.088637,6.875238,1.488582,5.145759,-5.919622,-1.220220,-4.892111,5.790720,-0.267254,0.322923,-0.039427,-69.067830,188.495432,0
0.004167,-50.721210,-110.609865,188.487311,6.479388,-1.071169,6.256963,-4.397223,1.334427,-6.125939,4.356908,-0.216112,0.321943,-0.031958,-37.535551,188.721940,0
0.005208,-2.821831,-182.032169,139.454167,5.608518,-3.410802,6.637947,-2.449448,3.745719,-6.533018,2.481923,-0.190541,0.315933,-0.031958,-5.856241,188.571009,0
0.006250,51.429349,-200.830056,80.424811,4.488828,-5.342153,5.475152,0.483408,5.642406,-5.471255,-0.289640,-0.099216,0.303260,-0.050629,22.588408,188.571127,0
0.007292,134.774043,-175.882989,29.286553,3.470928,-6.570550,4.046462,2.919993,6.866431,-4.052773,-2.687629,-0.048074,0.299667,-0.050629,73.472097,188.495624,0
0.008333,181.834077,-119.428925,-20.435985,2.554818,-6.172918,1.831992,4.576721,6.653237,-1.878886,-4.267312,-0.026156,0.312732,-0.046895,109.935536,188.721802,0
0.009375,194.651103,-58.806949,-87.491856,1.265478,-5.441561,-0.858708,6.233450,5.826193,0.802801,-5.921711,0.028639,0.311165,-0.020755,125.973116,188.571093,0
0.010417,162.256921,-8.381255,-154.769319,-0.035172,-3.762280,-2.962057,6.405093,4.216215,2.850787,-6.174318,0.017680,0.324491,-0.061832,111.337976,188.571009,0
0.011458,98.455356,39.567853,-206.990910,-0.973902,-1.372942,-4.918569,5.722252,1.793896,4.861003,-5.569484,-0.029809,0.315999,-0.046895,74.116767,188.495629,0
0.012500,48.786546,110.579407,-188.820455,-0.702462,1.197459,-6.037710,4.211047,-0.834266,6.136797,-4.167693,-0.018850,0.324426,-0.050629,40.130218,188.721833,0
0.013542,1.907992,181.772174,-139.073296,0.247578,3.586796,-6.426631,2.319242,-3.190422,6.506106,-2.324728,-0.066339,0.320049,-0.061832,10.192648,188.646437,0
0.014583,-51.537870,201.343238,-79.588447,1.401198,5.454243,-5.319396,-0.546450,-5.031972,5.494703,0.393467,-0.128440,0.304567,-0.058098,-18.229381,188.571029,0
0.015625,-134.633029,175.792126,-28.893371,2.373858,6.679089,-3.886737,-2.979303,-6.237618,4.063631,2.812803,-0.157664,0.301497,-0.013287,-68.615430,188.495635,0
0.016667,-182.260189,119.881703,20.669129,3.301278,6.277907,-1.648456,-4.636031,-5.987667,1.956891,4.452970,-0.201500,0.313190,-0.046895,-105.101489,188.721679,0
0.017708,-194.578144,59.900014,87.577273,4.556688,5.599804,1.006527,-6.277834,-5.219436,-0.787746,6.050443,-0.256295,0.312471,-0.020755,-121.681949,188.570953,0
0.018750,-162.909883,9.764263,154.940910,5.857338,3.902771,3.082096,-6.475596,-3.631512,-2.894485,6.310166,-0.252642,0.329129,-0.065566,-105.305069,188.571042,0
0.019792,-100.253910,-38.945942,206.522349,6.852618,1.509884,5.054482,-5.822607,-1.253301,-4.824964,5.705332,-0.263601,0.338536,-0.050629,-69.214860,188.495662,0
0.020833,-50.437648,-110.476975,189.041288,6.479388,-1.025015,6.213309,-4.348716,1.312372,-6.092365,4.381813,-0.190541,0.317958,-0.031958,-37.139701,188.721804,0
0.021875,-2.731091,-181.331477,139.712690,5.597208,-3.393051,6.554607,-2.453180,3.661177,-6.474264,2.449902,-0.154011,0.315215,-0.061832,-6.082441,188.646344,0
0.022917,51.542774,-201.240807,80.535606,4.477518,-5.249846,5.439435,0.412512,5.613000,-5.458665,-0.239830,-0.139399,0.303783,-0.035692,22.396138,188.570939,0
0.023958,134.399740,-175.556805,29.298864,3.516168,-6.535047,4.030587,2.890142,6.774537,-4.006609,-2.691186,-0.077298,0.298296,-0.043161,72.838737,188.495575,0
0.025000,181.913475,-119.791352,-20.485227,2.577438,-6.148067,1.792306,4.498363,6.587074,-1.878886,-4.235292,-0.022503,0.310773,-0.046895,108.600956,188.721867,0
0.026042,194.152033,-58.831110,-87.270265,1.254168,-5.430910,-0.846802,6.203599,5.778409,0.806998,-5.882575,-0.018850,0.309989,-0.058098,125.215346,188.646303,0
0.027083,162.676594,-8.284608,-154.658523,0.021378,-3.737428,-2.942214,6.341659,4.216215,2.922131,-6.160087,0.014027,0.327953,-0.046895,109.064666,188.570913,0
0.028125,98.670864,39.724905,-206.523107,-0.996522,-1.362291,-4.870946,5.740909,1.793896,4.814839,-5.498327,0.010374,0.312340,-0.046895,73.336377,188.495752,0
0.029167,48.707149,110.603568,-189.165152,-0.645912,1.197459,-6.029773,4.263286,-0.720318,6.099027,-4.199713,-0.026156,0.290130,-0.080503,40.277248,188.721732,0
0.030208,1.567717,181.313099,-139.270266,0.270198,3.533542,-6.410757,2.315511,-3.164691,6.497713,-2.282034,-0.073645,0.320310,-0.028224,10.226578,188.495627,0
0.031250,-51.583240,201.488209,-79.563826,1.355958,5.443592,-5.307490,-0.550181,-4.998891,5.461130,0.379235,-0.117481,0.302542,-0.028224,-17.584711,188.570966,0
0.032292,-134.576317,175.864612,-28.868750,2.373858,6.661337,-3.874832,-2.990497,-6.208212,4.034254,2.784340,-0.190541,0.301954,-0.005818,-68.423160,188.495604,0
0.033333,-182.192134,120.256211,20.693750,3.312588,6.295659,-1.668299,-4.628568,-6.046479,1.935908,4.378255,-0.205153,0.316129,-0.043161,-103.506779,188.721860,0
0.034375,-194.578144,60.093309,87.540341,4.590618,5.635307,0.970809,-6.300222,-5.179002,-0.758369,6.025538,-0.230724,0.312536,-0.043161,-120.596189,188.571013,0
0.035417,-163.227473,9.740101,154.842425,5.834718,3.924073,3.121782,-6.486791,-3.642539,-2.860912,6.303050,-0.270907,0.325797,-0.065566,-105.124109,188.571027,0
0.036458,-100.560158,-39.054671,206.202273,6.796068,1.495683,5.066388,-5.848726,-1.245950,-4.795587,5.719563,-0.223418,0.327169,-0.020755,-69.384510,188.495618,0
0.037500,-50.267510,-110.332004,189.164395,6.502008,-1.053417,6.205371,-4.307671,1.279291,-6.075579,4.356908,-0.212459,0.319526,-0.065566,-37.331971,188.721799,0
0.038542,-2.481556,-180.860322,140.094319,5.608518,-3.403701,6.558575,-2.412135,3.679555,-6.423904,2.449902,-0.194194,0.300451,-0.028224,-5.494321,188.570957,0
0.039583,51.633514,-201.119998,80.560228,4.477518,-5.249846,5.455309,0.405050,5.590945,-5.454468,-0.271851,-0.157664,0.301627,-0.065566,22.893778,188.571002,0
0.040625,134.093493,-175.750099,29.101894,3.482238,-6.471142,4.066305,2.897605,6.745131,-4.006609,-2.620029,-0.037115,0.298688,-0.039427,73.076247,188.495589,0
0.041667,181.766022,-120.045051,-20.669886,2.566128,-6.098363,1.788338,4.494631,6.590750,-1.899869,-4.245965,-0.033462,0.311753,-0.061832,109.698026,188.721820,0
0.042708,194.163375,-58.855272,-87.024053,1.265478,-5.409609,-0.830928,6.117777,5.726948,0.756637,-5.857670,0.028639,0.310577,-0.054364,125.599886,188.571093,0
0.043750,162.982841,-8.127556,-154.424622,0.010068,-3.701925,-2.894591,6.281957,4.216215,2.846590,-6.096046,-0.029809,0.305089,-0.058098,111.790376,188.571073,0
0.044792,99.249331,39.797390,-205.919887,-0.996522,-1.330339,-4.835229,5.655087,1.764490,4.751889,-5.501885,-0.004238,0.335988,-0.046895,74.648337,188.495645,0
0.045833,48.639094,110.277384,-189.546781,-0.611982,1.161956,-5.986118,4.207316,-0.698263,6.057060,-4.174808,-0.015197,0.304763,-0.031958,40.311178,188.721826,0
0.046875,1.329524,180.491598,-139.688826,0.270198,3.462537,-6.339322,2.352825,-3.043392,6.468336,-2.317612,-0.069992,0.299210,-0.031958,9.921208,188.571018,0
0.047917,-51.821433,201.681504,-79.908523,1.378578,5.340634,-5.247962,-0.520330,-4.951106,5.431753,0.361446,-0.150358,0.303914,-0.039427,-18.500821,188.571084,0
0.048958,-133.634889,175.622994,-28.856439,2.362548,6.579681,-3.878800,-2.919601,-6.105291,4.030058,2.773666,-0.179582,0.299406,-0.031958,-68.208270,188.495474,0
0.050000,-182.532409,120.920660,20.939962,3.335208,6.238854,-1.680205,-4.542747,-5.969289,1.961088,4.324887,-0.216112,0.313647,-0.031958,-104.920529,188.721759,0
0.051042,-194.158472,60.057066,87.097159,4.567998,5.503947,0.958904,-6.210669,-5.134893,-0.712205,5.925918,-0.248989,0.311165,-0.054364,-121.320029,188.570821,0
0.052083,-163.908023,9.655534,154.583902,5.834718,3.877919,3.038441,-6.412163,-3.631512,-2.785371,6.231893,-0.289172,0.319396,-0.035692,-105.780089,188.571055,0
0.053125,-101.206680,-39.078832,205.328220,6.807378,1.509884,4.994953,-5.785293,-1.315789,-4.657096,5.644849,-0.245336,0.329129,-0.050629,-69.723810,188.495651,0
0.054167,-50.267510,-110.199114,189.755304,6.524628,-0.989512,6.090282,-4.333790,1.231506,-5.970661,4.356908,-0.205153,0.322335,-0.080503,-37.207561,188.721780,0
0.055208,-1.982486,-179.785121,140.352841,5.585898,-3.311394,6.479204,-2.419597,3.620743,-6.386134,2.453460,-0.175929,0.315084,-0.043161,-5.516941,188.571105,0
0.056250,51.724254,-201.760286,80.683334,4.477518,-5.157539,5.435466,0.364005,5.506403,-5.408304,-0.204251,-0.117481,0.305677,-0.061832,22.520548,188.571100,0
0.057292,133.231463,-175.556805,29.261932,3.493548,-6.393036,3.955184,2.841634,6.715725,-3.968839,-2.563104,-0.080951,0.299210,-0.058098,72.386337,188.495600,0
0.058333,182.185695,-120.612853,-20.916099,2.554818,-6.077061,1.816118,4.420004,6.572371,-1.920853,-4.203271,-0.026156,0.310119,-0.050629,108.340826,188.721876,0
0.059375,193.630278,-58.734463,-86.839394,1.288098,-5.370556,-0.791242,6.073001,5.712245,0.777621,-5.775840,-0.007891,0.314627,-0.035692,124.762946,188.570966,0
0.060417,163.289089,-8.006747,-154.227652,0.032688,-3.740978,-2.835063,6.308077,4.234594,2.846590,-6.085372,-0.018850,0.317501,-0.013287,109.607546,188.495618,0
0.061458,99.521551,40.039008,-205.316667,-0.996522,-1.362291,-4.767763,5.703595,1.823302,4.676348,-5.501885,-0.007891,0.312014,-0.013287,73.947117,188.495763,0
0.062500,48.400901,110.337788,-189.940720,-0.679842,1.130004,-5.950401,4.259555,-0.676209,5.994110,-4.196156,-0.048074,0.291632,-0.054364,40.424278,188.721956,0
0.063542,1.125359,179.935876,-140.021213,0.258888,3.458986,-6.327416,2.311780,-3.017661,6.405386,-2.292708,-0.066339,0.293331,-0.035692,9.887278,188.570930,0
0.064583,-51.889488,202.043931,-79.970076,1.389888,5.376137,-5.279710,-0.490479,-4.910673,5.456933,0.322310,-0.091910,0.321813,-0.035692,-17.799601,188.495694,0
0.065625,-133.521464,175.659236,-28.930303,2.385168,6.583231,-3.874832,-2.938258,-6.090588,4.030058,2.734530,-0.150358,0.300713,-0.017021,-68.129100,188.495687,0
0.066667,-182.384956,121.246845,21.149242,3.323898,6.235304,-1.684173,-4.531553,-5.958261,1.969481,4.332003,-0.219765,0.313843,-0.039427,-103.393679,188.646426,0
0.067708,-194.181157,60.334927,87.183334,4.567998,5.539449,0.946998,-6.221863,-5.145921,-0.682828,5.954381,-0.245336,0.316195,-0.031958,-120.200339,188.495644,0
0.068750,-164.089503,9.498483,154.485417,5.868648,3.899221,3.054316,-6.393506,-3.675621,-2.781175,6.231893,-0.274560,0.326255,-0.031958,-105.474719,188.495651,0
0.069792,-101.354133,-39.441259,205.168182,6.796068,1.531185,4.990985,-5.796487,-1.227571,-4.699063,5.630617,-0.234377,0.302999,-0.039427,-69.791670,188.495723,0
0.070833,-50.210798,-110.126629,189.755304,6.490698,-0.982412,6.161717,-4.333790,1.242533,-6.012628,4.349792,-0.212459,0.321094,-0.024490,-37.467691,188.721911,0
0.071875,-1.778321,-179.555584,140.734470,5.631138,-3.339796,6.491109,-2.449448,3.609716,-6.402921,2.481923,-0.150358,0.315737,-0.069301,-5.030611,188.495716,0
0.072917,51.849022,-201.591153,80.634091,4.511448,-5.146888,5.443403,0.397587,5.506403,-5.420895,-0.200694,-0.106522,0.303260,-0.054364,23.063428,188.495604,0
0.073958,133.095353,-175.762180,28.954167,3.504858,-6.382385,4.030587,2.781932,6.678968,-3.998216,-2.534641,-0.066339,0.300190,-0.046895,72.533367,188.495671,0
0.075000,181.924817,-120.842391,-21.039205,2.554818,-6.062860,1.847866,4.397616,6.517235,-1.954426,-4.185482,-0.044421,0.311491,-0.054364,109.562306,188.646545,0
0.076042,193.755045,-58.746544,-86.630114,1.276788,-5.363455,-0.815053,6.046881,5.726948,0.735654,-5.775840,-0.011544,0.313451,-0.031958,125.305826,188.495439,0
0.077083,163.640706,-7.765129,-154.129167,0.032688,-3.755179,-2.811251,6.248375,4.219891,2.821410,-6.071141,-0.004238,0.309727,-0.017021,112.208846,188.495740,0
0.078125,99.827799,40.147736,-205.082766,-0.985212,-1.362291,-4.759826,5.688670,1.826977,4.667955,-5.469865,-0.000585,0.292416,-0.043161,75.100737,188.495723,0
0.079167,48.434929,110.168656,-190.162311,-0.634602,1.140655,-5.906746,4.196122,-0.646803,5.973126,-4.167693,-0.033462,0.303718,-0.035692,40.446898,188.721867,0
0.080208,1.114017,179.307669,-140.476705,0.258888,3.448336,-6.299636,2.326705,-3.043392,6.346632,-2.282034,-0.099216,0.334878,-0.035692,9.875968,188.495765,0
0.081250,-52.036940,202.092254,-80.203978,1.389888,5.290930,-5.263836,-0.468091,-4.873915,5.444343,0.322310,-0.128440,0.288366,-0.031958,-18.772261,188.495602,0
0.082292,-133.090449,175.635075,-28.868750,2.362548,6.494474,-3.874832,-2.844973,-6.020749,4.034254,2.670489,-0.186888,0.301235,-0.028224,-68.027310,188.495702,0
0.083333,-182.543751,121.718000,21.210796,3.335208,6.192701,-1.688142,-4.490508,-5.976640,1.990465,4.296425,-0.216112,0.314627,-0.043161,-104.897909,188.646596,0
0.084375,-193.840882,60.189956,86.974053,4.545378,5.500396,0.899375,-6.109922,-5.098136,-0.691222,5.925918,-0.274560,0.312667,-0.043161,-121.116449,188.495741,0
0.085417,-164.463805,9.365593,154.534660,5.823408,3.877919,3.014630,-6.352461,-3.638863,-2.764388,6.214104,-0.238030,0.329717,-0.058098,-106.074149,188.495667,0
0.086458,-101.807833,-39.453340,204.663448,6.762138,1.509884,4.919550,-5.781562,-1.282707,-4.623523,5.637733,-0.241683,0.322858,-0.002084,-69.983940,188.495683,0
0.087500,-50.131400,-110.150791,190.260038,6.490698,-0.971761,6.074408,-4.330059,1.191073,-5.949678,4.342677,-0.201500,0.319069,-0.028224,-37.218871,188.571056,0
0.088542,-1.562813,-178.987782,140.783713,5.608518,-3.290093,6.439518,-2.430791,3.591337,-6.344167,2.467691,-0.183235,0.314627,-0.054364,-5.302051,188.571123,0
0.089583,51.996474,-202.013985,80.646402,4.500138,-5.150438,5.423560,0.349079,5.480673,-5.420895,-0.165115,-0.139399,0.304959,-0.020755,22.690198,188.495734,0
0.090625,132.721050,-175.399753,29.064962,3.527478,-6.332681,4.010745,2.796858,6.671616,-3.977232,-2.541757,-0.048074,0.300255,-0.043161,72.284547,188.495673,0
0.091667,182.208380,-121.071928,-21.113068,2.554818,-6.137416,1.851835,4.390153,6.553992,-1.962820,-4.160577,-0.007891,0.311753,-0.020755,108.329516,188.571060,0
0.092708,193.324030,-58.674059,-86.617803,1.276788,-5.398958,-0.763462,6.043150,5.690191,0.693687,-5.722472,-0.007891,0.316064,-0.035692,124.570676,188.571160,0
0.093750,163.788159,-7.813453,-154.104546,0.010068,-3.780031,-2.843000,6.259569,4.205188,2.813017,-6.064025,-0.007891,0.328476,-0.050629,109.833746,188.495736,0
0.094792,100.077334,40.183979,-204.811932,-0.985212,-1.419096,-4.747920,5.699864,1.804923,4.667955,-5.498327,-0.018850,0.324426,-0.031958,74.207247,188.495765,0
0.095833,48.378216,110.349869,-190.359281,-0.623292,1.073199,-5.922621,4.225973,-0.643127,6.002503,-4.221060,-0.037115,0.316521,-0.076769,40.571308,188.495741,0
0.096875,1.057304,179.416398,-140.550569,0.258888,3.448336,-6.303605,2.337899,-3.010310,6.388599,-2.335402,-0.059033,0.304501,-0.035692,9.875968,188.495674,0
0.097917,-52.082310,202.152659,-80.314773,1.378578,5.337084,-5.323365,-0.464359,-4.906997,5.511490,0.297405,-0.110175,0.304240,-0.039427,-17.969251,188.495980,0
0.098958,-133.351327,175.731722,-29.065720,2.339928,6.537078,-3.874832,-2.852436,-6.068534,4.067828,2.709625,-0.168623,0.301693,-0.020755,-68.038620,188.495685,0
0.100000,-182.532409,121.693838,21.112311,3.312588,6.228203,-1.715922,-4.501702,-5.961937,2.007252,4.307098,-0.186888,0.314366,-0.039427,-103.337129,188.571113,0
0.101042,-193.954307,60.612788,87.097159,4.545378,5.528799,0.919218,-6.162161,-5.156948,-0.699615,5.904571,-0.238030,0.315084,-0.043161,-120.041999,188.495683,0
0.102083,-164.384408,9.522645,154.522349,5.857338,3.888570,2.998756,-6.359924,-3.664593,-2.735011,6.246125,-0.278213,0.327169,-0.024490,-105.689609,188.495694,0
0.103125,-101.751120,-39.405017,204.811175,6.863928,1.563138,4.947330,-5.818875,-1.297410,-4.665490,5.662638,-0.230724,0.331023,-0.028224,-70.097040,188.495750,0
0.104167,-49.938578,-110.066224,190.038448,6.547248,-0.918507,6.082345,-4.352447,1.224154,-6.000038,4.367582,-0.194194,0.324883,-0.043161,-37.433761,188.495655,0
0.105208,-1.438046,-179.289804,140.968372,5.608518,-3.261690,6.491109,-2.475568,3.528850,-6.398724,2.499712,-0.175929,0.321747,-0.024490,-4.827031,188.495783,0
0.106250,51.905734,-201.796528,80.707955,4.500138,-5.168190,5.475152,0.319228,5.495376,-5.458665,-0.101074,-0.099216,0.314104,-0.058098,23.165218,188.495743,0
0.107292,132.766420,-175.750099,28.954167,3.470928,-6.350432,4.002807,2.819246,6.689995,-3.998216,-2.513294,-0.066339,0.300909,-0.058098,72.454197,188.495987,0
0.108333,181.947502,-120.963200,-21.236174,2.520888,-6.069960,1.851835,4.405078,6.550316,-1.992197,-4.167693,0.003068,0.313255,-0.046895,109.550996,188.495665,0
0.109375,193.652963,-58.746544,-86.531629,1.322028,-5.388307,-0.715839,6.046881,5.771057,0.693687,-5.779397,-0.000585,0.307049,-0.035692,125.181416,188.495712,0
0.110417,163.708761,-7.837615,-153.981440,-0.001242,-3.780031,-2.843000,6.244644,4.252972,2.779443,-6.088930,-0.000585,0.303456,-0.050629,112.254086,188.495651,0
0.111458,100.088676,40.171898,-204.898107,-0.973902,-1.429747,-4.771731,5.722252,1.863735,4.642775,-5.523232,0.003068,0.304306,-0.046895,75.315627,188.495774,0
0.112500,48.378216,110.313627,-190.297728,-0.679842,1.066099,-5.918652,4.270749,-0.613721,5.985717,-4.270870,-0.037115,0.291241,-0.028224,40.593928,188.495812,0
0.113542,1.102674,179.174779,-140.784470,0.247578,3.409282,-6.339322,2.393870,-2.973552,6.413779,-2.324728,-0.084604,0.313451,-0.035692,9.932518,188.571132,0
0.114583,-52.070968,202.345953,-80.659470,1.344648,5.283829,-5.319396,-0.427046,-4.929051,5.511490,0.283174,-0.135746,0.307049,-0.039427,-18.727021,188.495694,0
0.115625,-133.056422,175.731722,-29.090341,2.362548,6.505125,-3.894674,-2.818854,-6.031776,4.042648,2.652699,-0.194194,0.302803,-0.017021,-68.027310,188.495776,0
0.116667,-182.770601,122.007942,21.223106,3.312588,6.242405,-1.775451,-4.479314,-6.002370,2.053415,4.260846,-0.216112,0.315084,-0.024490,-104.920529,188.495752,0
0.117708,-193.863567,60.540302,86.974053,4.567998,5.535899,0.899375,-6.165893,-5.171651,-0.611485,5.904571,-0.267254,0.316521,-0.043161,-121.206929,188.495510,0
0.118750,-164.633943,9.413916,154.596213,5.857338,3.952475,2.967007,-6.356193,-3.734433,-2.730814,6.224778,-0.245336,0.345003,-0.035692,-106.209869,188.495745,0
0.119792,-101.626353,-39.574149,204.798864,6.818688,1.566688,4.927487,-5.815144,-1.330492,-4.665490,5.687543,-0.256295,0.328606,-0.054364,-69.882150,188.495750,0
0.120833,-50.040660,-110.235357,190.358523,6.535938,-0.918507,6.094251,-4.367372,1.180045,-5.974858,4.381813,-0.234377,0.325275,-0.039427,-37.196251,188.495772,0
0.121875,-1.642211,-179.132752,140.943750,5.619828,-3.261690,6.518889,-2.509150,3.539877,-6.398724,2.545964,-0.183235,0.320441,-0.065566,-5.279431,188.571212,0
0.122917,51.849022,-202.110632,80.560228,4.477518,-5.146888,5.526744,0.270720,5.510079,-5.509025,-0.086843,-0.124787,0.306069,-0.050629,22.701508,188.495741,0
0.123958,132.902530,-175.593048,29.064962,3.482238,-6.400136,4.070273,2.740887,6.701022,-4.082150,-2.506178,-0.062686,0.302607,-0.043161,72.341097,188.495749,0
0.125000,182.072270,-121.059847,-21.211553,2.532198,-6.119664,1.915332,4.423735,6.627507,-2.034163,-4.135672,-0.018850,0.314627,-0.058098,108.329516,188.495743,0
0.126042,193.584908,-58.710301,-86.740909,1.299408,-5.452212,-0.719807,6.080463,5.811490,0.655917,-5.775840,0.010374,0.303848,-0.039427,124.717706,188.495855,0
0.127083,163.810844,-7.801372,-154.215341,0.077928,-3.847486,-2.854905,6.345391,4.289730,2.813017,-6.138740,0.003068,0.308878,-0.043161,109.788506,188.495769,0
