1-Time,2-VGERA,3-VGERB,4-VGERC,5-VN,6-IGERAN,7-IGERBN,8-IGERCN,9-IGERAT,10-IGERBT,11-IGERCT,12-IN,13-IFD,14-IFAULT,15-VFAULT,16-Speed (rad/s),17-FAULT 
0.000000,116.172342,81.500671,-182.517425,-0.487572,-5.384757,1.320045,4.162539,5.366725,-1.392069,-3.879507,-0.044421,0.560902,-0.039427,6.109738,188.420354,0
0.001042,38.771118,133.049888,-185.841288,-0.645912,-4.543341,-0.703933,5.110307,4.613196,0.643327,-4.904167,-0.029809,0.592062,-0.073035,4.888258,188.495627,0
0.002083,-33.707460,174.535712,-155.704925,-0.046482,-3.066425,-2.775534,5.535683,3.179653,2.645149,-5.320435,-0.004238,0.571027,-0.020755,1.811938,188.495694,0
0.003125,-102.046025,178.039174,-96.909470,1.073208,-0.982412,-4.521711,4.946127,1.069773,4.382580,-4.793874,-0.062686,0.580826,-0.028224,0.499978,188.495758,0
0.004167,-145.136185,182.738646,-9.935038,2.701848,1.112252,-5.414642,3.770745,-1.040108,5.364606,-3.634016,-0.069992,0.577887,-0.020755,-1.253072,188.420376,0
0.005208,-165.620740,145.746918,66.082955,4.138218,3.040054,-5.410673,1.808045,-2.958849,5.423360,-1.826630,-0.088257,0.573967,-0.058098,-1.875122,188.495656,0
0.006250,-187.591164,63.016887,119.917235,5.144808,4.832944,-4.771731,-0.445703,-4.793049,4.835823,0.404140,-0.168623,0.572399,-0.031958,-2.825161,188.495676,0
0.007292,-165.745508,-10.531656,161.797917,5.981748,5.450692,-3.438287,-2.266611,-5.454684,3.631372,2.079886,-0.205153,0.579977,-0.058098,-2.587651,188.495676,0
0.008333,-117.585251,-79.936450,182.898296,6.400218,5.482645,-1.160320,-4.363641,-5.436305,1.327387,4.093627,-0.201500,0.579716,-0.043161,-1.388792,188.495539,0
0.009375,-40.705782,-132.850809,185.557387,6.479388,4.612827,0.879532,-5.285289,-4.679100,-0.695418,5.079151,-0.256295,0.586771,-0.035692,-0.167312,188.495633,0
0.010417,31.738768,-174.457443,156.135038,5.925198,3.146562,2.907478,-5.621113,-3.263937,-2.718224,5.530997,-0.270907,0.588273,-0.050629,3.361408,188.495589,0
0.011458,101.461119,-177.356860,97.671970,4.782888,1.037697,4.574283,-5.087527,-1.120974,-4.443065,4.958184,-0.256295,0.585856,-0.039427,4.322758,188.495683,0
0.012500,144.970951,-182.684538,10.635985,3.109008,-1.021465,5.534681,-3.841249,1.018312,-5.458665,3.812557,-0.183235,0.576384,-0.031958,6.279388,188.495667,0
0.013542,165.546247,-145.668648,-65.899053,1.695258,-2.920864,5.411655,-1.904668,2.914999,-5.467058,1.976709,-0.183235,0.568937,-0.031958,6.731788,188.495600,0
0.014583,187.414587,-62.672838,-119.967235,0.643428,-4.706654,4.828273,0.337885,4.657305,-4.896308,-0.218483,-0.157664,0.572530,-0.031958,7.546108,188.495700,0
0.015625,165.716384,11.383104,-161.577084,-0.136962,-5.320852,3.570232,2.050584,5.355697,-3.628907,-1.908460,-0.102869,0.574751,-0.039427,7.342528,188.491987,0
0.016667,116.818864,80.775816,-182.800569,-0.578052,-5.359905,1.280359,4.147614,5.436564,-1.354299,-3.875949,-0.029809,0.551495,-0.013287,6.075808,188.565381,0
0.017708,39.565094,133.037807,-185.693561,-0.611982,-4.500737,-0.731713,5.087919,4.624223,0.639130,-4.897051,-0.029809,0.569068,-0.065566,4.481098,188.558081,0
0.018750,-33.446582,174.571955,-155.680304,-0.069102,-3.073526,-2.779502,5.543146,3.205384,2.661936,-5.334667,0.006721,0.571746,-0.028224,1.811938,188.495595,0
0.019792,-102.148108,177.785476,-96.515531,1.095828,-0.968211,-4.485993,4.938664,1.073449,4.361596,-4.776085,-0.004238,0.575535,-0.050629,0.556528,188.490197,0
0.020833,-144.897992,182.907779,-9.036364,2.713158,1.119353,-5.370988,3.748357,-1.029081,5.326836,-3.612669,-0.059033,0.569329,-0.046895,-1.309622,188.569704,0
0.021875,-165.212410,145.722756,66.870834,4.160838,3.008101,-5.335270,1.759537,-2.918416,5.406573,-1.858650,-0.077298,0.564756,-0.039427,-1.829882,188.495645,0
0.022917,-187.375656,61.772554,120.089584,5.178738,4.829394,-4.739983,-0.430777,-4.686452,4.810643,0.404140,-0.117481,0.567631,-0.031958,-2.870401,188.495763,0
0.023958,-165.790878,-11.824313,161.256250,5.993058,5.400989,-3.470036,-2.173327,-5.381169,3.627175,2.072770,-0.194194,0.562143,0.001650,-2.451931,188.495685,0
0.025000,-116.655166,-80.685466,182.885985,6.400218,5.486195,-1.192069,-4.303939,-5.403223,1.373551,4.086512,-0.245336,0.556395,-0.031958,-1.094732,188.495676,0
0.026042,-39.526162,-132.705838,185.742046,6.445458,4.655430,0.843815,-5.195737,-4.708506,-0.657648,5.079151,-0.263601,0.582002,-0.050629,-0.133382,188.495591,0
0.027083,32.793621,-174.372876,155.839584,5.879958,3.196266,2.907478,-5.669621,-3.263937,-2.705634,5.474072,-0.270907,0.580630,-0.005818,3.270928,188.495740,0
0.028125,101.642599,-177.598478,97.585796,4.805508,1.112252,4.574283,-5.080064,-1.120974,-4.430475,4.990205,-0.252642,0.583831,-0.043161,4.209658,188.495756,0
0.029167,144.834841,-182.599972,10.709849,3.154248,-1.039216,5.502932,-3.878563,0.981555,-5.425091,3.819673,-0.219765,0.580826,-0.054364,6.426418,188.571011,0
0.030208,165.500877,-145.874024,-65.566667,1.706568,-2.924414,5.483089,-1.941982,2.911324,-5.500632,2.069213,-0.172276,0.572530,-0.046895,6.709168,188.488996,0
0.031250,187.233107,-63.035265,-120.065720,0.677358,-4.735056,4.887802,0.311765,4.679359,-4.866931,-0.172231,-0.135746,0.571877,-0.039427,7.523488,188.495419,0
0.032292,165.988604,10.428712,-161.700190,-0.114342,-5.331503,3.566263,2.091629,5.359373,-3.675070,-1.872882,-0.121134,0.579650,-0.017021,7.433008,188.495459,0
0.033333,117.317934,80.328823,-182.886743,-0.532812,-5.381206,1.288296,4.192390,5.403482,-1.425643,-3.883065,-0.051727,0.577233,-0.028224,6.154978,188.472951,0
0.034375,40.688001,133.049888,-185.681251,-0.645912,-4.543341,-0.759493,5.114039,4.583790,0.634933,-4.921956,-0.040768,0.588992,-0.043161,4.888258,188.551135,0
0.035417,-32.312332,174.668602,-155.852652,-0.057792,-3.087727,-2.843000,5.543146,3.153923,2.716493,-5.348898,-0.051727,0.588143,-0.065566,1.789318,188.493646,0
0.036458,-101.739778,177.966689,-97.044887,1.050588,-0.954009,-4.493931,4.957321,1.033015,4.470710,-4.744064,-0.018850,0.585399,-0.054364,0.443428,188.495774,0
0.037500,-145.283637,182.823212,-9.713447,2.701848,1.137104,-5.434485,3.707312,-1.073190,5.398180,-3.616227,-0.084604,0.573118,-0.043161,-1.253072,188.420267,0
0.038542,-165.779535,145.674433,66.279924,4.126908,3.029403,-5.339239,1.744612,-2.980904,5.410770,-1.808840,-0.113828,0.569982,-0.046895,-1.852502,188.495658,0
0.039583,-187.852041,62.376600,119.720266,5.156118,4.868447,-4.736014,-0.538987,-4.741588,4.798052,0.457508,-0.128440,0.567631,-0.017021,-2.847781,188.495626,0
0.040625,-165.711480,-11.534371,161.403978,5.959128,5.443592,-3.410507,-2.303925,-5.447332,3.547438,2.154601,-0.172276,0.567696,-0.035692,-2.632891,188.495747,0
0.041667,-116.609796,-80.794194,182.849054,6.343668,5.461343,-1.132540,-4.363641,-5.428953,1.272830,4.168342,-0.238030,0.548229,-0.046895,-1.343552,188.495702,0
0.042708,-38.970380,-132.874971,185.705114,6.411528,4.619927,0.939061,-5.318872,-4.664397,-0.762566,5.128961,-0.241683,0.580761,-0.043161,-0.099452,188.495693,0
0.043750,33.587596,-174.167501,156.184281,5.879958,3.146562,2.935258,-5.688277,-3.205125,-2.776978,5.481188,-0.278213,0.559400,-0.024490,3.406648,188.495848,0
0.044792,101.903476,-177.598478,96.650190,4.748958,1.009294,4.625875,-5.061407,-1.076865,-4.472442,4.972416,-0.256295,0.582198,-0.050629,4.311448,188.476054,0
0.045833,144.585306,-182.998642,9.392614,3.120318,-1.081819,5.554524,-3.882294,1.066097,-5.433485,3.801884,-0.234377,0.576515,-0.091706,6.279388,188.552972,0
0.046875,165.217314,-145.137089,-66.366856,1.706568,-2.959917,5.487058,-1.912131,2.948081,-5.475452,2.019403,-0.135746,0.569590,-0.069301,6.743098,188.488449,0
0.047917,187.709493,-61.839255,-119.807197,0.688668,-4.756357,4.863990,0.334154,4.723468,-4.904701,-0.236272,-0.154011,0.567500,-0.039427,7.568728,188.487807,0
0.048958,165.568932,11.528075,-161.564773,-0.159582,-5.395408,3.574200,2.128943,5.392455,-3.658284,-1.897787,-0.106522,0.578213,-0.065566,7.353838,188.489728,0
0.050000,116.705439,80.739574,-183.022160,-0.589362,-5.416709,1.292265,4.211047,5.388779,-1.429840,-3.929317,-0.073645,0.582329,-0.050629,6.075808,188.564518,0
0.051042,39.939396,133.134454,-185.435038,-0.589362,-4.543341,-0.763462,5.140158,4.583790,0.668507,-4.964650,-0.051727,0.586836,-0.043161,4.582888,188.558069,0
0.052083,-32.663950,174.632360,-155.951137,-0.057792,-3.069975,-2.870780,5.535683,3.135544,2.699706,-5.345340,-0.018850,0.592323,-0.039427,1.879798,188.475288,0
0.053125,-101.841860,177.664666,-97.426515,1.050588,-0.957560,-4.505836,4.934933,1.058746,4.424547,-4.822337,-0.059033,0.583570,-0.035692,0.579148,188.484103,0
0.054167,-145.408405,182.714484,-10.464394,2.690538,1.133554,-5.450359,3.748357,-1.073190,5.402376,-3.658921,-0.066339,0.582851,-0.046895,-1.343552,188.545551,0
0.055208,-165.802220,146.193912,65.738258,4.115598,3.050704,-5.359082,1.763268,-2.969877,5.456933,-1.862208,-0.099216,0.570897,-0.031958,-1.863812,188.487539,0
0.056250,-187.806671,63.294748,119.904925,5.144808,4.840045,-4.724108,-0.497942,-4.793049,4.886183,0.375678,-0.121134,0.570766,-0.065566,-2.870401,188.487762,0
0.057292,-166.051755,-10.205472,161.588637,5.970438,5.457793,-3.446224,-2.225566,-5.458359,3.576815,2.119022,-0.190541,0.577103,-0.065566,-2.463241,188.489365,0
0.058333,-117.437798,-79.924369,183.095266,6.388908,5.479095,-1.180163,-4.356178,-5.451008,1.356764,4.122090,-0.223418,0.578083,-0.039427,-1.106042,188.569261,0
0.059375,-40.637727,-132.621272,185.705114,6.445458,4.619927,0.911281,-5.266633,-4.682776,-0.703812,5.139634,-0.234377,0.583831,-0.009553,-0.167312,188.495769,0
0.060417,32.544086,-174.372876,156.073485,5.891268,3.125260,2.923353,-5.706934,-3.238206,-2.747601,5.509650,-0.241683,0.574163,-0.035692,3.316168,188.495758,0
0.061458,101.744681,-177.622639,96.982576,4.782888,1.069649,4.602064,-5.016631,-1.098920,-4.506016,4.997320,-0.230724,0.580630,-0.061832,4.209658,188.495767,0
0.062500,144.607991,-182.853671,9.614205,3.131628,-1.042766,5.554524,-3.830055,1.025664,-5.433485,3.798326,-0.252642,0.571223,-0.035692,6.392488,188.571022,0
0.063542,165.262684,-145.294140,-66.514584,1.695258,-2.967017,5.479121,-1.912131,2.948081,-5.454468,1.976709,-0.183235,0.568284,-0.031958,6.731788,188.495693,0
0.064583,187.596067,-61.198968,-119.782576,0.654738,-4.742156,4.856053,0.386393,4.774929,-4.879521,-0.254061,-0.146705,0.535491,-0.076769,7.602658,188.495973,0
0.065625,165.614302,12.373738,-161.380114,-0.159582,-5.356354,3.570232,2.136405,5.436564,-3.633103,-1.936923,-0.102869,0.537908,-0.065566,7.455628,188.495767,0
0.066667,116.036232,81.488590,-182.948296,-0.566742,-5.359905,1.280359,4.207316,5.374076,-1.341709,-3.922201,-0.026156,0.557962,-0.054364,6.098428,188.495595,0
0.067708,38.646351,132.989483,-185.915152,-0.645912,-4.525589,-0.731713,5.125233,4.576438,0.681097,-4.882820,-0.051727,0.564822,-0.073035,4.888258,188.495566,0
0.068750,-34.025050,174.402822,-155.988069,-0.091722,-3.059324,-2.846968,5.513295,3.142896,2.724886,-5.309762,-0.011544,0.586379,-0.073035,1.800628,188.495455,0
0.069792,-102.159450,178.111660,-96.281629,1.084518,-0.961110,-4.517742,4.942396,0.996258,4.437137,-4.800990,-0.033462,0.578932,-0.043161,0.454738,188.495682,0
0.070833,-145.124842,182.968183,-9.430303,2.701848,1.193909,-5.458296,3.740894,-1.087893,5.435950,-3.658921,-0.033462,0.574620,-0.024490,-1.253072,188.495640,0
0.071875,-165.643425,145.456976,66.046023,4.126908,3.072006,-5.370988,1.707298,-2.969877,5.448540,-1.791051,-0.117481,0.571615,-0.035692,-1.875122,188.495752,0
0.072917,-188.101576,62.340357,119.744887,5.178738,4.879098,-4.779669,-0.494210,-4.785697,4.831626,0.404140,-0.139399,0.569460,-0.024490,-2.836471,188.495635,0
0.073958,-165.609398,-10.688708,161.810228,5.959128,5.450692,-3.426382,-2.274074,-5.458359,3.581012,2.158159,-0.190541,0.580630,-0.050629,-2.587651,188.495749,0
0.075000,-117.256318,-79.924369,183.021402,6.388908,5.514597,-1.120634,-4.374835,-5.458359,1.256044,4.161226,-0.230724,0.575339,-0.050629,-1.354862,188.565606,0
0.076042,-40.376850,-132.862890,185.348107,6.456768,4.637679,0.915249,-5.285289,-4.657046,-0.749975,5.114729,-0.263601,0.585007,-0.031958,-0.167312,188.495676,0
0.077083,32.271866,-174.348714,156.405872,5.959128,3.164313,2.970976,-5.673352,-3.227179,-2.776978,5.520324,-0.263601,0.588469,-0.046895,3.372718,188.495781,0
0.078125,101.517831,-177.393102,97.351894,4.782888,0.991543,4.586189,-5.031556,-1.073190,-4.472442,4.933279,-0.278213,0.578148,-0.031958,4.311448,188.495685,0
0.079167,144.778128,-182.889914,10.722159,3.154248,-1.071169,5.530712,-3.811398,1.055070,-5.467058,3.773421,-0.252642,0.574294,-0.039427,6.279388,188.495644,0
0.080208,165.398794,-145.209574,-65.899053,1.695258,-2.974118,5.415623,-1.867355,2.937054,-5.425091,1.958919,-0.179582,0.567304,-0.050629,6.731788,188.495767,0
0.081250,187.698150,-62.431220,-119.684091,0.620808,-4.752807,4.820336,0.405050,4.716117,-4.866931,-0.254061,-0.113828,0.569264,-0.043161,7.534798,188.495618,0
0.082292,165.466849,11.250214,-161.503220,-0.170892,-5.317301,3.506734,2.106554,5.388779,-3.595333,-1.908460,-0.084604,0.573183,-0.013287,7.319908,188.495671,0
0.083333,116.762152,80.655007,-183.132955,-0.566742,-5.370556,1.256547,4.181196,5.366725,-1.341709,-3.932875,-0.026156,0.577625,-0.043161,6.030568,188.646446,0
0.084375,39.780601,133.061969,-185.632008,-0.611982,-4.458134,-0.751556,5.121501,4.609520,0.710474,-4.907725,-0.022503,0.566128,-0.035692,4.469788,188.495676,0
0.085417,-33.457925,174.463227,-155.938826,-0.057792,-3.027372,-2.775534,5.517027,3.146572,2.682919,-5.309762,-0.026156,0.555154,-0.039427,1.800628,188.495584,0
0.086458,-102.204820,177.809637,-96.158523,1.084518,-0.939808,-4.446308,4.908813,1.025664,4.386777,-4.758295,-0.044421,0.574228,-0.039427,0.545218,188.495662,0
0.087500,-145.238267,182.992345,-8.605492,2.747088,1.172607,-5.406705,3.740894,-1.040108,5.377196,-3.658921,-0.044421,0.569917,-0.058098,-1.287002,188.571078,0
0.088542,-165.325835,145.505300,67.006250,4.172148,3.032953,-5.359082,1.774462,-2.962525,5.414966,-1.847977,-0.095563,0.565997,-0.024490,-1.841192,188.495709,0
0.089583,-187.783986,61.373884,120.040341,5.144808,4.779690,-4.728077,-0.479285,-4.719534,4.831626,0.375678,-0.161317,0.544440,-0.046895,-2.859091,188.495694,0
0.090625,-165.666110,-12.090093,161.280872,5.959128,5.404539,-3.450193,-2.236760,-5.388520,3.585208,2.115465,-0.164970,0.561555,-0.069301,-2.451931,188.495662,0
0.091667,-116.314891,-80.915003,182.873675,6.422838,5.471994,-1.164289,-4.333790,-5.406899,1.289617,4.075838,-0.252642,0.557505,-0.031958,-1.106042,188.571109,0
0.092708,-39.117832,-132.899133,185.594319,6.456768,4.630578,0.808097,-5.270364,-4.668073,-0.691222,5.104056,-0.256295,0.565997,-0.061832,-0.167312,188.495622,0
0.093750,33.281348,-174.324553,155.876516,5.913888,3.185615,2.875730,-5.669621,-3.256585,-2.755995,5.502535,-0.238030,0.575470,-0.024490,3.293548,188.495662,0
0.094792,101.880791,-177.489750,97.216478,4.794198,1.087401,4.582221,-5.080064,-1.102596,-4.455655,4.968858,-0.248989,0.584027,-0.043161,4.198348,188.495667,0
0.095833,144.970951,-182.636215,10.328220,3.165558,-1.042766,5.538649,-3.833787,1.021988,-5.420895,3.805442,-0.241683,0.579650,-0.061832,6.415108,188.570995,0
0.096875,165.534904,-145.463273,-65.763637,1.706568,-2.945716,5.451340,-1.938251,2.907648,-5.504828,2.026518,-0.179582,0.575992,-0.069301,6.743098,188.495582,0
0.097917,187.471300,-62.576191,-119.991856,0.654738,-4.731506,4.887802,0.352811,4.716117,-4.871128,-0.182904,-0.135746,0.573967,-0.046895,7.568728,188.495486,0
0.098958,165.682357,10.609926,-161.786364,-0.148272,-5.367005,3.550389,2.106554,5.377752,-3.645693,-1.890671,-0.084604,0.578409,-0.058098,7.466938,188.495752,0
0.100000,117.068399,80.425470,-183.009849,-0.623292,-5.367005,1.280359,4.192390,5.381428,-1.400463,-3.918644,-0.084604,0.577952,-0.061832,6.109738,188.571190,0
0.101042,40.506521,132.977403,-185.607387,-0.611982,-4.504288,-0.799179,5.110307,4.602169,0.685293,-4.936188,-0.029809,0.585595,-0.058098,4.876948,188.495863,0
0.102083,-32.357702,174.571955,-156.000379,-0.046482,-3.045123,-2.831094,5.524489,3.117166,2.695509,-5.288415,-0.004238,0.587881,-0.020755,1.811938,188.495703,0
0.103125,-101.773805,177.894204,-96.724811,1.095828,-0.925607,-4.513774,4.905082,1.003609,4.428743,-4.790316,-0.059033,0.581675,-0.061832,0.454738,188.495721,0
0.104167,-145.408405,182.762808,-9.565720,2.701848,1.183258,-5.410673,3.699849,-1.087893,5.398180,-3.612669,-0.040768,0.574359,-0.054364,-1.241762,188.571031,0
0.105208,-165.892960,145.444895,66.403031,4.104288,3.072006,-5.363050,1.744612,-2.991931,5.406573,-1.812398,-0.128440,0.567631,-0.046895,-1.841192,188.495770,0
0.106250,-188.203659,61.990011,119.843372,5.167428,4.811642,-4.708234,-0.497942,-4.730561,4.823233,0.432603,-0.161317,0.559596,-0.061832,-2.836471,188.495640,0
0.107292,-165.439260,-11.739747,161.588637,5.925198,5.379687,-3.378759,-2.233029,-5.425278,3.530651,2.136812,-0.190541,0.588208,-0.065566,-2.621581,188.495738,0
0.108333,-116.382946,-80.902922,182.972160,6.377598,5.475544,-1.148414,-4.363641,-5.384844,1.289617,4.107859,-0.238030,0.549340,-0.061832,-1.343552,188.495664,0
0.109375,-38.788900,-133.068265,185.520455,6.445458,4.595075,0.931123,-5.218125,-4.623964,-0.749975,5.089824,-0.248989,0.585268,-0.043161,-0.088142,188.495568,0
0.110417,33.859816,-174.155420,156.048864,5.913888,3.150112,2.955101,-5.650964,-3.183070,-2.747601,5.466956,-0.270907,0.573379,-0.043161,3.429268,188.495716,0
0.111458,102.028244,-177.501830,96.170076,4.760268,1.012845,4.582221,-5.020362,-1.058487,-4.459852,4.951068,-0.259948,0.576449,-0.058098,4.311448,188.495694,0
0.112500,144.528593,-182.938237,9.257197,3.142938,-1.092470,5.526744,-3.841249,1.051394,-5.383124,3.755632,-0.245336,0.569852,-0.058098,6.279388,188.495769,0
0.113542,165.047177,-144.786742,-66.440720,1.706568,-2.920864,5.447372,-1.897206,2.914999,-5.425091,1.955361,-0.154011,0.564822,-0.073035,6.743098,188.495635,0
0.114583,187.641437,-61.307696,-119.757955,0.688668,-4.717304,4.832241,0.364005,4.672008,-4.854341,-0.229156,-0.143052,0.574751,-0.080503,7.534798,188.495571,0
0.115625,165.285369,11.854259,-161.552463,-0.136962,-5.296000,3.534514,2.132674,5.355697,-3.603727,-1.894229,-0.113828,0.564887,-0.080503,7.342528,188.495797,0
0.116667,116.489932,80.920787,-182.997538,-0.555432,-5.374106,1.232736,4.170002,5.340994,-1.362693,-3.904412,-0.069992,0.575535,-0.073035,6.041878,188.570984,0
0.117708,39.655834,133.194859,-185.348864,-0.645912,-4.451034,-0.719807,5.110307,4.547032,0.643327,-4.879262,-0.040768,0.577495,-0.046895,4.481098,188.495828,0
0.118750,-32.822745,174.571955,-155.926516,-0.069102,-3.069975,-2.823157,5.509564,3.117166,2.703903,-5.306204,-0.022503,0.587228,-0.020755,1.891108,188.495783,0
0.119792,-101.909915,177.495534,-97.007955,1.061898,-0.932708,-4.478056,4.916276,0.999934,4.382580,-4.726275,-0.077298,0.579389,-0.024490,0.567838,188.499317,0
0.120833,-145.374377,182.617837,-10.205871,2.701848,1.147755,-5.414642,3.722238,-1.054811,5.385589,-3.601995,-0.044421,0.578475,-0.080503,-1.320932,188.501277,0
0.121875,-165.892960,145.988536,65.885985,4.138218,3.036503,-5.315427,1.800582,-2.940471,5.402376,-1.823072,-0.077298,0.573510,-0.017021,-1.852502,188.433261,0
0.122917,-187.908754,63.210182,120.052652,5.122188,4.783240,-4.732046,-0.509136,-4.715858,4.806446,0.386351,-0.135746,0.571223,-0.039427,-2.893021,188.495817,0
0.123958,-165.938330,-10.386685,161.699432,5.925198,5.415190,-3.422413,-2.221835,-5.417926,3.614585,2.062097,-0.183235,0.576841,-0.046895,-2.451931,188.501272,0
0.125000,-117.176921,-80.081421,183.009091,6.388908,5.482645,-1.140477,-4.326327,-5.417926,1.352568,4.111417,-0.230724,0.578605,-0.043161,-1.139972,188.497144,0
0.126042,-40.263425,-132.959537,185.483523,6.422838,4.563123,0.831909,-5.203199,-4.671749,-0.716402,5.047130,-0.241683,0.584354,-0.073035,-0.156002,188.495812,0
0.127083,32.623483,-174.445362,155.888826,5.913888,3.132361,2.887635,-5.669621,-3.205125,-2.739208,5.459841,-0.270907,0.582786,-0.054364,3.293548,188.495729,0
0.128125,101.767366,-177.525992,96.724053,4.760268,1.051898,4.574283,-4.994243,-1.124650,-4.451458,4.947511,-0.256295,0.579454,-0.043161,4.232278,188.495693,0
