1-Time,2-VGERA,3-VGERB,4-VGERC,5-VN,6-IGERAN,7-IGERBN,8-IGERCN,9-IGERAT,10-IGERBT,11-IGERCT,12-IN,13-IFD,14-IFAULT,15-VFAULT,16-Speed (rad/s),17-Active Power,18-Reactive Power,19-FAULT 
0.000000,147.715836,-151.612453,18.354735,3.278658,-6.066410,1.248610,4.927470,6.645886,-1.345906,-4.651560,-0.018850,0.186786,-0.073035,-66.274260,188.721866,1026.958958,-1294.508834,0
0.001042,199.948051,-91.207933,-31.453977,2.328618,-4.848665,-1.275409,5.953597,5.396131,1.184700,-5.729588,0.024986,0.193057,-0.046895,-76.283610,188.495727,1026.407449,-1294.546134,0
0.002083,176.718610,-45.469631,-110.771212,0.779148,-3.030922,-3.442256,6.128971,3.635446,3.358587,-5.907480,-0.004238,0.207951,-0.024490,-53.301690,188.495758,1026.025028,-1294.697929,0
0.003125,132.040500,-4.781146,-185.595076,-0.611982,-1.035666,-4.839197,5.349115,1.584378,4.915560,-5.270625,-0.007891,0.191424,-0.046895,-26.904151,188.495658,1025.435675,-1294.707199,0
0.004167,81.124015,53.424650,-198.718182,-0.849492,1.772604,-5.966275,3.617759,-1.179786,5.939553,-3.534396,-0.029809,0.180841,-0.050629,-16.826941,188.646487,1024.824231,-1294.604476,0
0.005208,35.538506,139.923922,-173.690720,-0.419712,3.924073,-6.200422,1.755806,-3.433021,6.392796,-1.794609,-0.062686,0.188484,-0.065566,-4.532971,188.495658,1025.107511,-1295.391832,0
0.006250,-5.328523,188.005920,-113.541099,0.688668,5.379687,-4.866977,-0.897198,-4.793049,5.037264,0.777714,-0.154011,0.184565,-0.050629,21.921118,188.495756,1024.755833,-1296.425029,0
0.007292,-78.680474,196.112207,-62.045834,1.706568,6.640036,-3.370821,-3.404679,-6.072210,3.568421,3.193492,-0.172276,0.179208,-0.024490,53.939727,188.495683,1025.134512,-1297.422712,0
0.008333,-148.550277,151.412862,-18.490909,2.520888,6.206902,-1.084917,-5.053944,-5.752419,1.344174,4.808755,-0.197847,0.188354,-0.046895,71.832147,188.646522,1025.004183,-1297.377459,0
0.009375,-200.192682,91.757358,31.588636,3.504858,5.060162,1.454977,-6.143505,-4.587207,-1.161251,5.925918,-0.245336,0.194690,-0.013287,79.997967,188.495640,1025.447207,-1298.243996,0
0.010417,-176.713706,45.970732,110.881250,4.997778,3.263721,3.629760,-6.333804,-2.786089,-3.398089,6.125158,-0.245336,0.200047,-0.050629,55.534437,188.495707,1024.938233,-1299.235655,0
0.011458,-132.557352,5.016467,185.434281,6.377598,1.193909,5.046545,-5.509172,-0.775454,-4.925685,5.481188,-0.227071,0.202464,-0.065566,32.224528,188.495673,1024.745889,-1300.280520,0
0.012500,-81.391332,-53.201409,198.680493,6.682968,-1.614361,6.122031,-3.759159,2.040171,-5.962268,3.705822,-0.223418,0.193580,-0.073035,19.647808,188.646484,1025.644083,-1301.999929,0
0.013542,-35.544945,-139.459064,173.677652,6.230568,-3.772930,6.403801,-1.893474,4.264000,-6.415511,1.958919,-0.154011,0.203770,-0.043161,8.360428,188.495712,1026.345696,-1302.660216,0
0.014583,5.015837,-187.806842,113.601894,5.076948,-5.228544,5.042576,0.811769,5.701218,-5.022209,-0.581383,-0.106522,0.194429,-0.058098,-16.069171,188.495783,1027.183441,-1303.139400,0
0.015625,78.118253,-195.768157,62.525190,4.160838,-6.495994,3.546420,3.244622,6.991406,-3.599530,-3.036298,-0.077298,0.183781,-0.076769,-48.709830,188.495671,1027.420141,-1303.481490,0
0.016667,147.976713,-151.503725,18.970265,3.278658,-6.112564,1.343856,4.961052,6.645886,-1.341709,-4.683581,-0.026156,0.191359,-0.031958,-66.251640,188.646578,1027.264540,-1303.994510,0
0.017708,199.823283,-91.522037,-31.404735,2.317308,-4.891268,-1.239692,6.005836,5.476997,1.146930,-5.765166,0.006721,0.196193,-0.061832,-74.587110,188.495712,1028.454428,-1304.349771,0
0.018750,176.627870,-45.771653,-110.882008,0.801768,-3.084176,-3.438287,6.158822,3.683231,3.366980,-5.971521,0.028639,0.202399,-0.050629,-50.304540,188.495792,1029.381497,-1304.967207,0
0.019792,132.142583,-4.962359,-185.607387,-0.600672,-1.021465,-4.906663,5.401354,1.613784,4.902970,-5.309762,-0.040768,0.218534,-0.065566,-25.105861,188.495716,1029.995766,-1304.933492,0
0.020833,81.521003,53.231355,-198.816667,-0.849492,1.758403,-5.966275,3.632685,-1.117299,5.947946,-3.598437,-0.095563,0.172022,-0.046895,-15.707251,188.721847,1031.070750,-1304.703511,0
0.021875,35.470451,139.778952,-173.555304,-0.397092,3.934724,-6.216296,1.740880,-3.385236,6.417976,-1.801725,-0.088257,0.186002,-0.058098,-3.560311,188.571132,1031.421028,-1304.270254,0
0.022917,-5.305838,187.860949,-113.270265,0.733908,5.386787,-4.859040,-0.874810,-4.833482,5.066641,0.710115,-0.150358,0.220102,-0.061832,21.694918,188.495660,1032.337113,-1304.173236,0
0.023958,-78.464967,196.208854,-62.304356,1.683948,6.569030,-3.366853,-3.386022,-6.072210,3.606192,3.175703,-0.201500,0.179469,-0.058098,54.030207,188.495683,1032.733962,-1304.092795,0
0.025000,-148.244030,151.968584,-18.626326,2.543508,6.196251,-1.061106,-5.072601,-5.770798,1.377748,4.805197,-0.234377,0.189268,-0.054364,71.198787,188.721936,1033.122449,-1304.215444,0
0.026042,-200.260737,92.168109,31.465530,3.493548,5.060162,1.439102,-6.113654,-4.579855,-1.190628,5.858319,-0.274560,0.195539,-0.043161,80.744427,188.571201,1032.528960,-1303.904660,0
0.027083,-176.985926,46.333159,110.610417,4.952538,3.235319,3.617855,-6.289028,-2.830198,-3.356122,6.075348,-0.248989,0.202399,-0.054364,55.749327,188.495718,1032.657154,-1303.156288,0
0.028125,-132.398556,5.451380,185.766667,6.388908,1.161956,5.038608,-5.505440,-0.746048,-4.900505,5.481188,-0.238030,0.212785,-0.061832,32.631688,188.495721,1032.328909,-1303.142825,0
0.029167,-81.845032,-52.935629,198.569698,6.637728,-1.642763,6.102188,-3.729308,2.014441,-5.878334,3.659570,-0.205153,0.201288,-0.073035,21.694918,188.646456,1031.381935,-1302.209045,0
0.030208,-35.647027,-139.761086,173.579167,6.207948,-3.762280,6.395863,-1.893474,4.282378,-6.331577,1.905552,-0.179582,0.175746,-0.050629,8.993788,188.571127,1030.139887,-1302.004682,0
0.031250,5.117920,-187.613547,113.478788,5.076948,-5.182391,5.002890,0.808038,5.701218,-4.967652,-0.620520,-0.084604,0.183258,-0.073035,-16.103101,188.495694,1029.208069,-1301.997580,0
0.032292,77.880060,-195.961452,62.155871,4.126908,-6.460491,3.550389,3.233428,6.984055,-3.540776,-3.061202,-0.037115,0.182474,-0.043161,-49.592010,188.571053,1028.405208,-1302.181308,0
0.033333,147.670466,-151.793667,18.921023,3.289968,-6.080611,1.256547,4.957321,6.645886,-1.362693,-4.637329,0.014027,0.189464,-0.028224,-66.274260,188.646442,1028.566674,-1301.621944,0
0.034375,199.857311,-91.932787,-31.281629,2.305998,-4.891268,-1.267472,5.972254,5.432888,1.138536,-5.726030,-0.000585,0.197042,-0.058098,-76.260990,188.570959,1027.951934,-1301.201001,0
0.035417,176.673240,-46.351537,-110.857387,0.801768,-3.069975,-3.422413,6.162554,3.653825,3.337603,-5.971521,-0.004238,0.207690,-0.076769,-53.369550,188.495649,1027.619547,-1301.147307,0
0.036458,132.346748,-5.228139,-185.619698,-0.589362,-1.032116,-4.878883,5.364040,1.610108,4.886183,-5.302646,-0.015197,0.218991,-0.076769,-26.949391,188.571129,1027.433042,-1301.088026,0
0.037500,81.725168,53.207193,-198.755114,-0.804252,1.797456,-5.942464,3.621491,-1.183462,5.964733,-3.537954,-0.048074,0.199459,-0.043161,-16.781701,188.571199,1026.369666,-1301.866502,0
0.038542,35.595218,139.646062,-173.690720,-0.374472,3.973777,-6.248045,1.755806,-3.451400,6.422173,-1.808840,-0.073645,0.201223,-0.065566,-4.499041,188.571075,1026.254546,-1302.657073,0
0.039583,-5.305838,188.126729,-112.876326,0.699978,5.436491,-4.863009,-0.927049,-4.826130,5.062444,0.752809,-0.161317,0.182540,-0.039427,21.751468,188.495709,1025.937356,-1302.790183,0
0.040625,-78.385569,196.233016,-61.627273,1.706568,6.586782,-3.390664,-3.378559,-6.064858,3.610388,3.204166,-0.161317,0.180253,-0.073035,53.894487,188.571094,1025.898944,-1302.796952,0
0.041667,-148.357455,151.412862,-18.737121,2.509578,6.253055,-1.108729,-5.076333,-5.807556,1.390338,4.794523,-0.197847,0.189987,-0.046895,71.888697,188.571120,1026.324363,-1302.674322,0
0.042708,-200.260737,92.482212,31.403977,3.527478,5.056612,1.415291,-6.150967,-4.638667,-1.173841,5.908129,-0.252642,0.198218,-0.061832,79.986657,188.571067,1027.215069,-1303.336208,0
0.043750,-176.827131,46.828476,110.992046,4.986468,3.277922,3.661509,-6.371118,-2.841225,-3.356122,6.110927,-0.259948,0.210368,-0.065566,55.624917,188.495752,1027.610392,-1303.741735,0
0.044792,-132.999709,5.548027,185.421970,6.400218,1.193909,5.078294,-5.550217,-0.830590,-4.900505,5.527440,-0.281866,0.215006,-0.058098,32.394178,188.571105,1028.756710,-1303.674824,0
0.045833,-82.276047,-52.971872,198.655872,6.660348,-1.617911,6.169654,-3.751696,1.999738,-5.953875,3.737843,-0.212459,0.203313,-0.020755,19.772218,188.571044,1030.103420,-1304.542354,0
0.046875,-35.998645,-139.386578,173.714584,6.196638,-3.776481,6.423643,-1.867355,4.267675,-6.386134,1.987382,-0.146705,0.196911,-0.050629,8.383048,188.571176,1031.263946,-1304.621381,0
0.047917,5.015837,-187.975974,113.084849,5.065638,-5.242746,5.038608,0.793112,5.723272,-5.034799,-0.584941,-0.102869,0.187308,-0.058098,-15.899521,188.495769,1032.415747,-1304.778105,0
0.048958,77.709923,-195.949371,61.823485,4.126908,-6.485343,3.562295,3.270742,6.947297,-3.616317,-3.046971,-0.029809,0.181299,-0.035692,-48.528870,188.495707,1033.104381,-1304.131362,0
0.050000,147.761206,-151.105055,18.994886,3.357828,-6.116114,1.292265,4.975978,6.675292,-1.299742,-4.658676,0.006721,0.186329,-0.009553,-66.274260,188.571111,1032.678302,-1304.637192,0
0.051042,199.755228,-91.582441,-31.269318,2.328618,-4.923221,-1.235723,5.979716,5.458618,1.172110,-5.793629,-0.004238,0.198218,-0.054364,-74.530560,188.571102,1032.942542,-1305.550377,0
0.052083,176.718610,-46.593155,-110.882008,0.813078,-3.094827,-3.426382,6.177479,3.657501,3.358587,-5.971521,0.006721,0.206514,-0.065566,-50.395020,188.495685,1032.876167,-1305.860658,0
0.053125,132.675680,-5.626809,-185.582766,-0.634602,-1.039216,-4.874915,5.382697,1.580702,4.907166,-5.341782,-0.015197,0.212001,-0.039427,-25.365991,188.495685,1032.900045,-1306.670923,0
0.054167,82.235580,53.098465,-198.841288,-0.826872,1.776155,-5.946432,3.591640,-1.161408,5.935356,-3.569975,-0.040768,0.203052,-0.058098,-15.956071,188.646447,1033.188538,-1306.436202,0
0.055208,35.924151,139.766871,-173.506061,-0.408402,3.970226,-6.252013,1.733417,-3.414642,6.363419,-1.780378,-0.110175,0.192208,-0.076769,-3.594241,188.571107,1032.429421,-1305.765229,0
0.056250,-5.022276,187.812626,-113.147159,0.711288,5.415190,-4.855072,-0.945706,-4.829806,5.012084,0.720789,-0.143052,0.193776,-0.054364,21.525268,188.495687,1031.965707,-1305.481527,0
0.057292,-78.158719,196.269259,-61.528788,1.672638,6.583231,-3.414476,-3.374828,-6.086913,3.581012,3.204166,-0.212459,0.180319,-0.061832,53.871867,188.571064,1031.703789,-1305.700691,0
0.058333,-147.835700,151.557833,-18.318561,2.554818,6.224653,-1.136509,-5.061407,-5.759771,1.377748,4.826544,-0.194194,0.189725,-0.050629,71.130927,188.646504,1031.064673,-1305.727818,0
0.059375,-200.215367,91.612387,31.330114,3.504858,5.070813,1.403385,-6.065146,-4.557801,-1.173841,5.883224,-0.259948,0.195735,-0.054364,80.699187,188.571141,1030.127226,-1304.928814,0
0.060417,-177.008611,46.635182,110.413447,4.963848,3.238869,3.629760,-6.277834,-2.786089,-3.385499,6.089579,-0.270907,0.201157,-0.046895,55.885047,188.495805,1029.125393,-1305.131820,0
0.061458,-132.795544,6.091668,185.705114,6.388908,1.176157,5.078294,-5.505440,-0.786481,-4.871128,5.491861,-0.216112,0.223107,-0.050629,32.937058,188.571248,1028.241658,-1304.976558,0
0.062500,-82.820487,-52.814820,198.434281,6.637728,-1.632113,6.102188,-3.695726,2.021792,-5.916104,3.666686,-0.205153,0.200896,-0.035692,22.011598,188.571078,1026.945926,-1304.905257,0
0.063542,-36.475030,-139.749005,173.628410,6.207948,-3.794232,6.379989,-1.848698,4.227242,-6.339970,1.958919,-0.161317,0.195866,-0.039427,9.152128,188.571078,1026.369308,-1304.387179,0
0.064583,4.925097,-187.553143,113.651137,5.122188,-5.224994,5.026702,0.793112,5.653433,-5.001225,-0.620520,-0.106522,0.186721,-0.039427,-16.012621,188.495669,1025.394331,-1303.927049,0
0.065625,77.789320,-196.130584,61.983523,4.115598,-6.467592,3.534514,3.300593,6.973028,-3.607923,-3.061202,-0.055380,0.179535,-0.076769,-49.512840,188.571004,1025.421046,-1304.422989,0
0.066667,147.398246,-151.527887,18.588636,3.289968,-6.080611,1.288296,4.938664,6.605453,-1.333316,-4.712043,-0.044421,0.188027,-0.054364,-66.308190,188.571118,1025.113461,-1304.445582,0
0.067708,199.879996,-91.099205,-31.023106,2.339928,-4.933871,-1.243660,5.975985,5.465970,1.172110,-5.779397,0.021333,0.194886,-0.020755,-76.306230,188.571169,1025.121362,-1304.183017,0
0.068750,176.661897,-45.880381,-110.574243,0.847008,-3.094827,-3.434319,6.173748,3.664852,3.362784,-5.932385,-0.000585,0.204097,-0.058098,-53.448720,188.495598,1024.910904,-1303.617666,0
0.069792,132.471515,-5.481838,-185.570455,-0.566742,-1.060518,-4.882852,5.382697,1.632163,4.881986,-5.345340,0.035945,0.205861,-0.020755,-27.198211,188.646589,1025.434862,-1302.942829,0
0.070833,82.689280,53.195112,-198.792046,-0.826872,1.815208,-5.958338,3.666267,-1.161408,5.964733,-3.555743,-0.077298,0.192208,-0.069301,-17.109691,188.495787,1025.401293,-1303.378784,0
0.071875,36.264426,139.682304,-173.703031,-0.363162,3.956025,-6.299636,1.733417,-3.399939,6.413779,-1.833745,-0.066339,0.191816,-0.031958,-4.668691,188.571040,1026.340969,-1303.569471,0
0.072917,-4.852138,188.126729,-113.171781,0.733908,5.429391,-4.902695,-0.934512,-4.840833,5.091821,0.738578,-0.154011,0.198348,-0.031958,21.706228,188.495759,1027.094562,-1304.215103,0
0.073958,-78.328857,196.136369,-61.738068,1.683948,6.682639,-3.410507,-3.393485,-6.083237,3.639765,3.186376,-0.146705,0.179731,-0.035692,53.871867,188.646509,1027.813170,-1303.972410,0
0.075000,-148.414167,151.292053,-18.589394,2.543508,6.281458,-1.136509,-5.057676,-5.811231,1.360961,4.826544,-0.238030,0.186198,-0.043161,71.990487,188.571042,1028.224757,-1304.401251,0
0.076042,-200.362819,91.624468,31.367046,3.470928,5.053061,1.427196,-6.117385,-4.620288,-1.148661,5.933034,-0.263601,0.193514,-0.061832,80.054517,188.571094,1029.319614,-1304.913719,0
0.077083,-176.668336,46.055298,110.721212,4.997778,3.267271,3.665478,-6.352461,-2.793441,-3.402285,6.167852,-0.241683,0.199981,-0.058098,55.647537,188.495676,1030.093882,-1305.451205,0
0.078125,-132.387214,5.463461,185.385038,6.366288,1.204560,5.070356,-5.550217,-0.793833,-4.892111,5.530997,-0.238030,0.188484,-0.061832,32.473348,188.646456,1030.643528,-1305.476506,0
0.079167,-82.366787,-53.044357,198.717425,6.649038,-1.593060,6.181560,-3.807667,2.007089,-5.974858,3.748516,-0.212459,0.195017,-0.076769,20.043658,188.571078,1032.151370,-1305.877547,0
0.080208,-36.679195,-139.459064,173.726894,6.185328,-3.776481,6.435549,-1.900937,4.256648,-6.373544,1.969593,-0.179582,0.209323,-0.043161,8.541388,188.571062,1032.327338,-1306.479710,0
0.081250,4.720932,-188.024298,113.454167,5.065638,-5.274698,5.106074,0.789381,5.719597,-5.076766,-0.595615,-0.128440,0.187504,-0.061832,-15.956071,188.495732,1033.548559,-1307.339365,0
0.082292,77.823348,-195.937290,62.291288,4.126908,-6.474692,3.598012,3.244622,6.987731,-3.603727,-3.057645,-0.040768,0.179927,-0.058098,-48.506250,188.571167,1033.518185,-1307.482554,0
0.083333,147.863288,-151.189622,19.081061,3.312588,-6.162268,1.312108,4.998366,6.693671,-1.333316,-4.690696,-0.033462,0.188288,-0.054364,-66.432600,188.571078,1034.323600,-1307.835022,0
0.084375,199.766571,-91.280419,-30.973864,2.328618,-4.937422,-1.223818,6.046881,5.484349,1.138536,-5.797187,-0.000585,0.195931,-0.054364,-74.474010,188.571036,1034.763654,-1307.836860,0
0.085417,176.412362,-45.747491,-110.598864,0.801768,-3.133880,-3.446224,6.229718,3.646474,3.383767,-6.007100,-0.004238,0.204946,-0.046895,-50.236680,188.495765,1035.037238,-1308.598915,0
0.086458,131.915733,-5.252301,-185.582766,-0.589362,-1.074719,-4.886820,5.431205,1.628487,4.944937,-5.405823,-0.007891,0.216835,-0.073035,-25.128481,188.571163,1035.710821,-1309.351798,0
0.087500,81.952018,53.146789,-198.964395,-0.860802,1.793906,-5.982150,3.643879,-1.146705,5.952143,-3.616227,-0.044421,0.189725,-0.017021,-16.193581,188.571147,1036.518975,-1308.906630,0
0.088542,36.593358,139.682304,-173.616857,-0.363162,3.952475,-6.295668,1.778194,-3.410967,6.376009,-1.865766,-0.080951,0.189203,-0.080503,-3.910921,188.571169,1036.431414,-1308.704618,0
0.089583,-4.647973,187.873030,-113.307197,0.722598,5.418740,-4.906663,-0.897198,-4.844509,5.108608,0.720789,-0.110175,0.187243,-0.061832,21.581818,188.495635,1036.608020,-1308.711533,0
0.090625,-78.464967,196.148450,-62.267424,1.661328,6.640036,-3.410507,-3.400948,-6.094264,3.648159,3.214839,-0.201500,0.180188,-0.087972,53.894487,188.646498,1036.581908,-1309.271266,0
0.091667,-148.255372,151.569914,-18.774053,2.498268,6.281458,-1.148414,-5.087527,-5.829610,1.377748,4.805197,-0.194194,0.189138,-0.054364,71.458917,188.571138,1036.834100,-1309.197485,0
0.092708,-200.430874,91.817763,31.157765,3.493548,5.102765,1.435134,-6.136042,-4.623964,-1.186431,5.943708,-0.241683,0.195474,-0.039427,80.710497,188.571140,1036.568345,-1309.750646,0
0.093750,-176.861158,46.139865,110.438069,4.975158,3.285023,3.653572,-6.367387,-2.852253,-3.398089,6.125158,-0.292825,0.199786,-0.039427,55.658847,188.495758,1036.811494,-1309.318576,0
0.094792,-132.103651,5.765483,185.778978,6.400218,1.186808,5.086231,-5.609919,-0.749724,-4.929881,5.502535,-0.234377,0.198218,-0.061832,32.552518,188.646585,1036.160378,-1309.879728,0
0.095833,-81.776977,-52.742335,198.594319,6.682968,-1.600160,6.149811,-3.803936,2.014441,-5.958071,3.723611,-0.208806,0.198152,-0.061832,22.011598,188.495676,1035.660063,-1309.519041,0
0.096875,-36.338920,-139.785248,173.579167,6.185328,-3.790682,6.439518,-1.930788,4.241945,-6.365150,2.005171,-0.154011,0.189791,-0.076769,9.389638,188.571105,1036.196625,-1309.027318,0
0.097917,4.550794,-187.734356,113.626515,5.076948,-5.232095,5.082262,0.744604,5.657109,-5.072569,-0.556478,-0.095563,0.206449,-0.073035,-16.137031,188.495694,1036.211775,-1308.085906,0
0.098958,78.084225,-195.973533,62.796023,4.149528,-6.517295,3.586106,3.259548,7.013461,-3.612120,-3.054087,-0.069992,0.182213,-0.046895,-49.558080,188.646404,1036.490081,-1308.446780,0
0.100000,147.908658,-151.117136,19.376515,3.278658,-6.112564,1.296233,4.968515,6.712049,-1.333316,-4.701370,-0.029809,0.188223,-0.050629,-66.602250,188.495656,1036.569290,-1308.732026,0
0.101042,200.072818,-91.461632,-30.850758,2.328618,-4.958723,-1.267472,6.043150,5.495376,1.176307,-5.782955,0.010374,0.195343,-0.039427,-76.204440,188.571029,1036.399928,-1309.077942,0
0.102083,176.389677,-46.049514,-110.746591,0.824388,-3.109028,-3.489879,6.248375,3.694258,3.434127,-5.957290,0.028639,0.202594,-0.017021,-53.132040,188.492982,1036.351367,-1309.195866,0
0.103125,131.847678,-5.493919,-185.792046,-0.611982,-1.042766,-4.946349,5.457325,1.565999,4.978510,-5.366687,-0.037115,0.210107,-0.046895,-26.655331,188.645805,1035.388078,-1309.801369,0
0.104167,81.679798,53.134708,-199.112122,-0.849492,1.804557,-6.025804,3.707312,-1.220220,6.048667,-3.598437,-0.048074,0.198087,-0.031958,-16.985281,188.495052,1035.255066,-1311.345134,0
0.105208,35.765356,139.597738,-173.629167,-0.374472,4.005729,-6.323448,1.733417,-3.436697,6.447353,-1.819514,-0.062686,0.174243,-0.054364,-4.906201,188.571008,1035.458910,-1312.042097,0
0.106250,-4.455151,188.501237,-112.851705,0.733908,5.461343,-4.950318,-0.927049,-4.884942,5.112804,0.749251,-0.146705,0.171238,-0.054364,21.808018,188.495607,1035.494020,-1312.705189,0
0.107292,-78.567049,195.834346,-62.427462,1.672638,6.661337,-3.438287,-3.386022,-6.131022,3.639765,3.193492,-0.197847,0.180449,-0.031958,53.951037,188.646520,1035.661669,-1312.781414,0
0.108333,-148.947265,150.869221,-19.451136,2.509578,6.334712,-1.108729,-5.150960,-5.855340,1.386141,4.908374,-0.223418,0.189529,-0.054364,72.420267,188.495783,1035.909707,-1314.032654,0
0.109375,-200.510272,92.168109,31.133144,3.482238,5.109866,1.439102,-6.177087,-4.675425,-1.169645,5.975728,-0.252642,0.195605,-0.061832,79.884867,188.571125,1036.691496,-1314.517061,0
