1-Time,2-VGERA,3-VGERB,4-VGERC,5-VN,6-IGERAN,7-IGERBN,8-IGERCN,9-IGERAT,10-IGERBT,11-IGERCT,12-IN,13-IFD,14-IFAULT,15-VFAULT,16-Speed (rad/s),17-Active Power,18-Reactive Power,19-FAULT 
0.000000,-71.271528,-68.040252,195.634777,4.052357,-1.495092,6.202473,-3.600650,2.028827,-6.305085,3.164578,0.066437,0.206031,-0.003573,-65.550756,188.495555,1017.538781,-1320.500724,0
0.001042,-25.868428,-144.218387,167.017591,3.534429,-3.564675,6.223281,-1.559336,4.077839,-6.111072,0.994108,0.048206,0.199761,-0.022156,-22.543956,188.495711,1017.478062,-1319.909424,0
0.002083,18.415980,-191.468563,102.455759,2.273387,-4.988430,4.862461,1.119890,5.548830,-4.748572,-1.709459,-0.017425,0.197557,0.000144,22.050268,188.420245,1015.758123,-1319.929608,0
0.003125,92.679089,-185.525588,53.302247,1.361384,-5.931485,3.251949,3.458897,6.452915,-3.073006,-4.017012,-0.104934,0.185913,-0.025873,94.283679,188.495729,1016.280511,-1319.919831,0
0.004167,160.467341,-138.298902,9.860021,0.460640,-5.520504,0.913169,5.233449,6.078683,-0.762489,-5.692462,-0.083057,0.192045,0.026161,163.781317,188.495693,1015.560415,-1319.438160,0
0.005208,198.853187,-82.028559,-44.749592,-0.586475,-4.258205,-1.642010,6.091729,4.700324,1.834637,-6.492109,-0.115872,0.199417,-0.025873,191.634412,188.495665,1015.678105,-1319.345665,0
0.006250,172.603461,-34.966303,-126.542494,-2.185296,-2.375765,-3.756067,6.281169,2.951438,3.955551,-6.655846,-0.093995,0.207340,-0.007290,167.046231,188.344787,1015.629848,-1319.386541,0
0.007292,125.787870,7.433183,-186.316567,-3.311226,-0.364894,-5.133533,5.260512,0.765331,5.168132,-5.452568,-0.090349,0.223739,-0.007290,119.491068,188.495825,1015.580330,-1319.184116,0
0.008333,71.220531,68.495491,-195.491079,-3.502634,2.394549,-6.148946,3.571014,-1.895051,6.323390,-3.876121,-0.072118,0.209201,0.011294,65.912701,188.495454,1016.589926,-1319.314985,0
0.009375,25.885230,143.734025,-166.740224,-2.984706,4.493488,-6.232176,1.491038,-3.981116,6.191109,-1.694228,-0.002841,0.199279,-0.011006,22.894643,188.495626,1016.715353,-1319.241248,0
0.010417,-18.365277,191.677156,-101.680174,-1.723664,5.906235,-4.813095,-1.164991,-5.444696,4.802153,0.982685,0.033621,0.193905,-0.018440,-21.800906,188.344970,1017.149395,-1319.495730,0
0.011458,-92.752686,185.111696,-52.866909,-0.789143,6.878645,-3.177614,-3.558123,-6.333960,3.042809,3.286429,0.059144,0.185430,0.000144,-94.101867,188.495707,1016.956468,-1319.305170,0
0.012500,-161.422332,137.791050,-9.509744,0.055305,6.456656,-0.863804,-5.313344,-5.981960,0.749929,5.026613,0.110191,0.191493,0.015011,-163.824671,188.495711,1016.997469,-1319.365997,0
0.013542,-198.576486,81.790842,45.415812,1.192494,5.165001,1.745475,-6.206420,-4.596190,-1.833970,5.776758,0.124775,0.199279,0.015011,-190.934717,188.495727,1016.846020,-1319.261041,0
0.014583,-172.518858,34.728587,127.354534,2.768796,3.330265,3.838724,-6.334002,-2.847304,-3.959293,5.944303,0.110191,0.208029,-0.011006,-166.661769,188.344634,1017.586883,-1319.321294,0
0.015625,-125.658068,-7.553450,186.350900,3.872208,1.220318,5.153768,-5.301746,-0.653786,-5.167464,4.763872,0.139360,0.221189,0.007577,-118.780115,188.495600,1017.849666,-1319.447701,0
0.016667,-70.921230,-68.827167,195.768446,4.074875,-1.502431,6.273219,-3.623847,2.032532,-6.327132,3.145539,0.066437,0.208650,-0.033307,-65.213006,188.495405,1018.113322,-1319.568930,0
0.017708,-25.732828,-144.018722,166.616585,3.511910,-3.586691,6.273219,-1.505210,4.088955,-6.146347,0.944606,0.000805,0.203689,0.000144,-22.420114,188.495839,1017.820826,-1319.918709,0
0.018750,18.788877,-192.243733,101.872479,2.284646,-4.992100,4.895753,1.123756,5.563651,-4.792666,-1.694228,-0.024718,0.197763,-0.022156,22.466826,188.420338,1018.861120,-1319.964026,0
0.019792,92.972887,-184.844377,53.168578,1.350125,-5.920476,3.256110,3.474361,6.426979,-3.042141,-4.024627,-0.057533,0.186946,0.007577,94.677720,188.495854,1018.342172,-1319.578067,0
0.020833,161.687733,-137.887827,9.507622,0.483158,-5.557198,0.929815,5.252779,6.126852,-0.762489,-5.700078,-0.075764,0.193285,0.022444,164.490591,188.420262,1019.353970,-1319.842735,0
0.021875,198.412490,-81.922854,-45.308569,-0.575216,-4.228849,-1.629525,6.111059,4.659566,1.887550,-6.499725,-0.130457,0.201346,-0.022156,191.116529,188.495658,1018.698716,-1320.127839,0
0.022917,172.761660,-34.801873,-127.271595,-2.185296,-2.419799,-3.781036,6.281169,2.895859,3.920276,-6.640615,-0.112226,0.207065,0.003860,167.271397,188.420314,1018.428205,-1319.849096,0
0.023958,125.573172,7.726808,-186.401629,-3.356263,-0.364894,-5.108564,5.279842,0.776447,5.141675,-5.437337,-0.115872,0.225668,0.000144,119.175835,188.495676,1018.444877,-1319.306999,0
0.025000,70.915433,69.012271,-195.782720,-3.525153,2.405558,-6.186400,3.555550,-1.906166,6.274887,-3.876121,-0.075764,0.207961,-0.007290,65.676276,188.420150,1018.409812,-1318.919279,0
0.026042,25.953030,144.074630,-166.375674,-2.995965,4.460462,-6.257146,1.475574,-3.970000,6.138196,-1.663765,0.004452,0.204516,-0.003573,22.894643,188.495667,1017.732184,-1318.506494,0
0.027083,-18.726875,191.923802,-101.424989,-1.768702,5.873210,-4.829741,-1.176589,-5.470633,4.775696,0.982685,0.037267,0.196179,-0.007290,-22.082364,188.495693,1017.744536,-1318.608749,0
0.028125,-93.306382,184.853306,-52.806150,-0.789143,6.860298,-3.185937,-3.554257,-6.319139,3.033990,3.290237,0.077375,0.187497,-0.040740,-94.597233,188.495617,1017.717698,-1318.405523,0
0.029167,-161.637030,137.638365,-9.169497,0.066564,6.471334,-0.809704,-5.297880,-5.993076,0.771976,4.961879,0.081021,0.193905,0.007577,-164.128646,188.420386,1018.205517,-1317.507021,0
0.030208,-198.576486,81.638157,45.926182,1.181235,5.153993,1.728829,-6.202554,-4.596190,-1.816332,5.750103,0.139360,0.200519,0.007577,-190.833392,188.495613,1018.415983,-1316.981758,0
0.031250,-172.541458,34.564156,127.597568,2.735018,3.297240,3.838724,-6.303073,-2.821367,-3.915199,5.898608,0.121129,0.210372,0.015011,-166.526669,188.420269,1018.023977,-1316.203966,0
0.032292,-125.386870,-7.835330,186.788360,3.860949,1.190962,5.099668,-5.301746,-0.627849,-5.163054,4.702946,0.106545,0.222016,-0.040740,-118.611240,188.495662,1017.379739,-1316.010920,0
0.033333,-70.887330,-69.343948,195.634777,4.052357,-1.506100,6.194150,-3.585186,2.058469,-6.274219,3.176002,0.066437,0.210854,0.003860,-65.021614,188.420075,1017.454672,-1315.678045,0
0.034375,-25.585929,-144.641208,166.482917,3.523169,-3.561005,6.252411,-1.489745,4.059313,-6.102253,0.944606,0.029975,0.198452,-0.003573,-22.138656,188.495678,1017.374950,-1315.041125,0
0.035417,19.206975,-192.185008,101.799569,2.273387,-4.977422,4.879107,1.158551,5.567357,-4.766210,-1.743730,-0.039302,0.197143,-0.007290,22.860868,188.420459,1016.849682,-1315.293577,0
0.036458,93.628283,-184.832632,52.998455,1.350125,-5.916807,3.202010,3.489826,6.423273,-3.015684,-3.986549,-0.079410,0.186946,0.003860,95.206862,188.496000,1016.991380,-1314.823783,0
0.037500,161.958931,-137.406281,9.264589,0.460640,-5.531512,0.904846,5.221850,6.100915,-0.753671,-5.681039,-0.090349,0.194318,0.007577,165.030991,188.495888,1016.821653,-1314.306899,0
0.038542,198.423790,-81.828894,-45.733877,-0.620253,-4.206832,-1.637848,6.111059,4.666977,1.834637,-6.438799,-0.134103,0.202242,-0.011006,191.082754,188.495951,1017.150614,-1313.160270,0
0.039583,172.479162,-34.778383,-127.927785,-2.185296,-2.379435,-3.801843,6.219311,2.899565,3.964370,-6.617768,-0.108580,0.211819,-0.003573,166.877356,188.420207,1017.098528,-1313.384367,0
0.040625,125.607071,8.231844,-186.401629,-3.333744,-0.346547,-5.091917,5.233449,0.754215,5.163722,-5.425913,-0.112226,0.227942,0.003860,119.006960,188.495892,1016.991893,-1313.638556,0
0.041667,70.825033,69.940127,-195.527534,-3.536412,2.350516,-6.194723,3.563282,-1.861703,6.305752,-3.891353,-0.079410,0.210441,-0.003573,65.349785,188.420390,1017.901484,-1313.344199,0
0.042708,25.738331,144.168591,-166.217702,-2.973447,4.467801,-6.203046,1.491038,-3.988526,6.147015,-1.602840,-0.010133,0.203551,-0.014723,22.624443,188.495906,1017.396810,-1313.759150,0
0.043750,-19.325771,192.593267,-101.036135,-1.734924,5.953938,-4.817257,-1.215250,-5.463222,4.819790,1.032187,0.022683,0.196868,0.011294,-22.735347,188.420488,1017.898664,-1314.098818,0
0.044792,-93.826179,184.289545,-52.636027,-0.777883,6.874976,-3.190099,-3.573587,-6.300613,3.020762,3.320700,0.059144,0.188462,0.007577,-95.115116,188.495644,1017.641931,-1314.012071,0
0.045833,-162.947822,137.039369,-9.084436,0.077824,6.486011,-0.826350,-5.297880,-5.996781,0.767567,5.003766,0.073729,0.193905,-0.014723,-165.265737,188.420415,1018.134740,-1314.435233,0
0.046875,-198.113189,81.544197,46.400097,1.203754,5.135645,1.712183,-6.206420,-4.559137,-1.864835,5.750103,0.110191,0.201691,-0.003573,-190.371801,188.495589,1017.473696,-1314.617169,0
0.047917,-172.315460,34.634626,128.897796,2.723759,3.319256,3.855371,-6.361065,-2.806546,-3.950474,5.917648,0.117483,0.210303,0.003860,-166.605478,188.420282,1017.823105,-1315.229887,0
0.048958,-125.217371,-8.328620,186.484569,3.860949,1.176284,5.141283,-5.294014,-0.613028,-5.149826,4.710562,0.153945,0.224841,-0.007290,-118.262232,188.495779,1017.814154,-1314.989780,0
0.050000,-70.717831,-70.236569,195.707687,4.086135,-1.535456,6.252411,-3.619981,2.032532,-6.335950,3.172194,0.081021,0.210923,-0.007290,-64.740156,188.420372,1018.646920,-1315.241433,0
0.051042,-25.439030,-144.476777,165.984698,3.478132,-3.572014,6.264896,-1.512942,4.077839,-6.133119,0.936991,0.062790,0.203344,0.007577,-22.093623,188.495750,1018.750171,-1315.420647,0
0.052083,19.828470,-193.218569,101.228440,2.262128,-5.021455,4.866622,1.201079,5.578472,-4.770619,-1.701844,-0.013779,0.201002,-0.007290,23.513850,188.420311,1019.734441,-1315.129626,0
0.053125,94.068980,-184.174911,52.974152,1.327606,-5.942493,3.214495,3.520755,6.430684,-3.033322,-4.009396,-0.057533,0.189082,-0.044457,95.792294,188.495814,1019.931994,-1315.157882,0
0.054167,163.224523,-137.230106,9.240285,0.460640,-5.590224,0.896523,5.237315,6.071273,-0.736033,-5.711501,-0.126811,0.195283,-0.014723,165.931657,188.420359,1019.965496,-1315.511899,0
0.055208,197.847494,-81.593993,-46.256399,-0.631512,-4.203163,-1.696110,6.126524,4.678093,1.900778,-6.469262,-0.093995,0.202931,0.003860,190.553613,188.495781,1019.853650,-1316.154313,0
0.056250,172.524361,-34.484758,-128.802705,-2.219074,-2.438146,-3.826813,6.269571,2.892154,4.021692,-6.632999,-0.097641,0.212232,-0.048173,166.922389,188.495618,1020.168729,-1316.898995,0
0.057292,125.279374,8.419764,-186.389477,-3.333744,-0.317191,-5.104402,5.260512,0.739394,5.154903,-5.414490,-0.112226,0.225117,-0.037023,118.691727,188.495647,1019.953201,-1316.688749,0
0.058333,70.621635,70.304222,-195.734113,-3.502634,2.390880,-6.223853,3.571014,-1.906166,6.318981,-3.868506,-0.046595,0.210854,-0.007290,65.147135,188.420287,1019.731759,-1317.214615,0
0.059375,25.704432,144.473961,-165.707332,-2.973447,4.460462,-6.203046,1.475574,-3.995937,6.155833,-1.637111,-0.017425,0.206169,-0.018440,22.613184,188.495691,1020.238957,-1317.022576,0
0.060417,-19.664769,192.922127,-100.671585,-1.712405,5.917243,-4.833903,-1.226849,-5.466928,4.810971,1.028379,0.048206,0.198039,-0.018440,-23.140647,188.495788,1020.434017,-1316.886719,0
0.061458,-94.436374,183.984175,-52.526662,-0.789143,6.827272,-3.106868,-3.531060,-6.333960,2.989896,3.324507,0.088314,0.189151,-0.037023,-95.655516,188.495589,1020.512274,-1317.111467,0
0.062500,-163.320719,136.816214,-8.890009,0.066564,6.408953,-0.809704,-5.251486,-5.989370,0.701426,4.996150,0.084667,0.194249,-0.018440,-165.637262,188.420285,1020.019373,-1317.275104,0
0.063542,-197.954990,81.555942,46.995529,1.203754,5.102620,1.732991,-6.198687,-4.559137,-1.842788,5.769142,0.117483,0.202655,-0.003573,-190.191668,188.495732,1020.429717,-1317.199398,0
0.064583,-172.326760,34.282276,129.310953,2.791315,3.271553,3.859532,-6.337868,-2.802841,-3.963702,5.902416,0.150299,0.212163,-0.037023,-166.357794,188.420329,1020.480662,-1317.161024,0
0.065625,-125.047872,-8.481306,186.727602,3.883467,1.143259,5.157929,-5.259219,-0.627849,-5.127779,4.664868,0.124775,0.225186,-0.011006,-118.104615,188.495615,1020.220112,-1316.596377,0
0.066667,-70.299734,-70.659389,195.671232,4.029838,-1.550134,6.239927,-3.616115,2.039943,-6.313903,3.149347,0.059144,0.210372,0.000144,-64.492473,188.420211,1020.001985,-1316.279946,0
0.067708,-25.359931,-145.064028,165.753817,3.523169,-3.583022,6.210796,-1.509076,4.074134,-6.049340,0.929375,0.015390,0.208305,-0.003573,-21.936006,188.495595,1019.414476,-1315.686464,0
0.068750,20.178768,-193.148099,100.912497,2.284646,-5.014116,4.879107,1.181748,5.578472,-4.752982,-1.724691,0.004452,0.195696,-0.029590,23.930408,188.420292,1019.175587,-1315.624450,0
0.069792,94.679176,-183.904776,52.828332,1.350125,-5.909468,3.197849,3.485960,6.393631,-2.976000,-4.028435,-0.068472,0.189564,-0.018440,96.276402,188.420330,1018.454759,-1315.435644,0
0.070833,163.710420,-136.619366,9.106617,0.460640,-5.549859,0.863231,5.279842,6.052747,-0.775718,-5.692462,-0.097641,0.197626,-0.033307,166.539606,188.420088,1018.844112,-1314.685120,0
0.071875,197.790994,-81.394328,-46.924741,-0.620253,-4.265544,-1.687786,6.153587,4.666977,1.852275,-6.488301,-0.130457,0.205549,0.011294,190.384738,188.496007,1019.384640,-1314.301432,0
0.072917,172.219263,-34.590463,-129.726232,-2.219074,-2.390443,-3.818489,6.246374,2.944028,3.982007,-6.648230,-0.126811,0.213473,-0.025873,166.674706,188.420372,1020.439447,-1313.859043,0
0.073958,125.268074,8.783859,-186.425932,-3.322485,-0.328200,-5.091917,5.237315,0.706047,5.207816,-5.433529,-0.115872,0.221120,-0.007290,118.646693,188.420278,1020.571618,-1314.663758,0
0.075000,70.395636,71.314293,-195.551838,-3.536412,2.394549,-6.194723,3.574880,-1.895051,6.363074,-3.895161,-0.057533,0.211061,0.015011,65.023293,188.420238,1021.563804,-1314.774409,0
0.076042,25.421933,144.685371,-165.525057,-2.995965,4.493488,-6.219692,1.471708,-3.999642,6.129377,-1.640918,-0.002841,0.203344,-0.033307,22.455568,188.495676,1021.501829,-1314.495531,0
0.077083,-20.308864,193.732533,-100.221973,-1.712405,5.964946,-4.850549,-1.222983,-5.518801,4.806562,1.028379,0.062790,0.197901,-0.003573,-23.771113,188.420336,1022.106850,-1314.944788,0
0.078125,-94.865772,183.349944,-52.478055,-0.766624,6.867637,-3.111029,-3.573587,-6.363602,3.016352,3.339739,0.077375,0.186119,0.015011,-96.184657,188.420318,1022.586166,-1315.073622,0
0.079167,-164.891409,136.181984,-8.683430,0.066564,6.522706,-0.842996,-5.305612,-6.022718,0.776385,4.999958,0.099252,0.196385,0.011294,-166.931969,188.420367,1024.229711,-1314.773209,0
0.080208,-197.480394,80.956946,47.518051,1.169976,5.128307,1.774606,-6.210286,-4.555432,-1.886882,5.765334,0.143006,0.204516,-0.003573,-189.640010,188.495606,1024.015754,-1314.734972,0
0.081250,-172.100761,34.317511,130.599030,2.813834,3.308248,3.876178,-6.334002,-2.832483,-3.981339,5.944303,0.153945,0.211543,0.003860,-166.278986,188.420222,1025.077537,-1315.204873,0
0.082292,-124.810574,-9.009831,186.448114,3.849689,1.176284,5.137122,-5.270817,-0.631555,-5.171873,4.699138,0.110191,0.231869,-0.025873,-117.721832,188.420180,1025.627438,-1315.540271,0
0.083333,-70.028536,-71.692950,195.877811,4.086135,-1.539126,6.294027,-3.658642,2.021416,-6.380044,3.172194,0.095606,0.211406,0.000144,-64.413665,188.420300,1026.843455,-1315.896010,0
0.084375,-25.167832,-144.934833,165.182688,3.511910,-3.597700,6.269058,-1.520674,4.100071,-6.150756,0.921759,0.008098,0.211957,0.003860,-21.890973,188.495609,1027.579796,-1316.567697,0
0.085417,20.709865,-194.498775,100.304913,2.295906,-5.061820,4.887430,1.185614,5.604409,-4.854397,-1.720883,0.004452,0.198728,-0.014723,24.459550,188.420204,1029.406167,-1317.068949,0
0.086458,95.074673,-183.059136,52.633905,1.361384,-5.960840,3.226980,3.543951,6.412157,-3.002456,-4.047474,-0.072118,0.190184,0.000144,96.726735,188.344869,1029.775095,-1317.019284,0
0.087500,165.360209,-136.267015,8.863583,0.460640,-5.604902,0.917331,5.272110,6.145378,-0.780127,-5.703886,-0.093995,0.201002,-0.003573,167.755505,188.420245,1031.385137,-1317.645196,0
0.088542,197.259898,-80.736608,-47.386505,-0.654031,-4.210502,-1.708594,6.126524,4.666977,1.843456,-6.484493,-0.126811,0.205273,-0.040740,189.855597,188.495774,1031.515877,-1317.112041,0
0.089583,172.298363,-34.226368,-130.649759,-2.286629,-2.419799,-3.810166,6.312098,2.932912,3.964370,-6.678693,-0.123164,0.208167,0.026161,166.787290,188.495635,1032.151805,-1317.186491,0
0.090625,124.533579,9.147955,-186.438084,-3.322485,-0.291505,-5.083594,5.198654,0.691226,5.168132,-5.391643,-0.064826,0.223739,-0.011006,118.083777,188.344901,1031.616874,-1316.332725,0
0.091667,69.864540,71.878053,-196.001450,-3.435078,2.390880,-6.194723,3.629006,-1.946924,6.367484,-3.914200,-0.053887,0.206238,-0.014723,64.753093,188.420224,1031.949313,-1316.788392,0
0.092708,25.218535,144.943761,-165.099749,-2.905891,4.522844,-6.182238,1.444645,-4.018168,6.151424,-1.656150,-0.032010,0.208581,-0.018440,22.410535,188.495875,1032.392554,-1316.862983,0
0.093750,-20.602662,194.308039,-99.906030,-1.723664,5.961277,-4.821418,-1.211384,-5.500275,4.855065,1.081689,0.048206,0.197005,-0.029590,-24.086346,188.495626,1032.744685,-1317.187365,0
0.094792,-95.419468,182.974104,-52.149960,-0.789143,6.863967,-3.131837,-3.592918,-6.308023,3.029580,3.320700,0.095606,0.192527,0.018727,-96.702540,188.344865,1032.813140,-1316.222642,0
0.095833,-165.354706,135.817888,-8.416094,0.100342,6.486011,-0.834673,-5.282415,-5.974549,0.749929,4.961879,0.106545,0.196799,0.022444,-167.562435,188.420254,1032.345259,-1315.533595,0
0.096875,-197.299595,80.792516,48.149938,1.203754,5.095281,1.799575,-6.190955,-4.540611,-1.913339,5.753910,0.132068,0.205549,0.007577,-189.504910,188.495785,1032.172411,-1315.474256,0
0.097917,-172.032962,33.765496,131.133704,2.847611,3.271553,3.880340,-6.337868,-2.806546,-3.959293,5.925263,0.110191,0.214162,0.003860,-166.200178,188.495651,1032.125667,-1315.016425,0
0.098958,-124.256877,-9.397416,186.776209,3.894726,1.091886,5.162091,-5.228290,-0.601912,-5.141007,4.657252,0.084667,0.225943,-0.029590,-117.620507,188.344898,1031.593040,-1314.495169,0
0.100000,-69.282741,-72.162750,195.853507,4.018579,-1.561142,6.281542,-3.631579,2.039943,-6.357997,3.168386,0.073729,0.202862,0.015011,-64.109690,188.420135,1031.588687,-1314.160530,0
0.101042,-24.535036,-145.451613,164.976110,3.466873,-3.605039,6.239927,-1.516808,4.077839,-6.062569,0.914144,0.008098,0.215264,0.003860,-21.598256,188.495645,1031.102927,-1313.176856,0
0.102083,21.184461,-194.545755,99.879604,2.273387,-5.028794,4.858299,1.158551,5.619230,-4.827941,-1.755154,-0.024718,0.195283,0.011294,24.943658,188.420336,1030.812772,-1313.310329,0
0.103125,95.537970,-182.929940,52.354416,1.327606,-5.931485,3.164557,3.528487,6.389926,-2.980409,-4.058898,-0.050241,0.192251,0.003860,97.300910,188.345185,1030.600108,-1313.124707,0
0.104167,165.733106,-135.632785,8.681308,0.460640,-5.575546,0.896523,5.245047,6.082389,-0.731624,-5.707693,-0.086703,0.199279,-0.018440,168.374713,188.420511,1029.723248,-1312.857563,0
0.105208,197.056499,-80.630903,-47.848268,-0.642772,-4.159129,-1.729402,6.157453,4.626219,1.918416,-6.473070,-0.093995,0.205894,-0.003573,189.743013,188.495725,1028.879314,-1313.219421,0
0.106250,171.789866,-33.815292,-131.500376,-2.230333,-2.372096,-3.864266,6.312098,2.884744,4.039329,-6.648230,-0.123164,0.213335,0.000144,166.472056,188.420269,1028.269640,-1313.682153,0
0.107292,124.013782,9.829165,-186.632511,-3.311226,-0.232793,-5.091917,5.190921,0.668994,5.172541,-5.349756,-0.086703,0.216229,-0.003573,117.824836,188.344921,1027.922469,-1313.420928,0
0.108333,69.118745,72.747184,-195.697658,-3.525153,2.464269,-6.273792,3.598077,-1.954335,6.354256,-3.849467,-0.039302,0.209683,0.007577,64.572960,188.420242,1027.437937,-1312.971573,0
0.109375,24.269341,145.143426,-164.552923,-2.860854,4.522844,-6.190561,1.448511,-4.021874,6.164652,-1.576185,0.015390,0.216229,-0.037023,22.129076,188.495645,1027.002693,-1312.988661,0
