1-Time,2-VGERA,3-VGERB,4-VGERC,5-VN,6-IGERAN,7-IGERBN,8-IGERCN,9-IGERAT,10-IGERBT,11-IGERCT,12-IN,13-IFD,14-IFAULT,15-VFAULT,16-Speed (rad/s),17-Active Power,18-Reactive Power,19-FAULT 
0.000000,123.647050,54.185747,-189.325190,-0.645912,-4.085355,-1.731796,5.576728,4.300757,1.637943,-5.377361,-0.069992,0.443774,-0.024490,4.978738,188.721491,1592.542201,9.712197,0
0.001042,49.523809,111.992872,-195.061932,-0.792942,-2.118501,-3.815303,5.487176,2.323204,3.677535,-5.252836,-0.040768,0.440965,-0.050629,5.996638,188.646080,1593.433713,9.320143,0
0.002083,-15.105759,163.022611,-166.969129,-0.283992,0.096873,-5.160653,4.561796,0.143484,5.163165,-4.473668,-0.051727,0.452855,-0.046895,6.618688,188.570673,1593.452895,9.789606,0
0.003125,-67.428714,191.521463,-96.577084,1.050588,2.560766,-5.732129,2.643872,-2.242078,5.733915,-2.623587,-0.055380,0.444297,-0.039427,6.494278,188.646114,1594.861231,9.385637,0
0.004167,-127.396514,190.265049,-26.221970,2.373858,4.303953,-5.438454,0.666246,-4.109359,5.574441,-0.723697,-0.124787,0.439136,-0.043161,4.956118,188.721650,1595.304846,8.799877,0
0.005208,-170.441303,140.431320,36.623674,3.572718,5.489746,-4.239941,-1.598696,-5.274572,4.357400,1.446589,-0.183235,0.440639,-0.031958,3.666778,188.570843,1596.425770,8.162773,0
0.006250,-197.617934,66.943181,90.531818,4.613238,5.933530,-2.418361,-3.621098,-5.833286,2.544428,3.503025,-0.216112,0.443121,-0.046895,1.992898,188.569270,1597.190282,7.485428,0
0.007292,-169.012148,5.270166,153.106629,5.789478,5.418740,-0.330886,-5.005437,-5.252517,0.530016,4.755387,-0.245336,0.433976,-0.073035,1.212508,188.709376,1598.039486,6.369548,0
0.008333,-123.596776,-54.312852,188.930493,6.456768,4.169042,1.919301,-5.692009,-4.105683,-1.748788,5.534555,-0.256295,0.460171,-0.009553,-0.054212,188.721933,1598.030538,5.136551,0
0.009375,-49.053863,-112.289111,195.196592,6.592488,2.202188,3.915499,-5.602456,-2.087697,-3.784184,5.456283,-0.248989,0.438156,-0.058098,-1.151282,188.570975,1599.956002,4.548721,0
0.010417,15.496307,-162.666480,166.512879,6.072228,-0.023837,5.292597,-4.636031,0.136132,-5.253027,4.613073,-0.248989,0.441619,-0.046895,-1.773332,188.571093,1600.296136,3.381539,0
0.011458,67.161397,-192.180129,96.440909,4.771578,-2.473529,5.895822,-2.721838,2.488612,-5.731450,2.766551,-0.223418,0.442664,-0.020755,-1.648922,188.646491,1600.990316,3.129626,0
0.012500,127.185910,-189.606896,26.578220,3.448308,-4.188313,5.510869,-0.751675,4.363245,-5.588762,0.855987,-0.150358,0.439920,-0.005818,-0.235172,188.721837,1600.783983,2.695659,0
0.013542,170.525604,-140.099352,-36.390530,2.226828,-5.420259,4.352043,1.587894,5.506403,-4.409492,-1.296510,-0.128440,0.440182,-0.065566,1.167268,188.571098,1601.564478,2.446064,0
0.014583,196.908260,-66.417918,-90.667993,1.186308,-5.849843,2.522526,3.509549,6.065117,-2.588127,-3.310252,-0.084604,0.445081,-0.039427,2.931628,188.571049,1601.359564,1.913811,0
0.015625,168.835572,-4.612013,-153.365910,-0.023862,-5.356354,0.439019,4.871500,5.469646,-0.611485,-4.569729,-0.022503,0.442599,-0.076769,3.644158,188.646442,1602.259261,1.998002,0
0.016667,123.147980,54.946844,-189.042046,-0.657222,-4.049852,-1.787356,5.550609,4.308109,1.675713,-5.359571,-0.011544,0.452528,-0.039427,4.978738,188.770326,1602.108894,2.067103,0
0.017708,48.423586,112.705646,-195.492804,-0.792942,-2.079448,-3.819271,5.502101,2.290122,3.711109,-5.256394,-0.033462,0.453442,-0.013287,6.064498,188.562541,1602.438842,1.961574,0
0.018750,-16.058529,162.986368,-166.427463,-0.238752,0.118175,-5.164621,4.528213,0.117754,5.158968,-4.438089,-0.055380,0.459648,-0.002084,6.539518,188.518126,1601.899442,1.913517,0
0.019792,-67.825701,192.161751,-95.395265,1.095828,2.567867,-5.751972,2.681185,-2.304566,5.691948,-2.616472,-0.084604,0.441619,-0.050629,6.550828,188.662273,1601.752789,1.732280,0
0.020833,-127.986324,189.624761,-25.791099,2.373858,4.282651,-5.426548,0.655051,-4.109359,5.536670,-0.737929,-0.124787,0.440704,-0.002084,4.786468,188.722373,1601.284921,2.124667,0
0.021875,-171.065141,139.996408,36.968371,3.538788,5.518148,-4.255816,-1.580039,-5.285599,4.411957,1.443032,-0.223418,0.444689,-0.024490,3.395338,188.571274,1601.994451,2.846206,0
0.022917,-197.459139,66.544511,91.159659,4.590618,5.905128,-2.374707,-3.602442,-5.807556,2.561215,3.492351,-0.186888,0.445408,-0.043161,2.038138,188.571236,1601.720874,3.413924,0
0.023958,-168.876038,4.666121,153.660607,5.812098,5.436491,-0.334855,-5.016631,-5.230463,0.521622,4.730482,-0.248989,0.442076,-0.061832,1.246438,188.646645,1601.341186,3.707444,0
0.025000,-123.131734,-54.868574,189.176705,6.535938,4.172592,1.863741,-5.654695,-4.076277,-1.723608,5.545229,-0.256295,0.442141,-0.031958,-0.008972,188.722061,1601.168739,4.034987,0
0.026042,-48.112435,-112.832751,195.319698,6.671658,2.205738,3.955184,-5.628575,-2.102400,-3.775791,5.456283,-0.248989,0.444624,-0.050629,-1.196522,188.571259,1601.198879,4.728500,0
0.027083,16.381023,-162.992665,166.082008,6.117468,-0.009635,5.300534,-4.639762,0.143484,-5.223650,4.623747,-0.252642,0.440573,-0.039427,-1.716782,188.571304,1600.990764,5.333601,0
0.028125,67.898660,-192.313019,95.037500,4.726338,-2.438026,5.872010,-2.729301,2.499640,-5.765023,2.762993,-0.197847,0.449458,-0.005818,-1.603682,188.722047,1601.319998,5.831941,0
0.029167,127.877802,-189.075336,25.839583,3.448308,-4.188313,5.518806,-0.740481,4.352218,-5.597156,0.877334,-0.197847,0.442076,-0.028224,-0.167312,188.722063,1601.331333,6.685213,0
0.030208,171.285552,-139.326174,-36.698296,2.238138,-5.441561,4.344106,1.572968,5.528458,-4.401098,-1.324973,-0.113828,0.441945,-0.046895,1.031548,188.571165,1601.634447,6.592355,0
0.031250,196.874233,-66.031329,-91.418940,1.186308,-5.846293,2.494746,3.509549,6.105550,-2.613307,-3.324483,-0.084604,0.445081,-0.020755,2.954248,188.495875,1602.398101,7.070875,0
0.032292,168.279789,-4.020049,-154.510796,-0.012552,-5.342153,0.399333,4.949858,5.491700,-0.514961,-4.637329,-0.044421,0.453900,-0.069301,3.632848,188.722074,1603.359962,6.108336,0
0.033333,122.887102,55.768345,-189.054357,-0.657222,-4.042752,-1.815137,5.636430,4.297081,1.692500,-5.395150,-0.055380,0.454945,-0.043161,4.967428,188.722000,1603.780386,6.099912,0
0.034375,47.550214,113.708361,-195.665152,-0.804252,-2.036844,-3.906580,5.554340,2.223958,3.769863,-5.263510,-0.029809,0.455206,-0.046895,6.064498,188.571259,1604.236731,5.451741,0
0.035417,-17.192779,162.962206,-165.947349,-0.306612,0.143027,-5.208276,4.528213,0.033211,5.268082,-4.402511,-0.040768,0.466181,-0.024490,6.584758,188.495953,1604.945230,4.210837,0
0.036458,-68.494909,193.720188,-93.474811,1.129758,2.621121,-5.819438,2.655066,-2.389108,5.792669,-2.588009,-0.132093,0.443056,-0.054364,6.539518,188.722023,1606.673032,3.833320,0
0.037500,-128.315256,188.779098,-25.335606,2.373858,4.357207,-5.450359,0.621469,-4.186550,5.566047,-0.677445,-0.121134,0.441749,-0.013287,4.899568,188.722069,1607.288844,2.985981,0
0.038542,-173.084106,138.739994,36.857576,3.561408,5.635307,-4.251847,-1.695712,-5.377493,4.390973,1.524862,-0.190541,0.441684,-0.024490,3.610228,188.571127,1608.628210,2.055723,0
0.039583,-196.880672,65.904224,91.947538,4.613238,5.990335,-2.362801,-3.684532,-5.899449,2.557018,3.563508,-0.205153,0.448347,-0.024490,1.970278,188.495955,1609.974471,1.796690,0
0.040625,-168.479051,4.013752,155.187122,5.857338,5.503947,-0.251515,-5.147229,-5.307654,0.483852,4.862122,-0.227071,0.437960,-0.039427,1.122028,188.722088,1612.350982,1.437005,0
0.041667,-122.848171,-55.798803,188.647349,6.513318,4.133539,1.978830,-5.688277,-4.076277,-1.765575,5.612828,-0.278213,0.441096,-0.031958,-0.088142,188.646648,1613.147618,1.194856,0
0.042708,-47.171008,-113.944194,195.922917,6.682968,2.134733,4.086148,-5.658426,-2.025209,-3.889102,5.516766,-0.267254,0.444166,-0.020755,-1.219142,188.571261,1614.774301,0.096742,0
0.043750,17.640040,-162.557752,165.417235,6.060918,-0.098392,5.371969,-4.654688,0.216999,-5.290797,4.620189,-0.274560,0.443513,-0.046895,-1.694162,188.495879,1615.174818,-0.571423,0
0.044792,68.318332,-194.523824,93.104735,4.726338,-2.576487,5.967256,-2.729301,2.613588,-5.819580,2.752319,-0.201500,0.453704,-0.050629,-1.614992,188.722041,1616.837948,-1.102630,0
0.045833,128.195392,-188.060541,25.322538,3.436998,-4.227366,5.554524,-0.736749,4.433084,-5.622336,0.848871,-0.172276,0.445603,-0.039427,-0.167312,188.646694,1617.451927,-1.579456,0
0.046875,173.236462,-138.444268,-36.550568,2.260758,-5.523218,4.356011,1.636402,5.616676,-4.422082,-1.385457,-0.128440,0.447498,-0.017021,1.201198,188.571304,1619.152159,-2.030190,0
0.047917,196.295765,-65.403122,-92.071402,1.174998,-5.856944,2.466965,3.572983,6.138632,-2.567143,-3.384967,-0.055380,0.448478,-0.039427,2.909008,188.495946,1619.518579,-2.697626,0
0.048958,168.302474,-3.536813,-155.446402,-0.035172,-5.370556,0.387427,5.005829,5.521106,-0.527551,-4.736948,-0.051727,0.458146,-0.024490,3.723328,188.722012,1621.092356,-2.721999,0
0.050000,122.274607,56.444876,-188.808145,-0.657222,-4.056953,-1.827042,5.595385,4.289730,1.759647,-5.434286,-0.040768,0.445799,-0.031958,4.990048,188.646395,1621.585449,-3.221269,0
0.051042,46.699526,114.457377,-196.169887,-0.838182,-2.054596,-3.958172,5.546877,2.246013,3.799240,-5.323993,-0.037115,0.460040,-0.017021,6.109738,188.571243,1622.834263,-2.636014,0
0.052083,-18.281659,162.962206,-165.184091,-0.216132,0.164328,-5.208276,4.517019,0.036887,5.255492,-4.384721,-0.037115,0.438418,0.005384,6.505588,188.495881,1622.322754,-2.079272,0
0.053125,-68.767129,194.602094,-92.108334,1.141068,2.653073,-5.859123,2.610289,-2.374405,5.780079,-2.591567,-0.077298,0.431232,-0.061832,6.573448,188.721907,1622.250883,-1.352832,0
0.054167,-128.632846,188.150891,-24.781629,2.441718,4.378508,-5.442422,0.617738,-4.186550,5.587031,-0.677445,-0.124787,0.442403,-0.039427,4.752538,188.646714,1622.324039,-0.925908,0
0.055208,-173.855396,138.027220,37.362311,3.584028,5.585603,-4.235973,-1.706906,-5.384844,4.365793,1.546209,-0.205153,0.447694,-0.039427,3.372718,188.571138,1622.353565,-0.953222,0
0.056250,-196.846644,65.445149,92.723106,4.658478,5.951282,-2.374707,-3.684532,-5.851665,2.548625,3.559950,-0.208806,0.448935,-0.054364,2.004208,188.495883,1621.817110,-0.674760,0
0.057292,-168.388311,3.723811,155.691857,5.846028,5.471994,-0.235640,-5.124841,-5.311329,0.471262,4.879912,-0.267254,0.457166,-0.024490,1.212508,188.722179,1622.137761,-0.711710,0
0.058333,-122.541924,-56.282040,188.844319,6.468078,4.112238,1.982798,-5.714397,-4.105683,-1.736198,5.573692,-0.263601,0.452593,-0.028224,-0.054212,188.646719,1621.836394,0.210187,0
0.059375,-46.399718,-114.669049,195.959849,6.626418,2.127632,4.034556,-5.692009,-2.010506,-3.809364,5.509650,-0.241683,0.428815,-0.024490,-1.264382,188.571346,1621.157950,1.188657,0
0.060417,18.445358,-162.908098,164.850947,6.049608,-0.073540,5.364032,-4.613643,0.183917,-5.294994,4.573937,-0.263601,0.446649,-0.046895,-1.660232,188.495850,1620.689117,1.718492,0
0.061458,69.055595,-194.850009,91.689015,4.715028,-2.565836,6.002974,-2.725570,2.613588,-5.874137,2.780782,-0.205153,0.448478,-0.061832,-1.626302,188.722175,1621.493369,2.657365,0
0.062503,128.955340,-187.190715,24.325379,3.425688,-4.298372,5.570398,-0.721824,4.451463,-5.550992,0.813293,-0.157664,0.442990,-0.039427,-0.099452,188.571323,1620.648559,2.465425,0
0.063557,176.049402,-135.605255,-38.003220,2.204208,-5.569371,4.340137,1.677447,5.671812,-4.350738,-1.442382,-0.102869,0.445995,-0.035692,1.302988,188.571279,1621.097009,2.586694,0
0.064586,195.898778,-64.448731,-93.154735,1.152378,-5.860494,2.447122,3.614028,6.098199,-2.571340,-3.409871,-0.073645,0.448216,-0.080503,2.976868,188.495866,1620.746511,2.970352,0
0.065625,167.769377,-3.017334,-156.431250,-0.103032,-5.402508,0.335836,5.065531,5.561539,-0.443617,-4.751180,-0.033462,0.458407,-0.080503,3.621538,188.722125,1621.360550,2.547702,0
0.066667,122.093127,57.133487,-188.721970,-0.668532,-4.032101,-1.894508,5.621505,4.264000,1.797417,-5.448518,-0.037115,0.454814,-0.046895,5.012668,188.495830,1621.480763,2.164575,0
0.067708,45.905551,115.629224,-196.342235,-0.849492,-2.043945,-3.981983,5.569266,2.179849,3.912550,-5.338224,-0.007891,0.464090,-0.050629,6.087118,188.571270,1622.515953,1.087024,0
0.068750,-18.894154,163.046773,-164.396213,-0.216132,0.263736,-5.291616,4.498363,-0.029276,5.280672,-4.391837,-0.069992,0.433976,-0.058098,6.562138,188.495897,1622.714589,0.661291,0
0.069792,-69.436336,196.063883,-90.150947,1.197618,2.795084,-5.878966,2.539393,-2.488353,5.864012,-2.527525,-0.080951,0.442533,-0.046895,6.550828,188.722166,1624.149820,-0.337441,0
0.070833,-129.120574,187.027367,-23.919886,2.486958,4.431763,-5.482108,0.546842,-4.282119,5.528277,-0.609846,-0.128440,0.441292,-0.039427,4.888258,188.571272,1623.890936,-1.527969,0
0.071875,-175.772278,136.589593,37.473106,3.617958,5.688561,-4.275658,-1.822578,-5.502468,4.357400,1.635155,-0.190541,0.444166,-0.024490,3.542368,188.571313,1625.603575,-2.424449,0
0.072917,-196.120724,64.442434,93.424811,4.635858,5.990335,-2.311210,-3.740502,-5.914152,2.502461,3.602645,-0.234377,0.447563,-0.061832,1.958968,188.495911,1626.095782,-2.751680,0
0.073958,-168.184146,2.926471,157.181440,5.902578,5.493296,-0.172143,-5.210662,-5.355438,0.395722,4.972416,-0.252642,0.456839,-0.031958,1.088098,188.722036,1627.795459,-3.424964,0
0.075000,-122.076881,-57.151865,188.413448,6.445458,4.119338,2.054233,-5.736785,-4.046871,-1.845312,5.634175,-0.274560,0.466965,-0.035692,-0.122072,188.495987,1628.317379,-4.847209,0
0.076042,-45.866620,-115.744249,196.464584,6.649038,2.092129,4.153614,-5.710666,-1.959045,-3.989822,5.513208,-0.241683,0.451287,-0.017021,-1.287002,188.571437,1629.942702,-6.513815,0
0.077083,19.114565,-162.618157,163.816857,6.004368,-0.151647,5.419592,-4.542747,0.279487,-5.383124,4.549032,-0.241683,0.440247,-0.050629,-1.728092,188.495868,1630.327173,-7.784538,0
0.078125,69.486610,-196.843358,89.596212,4.647168,-2.679445,6.018848,-2.673330,2.727536,-5.924498,2.713183,-0.201500,0.442141,-0.024490,-1.660232,188.722061,1631.497132,-8.826791,0
0.079167,129.034737,-186.163839,23.722159,3.414378,-4.309022,5.514838,-0.613614,4.466166,-5.571975,0.745694,-0.157664,0.445473,-0.046895,-0.099452,188.495841,1631.349410,-9.289705,0
0.080208,175.901949,-136.160977,-37.338447,2.272068,-5.576472,4.320294,1.688641,5.660785,-4.396901,-1.453056,-0.095563,0.442990,-0.020755,1.393468,188.571216,1631.689440,-9.388902,0
0.081250,195.342995,-63.929252,-93.499432,1.186308,-5.871145,2.419342,3.610296,6.057766,-2.541963,-3.402756,-0.084604,0.451156,-0.058098,2.954248,188.495812,1630.814842,-9.386159,0
0.082292,167.803404,-2.352884,-157.280682,-0.057792,-5.327952,0.248527,5.125233,5.524782,-0.426830,-4.783200,-0.007891,0.457362,-0.054364,3.689398,188.723636,1631.002113,-9.591661,0
0.083333,121.537345,57.797937,-188.377273,-0.623292,-3.989497,-1.930225,5.621505,4.230918,1.847777,-5.434286,-0.000585,0.454226,-0.050629,5.012668,188.495816,1630.603316,-10.028474,0
0.084375,45.417824,116.354079,-196.662311,-0.883422,-1.980040,-4.025638,5.580460,2.223958,3.895763,-5.338224,-0.007891,0.435935,-0.054364,6.143668,188.495897,1630.854761,-9.063346,0
0.085417,-19.552019,162.974287,-163.669887,-0.204822,0.292138,-5.303522,4.438661,-0.025601,5.263885,-4.359817,-0.059033,0.435217,-0.073035,6.494278,188.495613,1630.147811,-8.760855,0
0.086458,-69.787954,197.078679,-88.735228,1.242858,2.802185,-5.867061,2.539393,-2.514084,5.838832,-2.484831,-0.080951,0.441619,-0.058098,6.629998,188.721916,1629.898417,-8.861952,0
0.087500,-129.608301,186.326675,-23.255114,2.453028,4.392710,-5.394799,0.487140,-4.263741,5.528277,-0.584941,-0.124787,0.439920,-0.031958,4.707298,188.495897,1629.550176,-8.573094,0
0.088542,-176.464171,135.804334,37.940909,3.606648,5.674360,-4.243910,-1.833772,-5.458359,4.369990,1.660060,-0.190541,0.444820,-0.043161,3.293548,188.571270,1629.311118,-8.160732,0
0.089583,-195.769107,63.705499,94.138826,4.669788,5.947731,-2.315178,-3.755428,-5.859016,2.498265,3.627549,-0.238030,0.449066,-0.050629,2.026828,188.495776,1628.730540,-8.046915,0
0.090625,-167.979981,2.382830,157.612311,5.857338,5.475544,-0.164206,-5.233050,-5.344411,0.395722,4.986647,-0.248989,0.456970,-0.058098,1.167268,188.721965,1628.809012,-7.890490,0
0.091667,-121.679894,-57.647182,188.475001,6.479388,4.069634,2.062170,-5.718128,-4.010114,-1.887279,5.602154,-0.263601,0.460759,-0.035692,-0.122072,188.495861,1628.304995,-8.316894,0
0.092708,-45.208755,-116.493265,196.624622,6.649038,2.056626,4.141708,-5.669621,-1.970073,-3.964642,5.509650,-0.296478,0.462588,-0.031958,-1.320932,188.495902,1628.256357,-7.568708,0
0.093750,19.613635,-162.980584,163.336743,6.038298,-0.155197,5.415623,-4.557672,0.283162,-5.366338,4.545474,-0.219765,0.442533,-0.054364,-1.648922,188.495935,1628.042369,-7.202997,0
0.094792,69.985680,-197.447403,88.315909,4.624548,-2.704297,6.038691,-2.632285,2.760618,-5.966465,2.670489,-0.223418,0.443644,-0.084238,-1.637612,188.722054,1628.509595,-7.413672,0
0.095833,129.692602,-185.608117,22.835796,3.391758,-4.355176,5.518806,-0.602420,4.554384,-5.584566,0.727904,-0.121134,0.441227,-0.058098,-0.065522,188.570957,1629.329034,-7.694723,0
0.096875,176.798007,-135.097857,-37.818561,2.238138,-5.629726,4.352043,1.684910,5.679163,-4.346541,-1.502866,-0.110175,0.445669,-0.028224,1.370848,188.495803,1629.293321,-8.198160,0
0.097917,195.093460,-62.950699,-94.250379,1.152378,-5.878245,2.411405,3.643879,6.094523,-2.479013,-3.470355,-0.077298,0.449392,-0.046895,2.976868,188.495897,1629.779581,-8.958758,0
0.098960,167.508499,-1.809243,-158.253220,-0.057792,-5.398958,0.244558,5.136427,5.539485,-0.410043,-4.868589,-0.000585,0.458211,-0.031958,3.655468,188.646719,1630.962088,-9.215117,0
0.100000,121.265125,58.353658,-188.377273,-0.657222,-3.957545,-1.981817,5.640162,4.223566,1.851974,-5.459191,-0.011544,0.462980,-0.050629,5.012668,188.571272,1631.211547,-9.109086,0
0.101042,44.748616,117.489684,-196.773107,-0.804252,-1.965839,-4.112947,5.602848,2.154119,4.004877,-5.377361,-0.044421,0.456121,-0.017021,6.154978,188.495834,1632.500169,-10.168907,0
0.102083,-20.017062,163.336714,-162.808144,-0.216132,0.338292,-5.279710,4.427466,-0.077061,5.314246,-4.345585,-0.044421,0.445865,-0.043161,6.528208,188.495875,1632.827500,-10.679503,0
0.103125,-70.298366,198.455902,-87.171781,1.220238,2.905143,-5.918652,2.502080,-2.598626,5.876602,-2.456368,-0.069992,0.444885,-0.013287,6.607378,188.646721,1633.844819,-11.167105,0
0.104167,-130.152741,185.154827,-22.417992,2.498268,4.467265,-5.394799,0.386393,-4.333580,5.532474,-0.481764,-0.121134,0.439855,-0.013287,4.831708,188.571308,1633.996707,-12.306557,0
0.105208,-178.358369,134.560001,38.347159,3.629268,5.773768,-4.200255,-1.882280,-5.572308,4.302843,1.741891,-0.157664,0.443317,-0.054364,3.406648,188.495861,1635.246634,-13.512467,0
0.106250,-194.963789,62.412842,95.000568,4.669788,6.018737,-2.251681,-3.807667,-5.906801,2.435314,3.645339,-0.212459,0.449066,-0.050629,1.947658,188.495897,1635.293729,-13.634293,0
0.107292,-167.832528,1.549248,158.683334,5.902578,5.528799,-0.112614,-5.337529,-5.362790,0.290804,5.047130,-0.252642,0.456970,-0.046895,1.054168,188.571333,1636.307558,-14.635713,0
0.108333,-121.067398,-58.420360,188.167235,6.479388,4.005729,2.113761,-5.759173,-4.010114,-1.958623,5.630617,-0.245336,0.452659,-0.043161,-0.156002,188.571178,1636.761077,-15.044869,0
0.109375,-44.573575,-117.544304,196.932387,6.660348,2.021124,4.264734,-5.692009,-1.900233,-4.082150,5.534555,-0.270907,0.448478,-0.028224,-1.354862,188.495848,1638.009879,-16.264892,0
0.110417,20.078678,-162.871856,162.154925,5.993058,-0.261705,5.439435,-4.512896,0.349326,-5.416698,4.477875,-0.238030,0.430056,-0.031958,-1.694162,188.497392,1637.591981,-17.307421,0
0.111458,70.212530,-198.897111,86.715531,4.579308,-2.782403,6.070440,-2.576315,2.837809,-5.953875,2.652699,-0.183235,0.442795,-0.043161,-1.671542,188.507998,1638.035896,-17.675887,0
0.112500,130.044220,-184.194651,22.097159,3.391758,-4.387129,5.502932,-0.512867,4.580114,-5.555189,0.674537,-0.121134,0.438548,-0.043161,-0.031592,188.571024,1637.412458,-18.087697,0
