1-Time,2-VGERA,3-VGERB,4-VGERC,5-VN,6-IGERAN,7-IGERBN,8-IGERCN,9-IGERAT,10-IGERBT,11-IGERCT,12-IN,13-IFD,14-IFAULT,15-VFAULT,16-Speed (rad/s),17-Active Power,18-Reactive Power,19-FAULT 
0.000000,-193.039523,97.306000,21.039558,0.697085,5.319063,1.139688,-5.972660,-4.553228,-0.893321,6.082723,-0.265872,0.196385,-0.086006,290.944093,188.430703,1038.216679,-1339.366067,0
0.001042,-185.321674,53.003822,96.440681,2.115757,3.579733,3.480912,-6.347369,-3.029888,-3.264941,6.582343,-0.265872,0.203758,-0.138040,232.457097,188.500875,1037.296768,-1339.943018,0
0.002083,-141.477964,11.473467,172.485843,3.601985,1.396397,5.134251,-5.753134,-0.947990,-4.917888,5.999454,-0.214826,0.208787,-0.067423,147.760721,188.350375,1037.878076,-1340.264850,0
0.003125,-89.261009,-40.533438,201.540490,4.176209,-1.381394,6.160045,-3.966643,1.717855,-6.033944,4.254571,-0.203887,0.205618,-0.089723,43.801351,188.438840,1037.109270,-1340.599019,0
0.004167,-43.315512,-121.855888,174.818964,3.613244,-3.788568,6.687022,-2.093099,4.050016,-6.537015,2.369643,-0.145548,0.198246,-0.056273,-85.680640,188.430084,1037.860069,-1341.152682,0
0.005219,-2.240284,-180.663153,121.983495,2.644944,-5.289383,5.387682,0.476874,5.558848,-5.467461,-0.226863,-0.105440,0.206307,-0.026539,-179.597584,188.514726,1035.981739,-1341.887710,0
0.006267,64.248477,-192.913199,66.827057,1.597829,-6.647088,3.814798,3.183105,6.770266,-3.780694,-2.978554,-0.061686,0.177851,-0.086006,-261.817129,188.285137,1036.322858,-1342.957059,0
0.007306,142.104962,-158.453339,23.822291,0.775900,-6.474623,1.521846,4.931746,6.712234,-1.692316,-4.795352,-0.010640,0.188600,-0.078573,-297.460985,188.502690,1035.211637,-1342.093995,0
0.008342,193.451823,-96.745056,-21.333321,-0.136103,-5.215993,-1.084878,6.093722,5.428276,0.932953,-5.968700,0.003945,0.196454,-0.071140,-291.156323,188.427372,1034.350553,-1342.160530,0
0.009385,184.807380,-52.325428,-96.819505,-1.543516,-3.506019,-3.418057,6.479786,3.933952,3.304573,-6.513740,0.040407,0.200795,-0.071140,-230.766670,188.501404,1033.818681,-1341.878852,0
0.010419,141.698165,-11.394068,-171.916836,-3.041003,-1.396072,-5.019100,5.927185,1.794022,4.974430,-5.942205,0.033114,0.212370,-0.059989,-147.331226,188.349443,1033.222382,-1342.325748,0
0.011461,89.097013,40.812502,-201.275275,-3.581449,1.433091,-6.060986,4.125554,-0.737624,6.094714,-4.212463,0.007591,0.168343,-0.097156,-42.876490,188.495875,1032.962108,-1341.839125,0
0.012500,43.513114,120.913471,-174.541597,-3.131077,3.796232,-6.515553,2.293644,-3.055277,6.504780,-2.266975,-0.058040,0.153185,-0.067423,85.040594,188.420361,1031.558441,-1340.603980,0
0.013542,3.172380,180.766042,-123.030661,-2.117740,5.308055,-5.413327,-0.211984,-4.618514,5.545141,0.147851,-0.138256,0.193009,-0.052556,178.822439,188.495731,1031.251946,-1339.866467,0
0.014583,-61.237194,192.041252,-68.032195,-1.036847,6.621726,-3.735852,-2.906860,-5.735630,3.807644,2.975243,-0.163779,0.184672,-0.093440,258.373760,188.344925,1029.835335,-1339.641305,0
0.015625,-141.590963,160.411940,-24.833002,-0.169881,6.526320,-1.563582,-4.693351,-5.829932,1.782678,4.822320,-0.207533,0.193767,-0.108307,299.162670,188.495696,1029.268725,-1339.296760,0
0.016667,-191.932130,97.681841,20.626402,0.742122,5.289707,1.099460,-5.904531,-4.542347,-0.851046,6.003239,-0.207533,0.199279,-0.078573,291.067935,188.420244,1028.700883,-1338.044350,0
0.017708,-186.112669,53.344428,96.209800,2.138276,3.612758,3.472866,-6.298165,-3.055277,-3.256486,6.593698,-0.254934,0.200726,-0.074856,234.134587,188.495618,1029.101697,-1338.401370,0
0.018750,-142.144659,11.755347,171.209917,3.601985,1.403736,5.081955,-5.707714,-0.904466,-4.900978,5.965389,-0.229410,0.200037,-0.089723,149.370661,188.345015,1027.841437,-1338.360624,0
0.019792,-89.792105,-40.216323,201.868585,4.164950,-1.370386,6.147977,-3.932578,1.674331,-5.995897,4.296206,-0.178364,0.204447,-0.097156,45.400033,188.495765,1028.372410,-1337.999811,0
0.020833,-43.993508,-120.610917,174.770357,3.658281,-3.784899,6.630704,-2.093099,4.039135,-6.482058,2.350718,-0.149195,0.190460,-0.067423,-83.699175,188.420470,1027.132899,-1337.657835,0
0.021875,-3.358976,-180.945034,123.818398,2.746278,-5.260027,5.427910,0.393606,5.544340,-5.526646,-0.128453,-0.120025,0.192320,-0.074856,-178.212810,188.495843,1028.279261,-1338.112711,0
0.022917,61.208797,-191.938363,69.148027,1.631607,-6.570029,3.846980,3.133901,6.672337,-3.797604,-2.880145,-0.054394,0.190253,-0.071140,-257.899232,188.344921,1026.696912,-1336.989192,0
0.023958,141.867664,-160.755361,25.511374,0.787160,-6.448936,1.650573,4.867402,6.744877,-1.738818,-4.780212,-0.014286,0.193285,-0.115740,-299.892783,188.420263,1027.103577,-1338.185562,0
0.025000,191.722935,-98.612513,-20.239670,-0.113585,-5.241680,-1.060742,6.078582,5.406514,0.899133,-5.911925,0.011237,0.201828,-0.074856,-291.212614,188.420423,1025.891433,-1337.758540,0
0.026042,186.231171,-54.157650,-95.689400,-1.588553,-3.535375,-3.349671,6.491141,3.988357,3.228478,-6.483460,0.022176,0.201897,-0.086006,-234.009067,188.497817,1026.083068,-1337.741098,0
0.027083,142.534360,-12.157494,-170.993309,-3.018484,-1.377725,-5.031169,5.923400,1.797649,4.944838,-5.942205,0.003945,0.202655,-0.078573,-148.704741,188.344932,1025.602611,-1337.748137,0
0.028125,90.453004,39.966861,-201.761342,-3.626486,1.396397,-6.105236,4.140694,-0.773894,6.090487,-4.227603,-0.010640,0.196730,-0.097156,-44.767888,188.420332,1025.207011,-1338.788662,0
0.029167,44.835205,120.608100,-174.541597,-3.052262,3.858613,-6.579917,2.297429,-3.102428,6.517463,-2.289685,-0.039809,0.201415,-0.056273,84.004829,188.420244,1024.991834,-1339.730240,0
0.030208,3.680877,180.648592,-123.674700,-2.128999,5.370436,-5.361032,-0.215769,-4.614887,5.587416,0.178131,-0.120025,0.202242,-0.063706,178.619789,188.495749,1024.928803,-1340.423922,0
0.031250,-60.965996,191.935547,-68.980025,-1.048106,6.640073,-3.711716,-2.929570,-5.761019,3.837236,2.941178,-0.167425,0.184741,-0.078573,258.137336,188.420260,1025.279911,-1340.675967,0
0.032292,-141.376264,160.776035,-25.209704,-0.271215,6.537328,-1.567605,-4.723630,-5.848067,1.761541,4.860170,-0.207533,0.191562,-0.093440,299.027571,188.420301,1025.009533,-1341.538171,0
0.033333,-191.977330,98.163386,20.383368,0.607011,5.271360,1.155778,-5.923456,-4.513331,-0.897548,6.048658,-0.243995,0.197626,-0.067423,290.842769,188.420356,1024.376552,-1342.528182,0
0.034375,-186.180468,53.661543,95.711581,2.115757,3.609089,3.448730,-6.309519,-3.062531,-3.243803,6.593698,-0.225764,0.199624,-0.071140,233.751804,188.495649,1024.258635,-1342.515979,0
0.035418,-142.280258,11.884542,171.307131,3.579466,1.444100,5.118160,-5.764488,-0.911720,-4.896750,5.980529,-0.222118,0.216022,-0.059989,148.717678,188.420408,1024.481585,-1342.617056,0
0.036458,-89.803405,-39.828737,201.819978,4.209987,-1.355708,6.196250,-3.928793,1.652569,-6.050854,4.265926,-0.185656,0.209132,-0.059989,45.062284,188.344938,1024.362219,-1342.974234,0
0.037500,-44.072607,-120.387762,174.855419,3.692059,-3.762882,6.646794,-2.100668,3.991984,-6.469375,2.335578,-0.167425,0.206169,-0.074856,-83.744208,188.420415,1024.158807,-1342.472520,0
0.038542,-3.505875,-180.604428,123.745488,2.644944,-5.282044,5.492273,0.401175,5.540713,-5.543556,-0.124668,-0.101794,0.198521,-0.067423,-177.863802,188.495723,1024.194427,-1342.412936,0
0.039583,60.542101,-192.220243,68.783477,1.665385,-6.599385,3.846980,3.114976,6.708607,-3.776466,-2.880145,-0.047102,0.183914,-0.078573,-257.325057,188.495664,1024.025960,-1342.770271,0
0.040625,141.404367,-160.802341,25.280492,0.787160,-6.511317,1.650573,4.901467,6.752131,-1.789548,-4.821847,0.000299,0.189495,-0.093440,-299.160992,188.345028,1024.435720,-1342.992453,0
0.041667,191.632535,-98.107478,-19.972334,-0.102325,-5.208654,-0.968219,6.105077,5.450038,0.882223,-5.930850,0.044053,0.197626,-0.045123,-290.593407,188.420251,1024.972186,-1343.024528,0
0.042708,186.400670,-53.464694,-94.875238,-1.509738,-3.546383,-3.357716,6.479786,3.973849,3.253843,-6.544020,0.044053,0.214299,-0.093440,-233.705092,188.495712,1024.964760,-1343.632174,0
0.043750,142.805558,-11.793398,-170.227754,-2.917150,-1.374055,-5.015078,5.957464,1.819411,4.944838,-5.900570,0.003945,0.206238,-0.093440,-148.716000,188.495531,1024.625380,-1343.171900,0
0.044792,89.808908,39.649746,-201.967920,-3.637746,1.403736,-6.069031,4.136909,-0.748505,6.065122,-4.223818,0.011237,0.195972,-0.071140,-44.835438,188.420202,1024.638388,-1342.543434,0
0.045833,44.089410,119.398364,-174.784631,-3.074780,3.840266,-6.543712,2.270935,-3.124190,6.513235,-2.266975,-0.090856,0.191287,-0.067423,83.340587,188.420291,1024.007304,-1342.593606,0
0.046875,3.827776,180.707317,-123.711155,-2.174036,5.319063,-5.385168,-0.166565,-4.629395,5.583188,0.159206,-0.079917,0.213335,-0.082290,178.248264,188.495680,1024.119592,-1342.663623,0
0.047917,-59.779503,191.806352,-68.603324,-1.059366,6.585031,-3.731829,-2.876581,-5.673971,3.841464,2.922253,-0.130964,0.174889,-0.078573,256.797595,188.420204,1023.401144,-1341.549624,0
0.048958,-141.444064,161.245835,-25.015277,-0.271215,6.504303,-1.579673,-4.632792,-5.797289,1.803816,4.822320,-0.196595,0.189151,-0.100873,299.624262,188.420251,1023.585823,-1340.732281,0
0.050000,-190.734338,98.280836,19.800088,0.674567,5.230996,1.107506,-5.878036,-4.506077,-0.918686,5.984314,-0.236703,0.198935,-0.056273,290.291111,188.420372,1022.524952,-1340.035696,0
0.051042,-186.824564,53.497113,95.140452,2.127016,3.590741,3.444707,-6.279240,-3.040769,-3.218438,6.589913,-0.218472,0.199761,-0.067423,235.215387,188.495740,1022.309570,-1339.911599,0
0.052083,-143.161652,11.626152,169.508683,3.523169,1.436761,5.045751,-5.703929,-0.900839,-4.841793,5.923754,-0.251287,0.212646,-0.089723,150.023644,188.495691,1021.143470,-1339.018575,0
0.053125,-89.724306,-39.476387,202.500472,4.097394,-1.341030,6.091659,-3.936363,1.670704,-5.966304,4.303776,-0.141902,0.187566,-0.059989,46.379508,188.344882,1021.142715,-1338.584511,0
0.054167,-44.151707,-118.708225,175.086301,3.714578,-3.718848,6.586454,-2.085529,3.955714,-6.389053,2.312869,-0.178364,0.187635,-0.078573,-81.413735,188.420280,1019.749999,-1337.680399,0
0.055208,-3.675374,-181.085974,124.705470,2.723759,-5.204985,5.484228,0.378466,5.497189,-5.526646,-0.048968,-0.087210,0.204860,-0.089723,-177.739961,188.495714,1020.300850,-1337.139065,0
0.056250,59.491208,-191.691718,69.913582,1.676644,-6.478292,3.758480,3.077127,6.614305,-3.763784,-2.876360,-0.025225,0.189909,-0.071140,-256.030350,188.495812,1018.976907,-1336.519651,0
0.057292,141.381767,-161.824157,25.900227,0.843456,-6.437928,1.674710,4.867402,6.726742,-1.747273,-4.738577,0.018530,0.191356,-0.097156,-301.108682,188.420343,1018.371781,-1336.153166,0
0.058333,190.208745,-99.481644,-19.522722,-0.091066,-5.171960,-0.964196,6.002884,5.439157,0.882223,-5.862721,-0.003348,0.200795,-0.048839,-290.818573,188.420309,1017.359003,-1335.679373,0
0.059375,187.146465,-54.627450,-94.753721,-1.532256,-3.608764,-3.345648,6.479786,4.024627,3.207341,-6.491030,0.062284,0.192665,-0.063706,-235.866691,188.495759,1017.633035,-1335.329269,0
0.060417,143.833851,-12.286689,-169.049042,-2.928410,-1.377725,-5.011055,5.934755,1.841173,4.872971,-5.843796,0.033114,0.202380,-0.097156,-150.123290,188.420305,1016.791559,-1334.428980,0
0.061458,90.950200,39.262160,-202.344622,-3.626486,1.378049,-6.056963,4.174759,-0.704981,6.022847,-4.216248,-0.017932,0.199899,-0.100873,-46.220212,188.344860,1016.709051,-1334.212941,0
0.062500,45.479301,118.576214,-174.966906,-3.074780,3.799901,-6.479349,2.323924,-3.051650,6.479415,-2.289685,-0.058040,0.189151,-0.082290,81.426672,188.495676,1016.335570,-1333.605945,0
0.063542,4.132874,180.719062,-124.695440,-2.140259,5.282368,-5.385168,-0.196845,-4.560482,5.549368,0.136496,-0.076271,0.181021,-0.108307,178.146939,188.495763,1016.018572,-1333.021648,0
0.064583,-59.384006,191.324806,-69.794187,-1.115662,6.574023,-3.707693,-2.846301,-5.684852,3.811872,2.922253,-0.152841,0.193492,-0.071140,255.863154,188.495705,1015.282435,-1333.442960,0
0.065625,-141.218065,162.032751,-25.756529,-0.259955,6.507972,-1.603809,-4.685781,-5.815424,1.808043,4.818535,-0.182010,0.191218,-0.078573,300.007045,188.344778,1015.259543,-1333.997713,0
0.066667,-190.135442,99.690237,19.471993,0.640789,5.197971,1.075324,-5.874252,-4.491569,-0.842591,5.961604,-0.229410,0.197901,-0.089723,290.381177,188.495638,1015.245002,-1333.592430,0
0.067708,-187.163562,54.413223,94.788054,2.070720,3.594411,3.432639,-6.260315,-3.084293,-3.209983,6.563418,-0.236703,0.209683,-0.067423,235.676978,188.495765,1015.329742,-1333.646902,0
0.068750,-143.997847,12.084207,168.743128,3.489392,1.400066,5.077933,-5.696359,-0.879077,-4.841793,5.927539,-0.196595,0.183846,-0.059989,150.338877,188.495729,1014.797673,-1334.079699,0
0.069792,-90.515300,-38.924372,202.549079,4.131172,-1.377725,6.131886,-3.921224,1.630807,-5.991669,4.250786,-0.185656,0.202035,-0.086006,46.638449,188.269532,1014.339959,-1334.295551,0
0.070833,-44.874902,-118.120975,175.207817,3.658281,-3.711509,6.542204,-2.043894,3.970222,-6.393281,2.324223,-0.167425,0.195972,-0.086006,-80.794527,188.495696,1014.079642,-1334.700748,0
0.071875,-3.901373,-180.721879,124.741925,2.689981,-5.241680,5.435955,0.389821,5.489935,-5.480143,-0.079248,-0.101794,0.199486,-0.126890,-177.616119,188.495723,1013.137585,-1334.621736,0
0.072917,58.813213,-191.691718,69.621942,1.642866,-6.474623,3.758480,3.118761,6.614305,-3.746874,-2.887715,-0.036163,0.177920,-0.093440,-255.185976,188.495825,1012.680339,-1334.676928,0
0.073958,140.952370,-162.082548,25.742255,0.787160,-6.456275,1.666664,4.848477,6.719488,-1.759955,-4.742362,0.000299,0.187359,-0.119457,-300.534507,188.344997,1012.651655,-1334.640056,0
0.075000,189.530749,-99.575604,-19.170323,-0.113585,-5.113248,-1.028560,6.010453,5.388379,0.865314,-5.805946,-0.003348,0.195765,-0.100873,-289.782807,188.495845,1011.730798,-1333.670978,0
0.076042,187.451563,-53.840535,-93.927407,-1.543516,-3.528036,-3.317489,6.430582,3.904936,3.258071,-6.456965,0.018530,0.196454,-0.082290,-235.292516,188.495816,1009.863545,-1333.807443,0
0.077083,144.444047,-11.664203,-167.457173,-2.995965,-1.352038,-4.982896,5.840131,1.823038,4.864516,-5.824871,0.025822,0.207478,-0.089723,-149.920640,188.495506,1009.165267,-1333.512658,0
0.078125,90.238305,38.886320,-202.514746,-3.637746,1.359702,-6.012713,4.140694,-0.741251,6.031302,-4.204893,-0.010640,0.198039,-0.074856,-46.073854,188.345013,1008.774269,-1333.704585,0
0.079167,44.710906,117.096342,-175.222091,-3.074780,3.785224,-6.402917,2.191451,-3.040769,6.382183,-2.229125,-0.036163,0.192320,-0.048839,80.537265,188.420314,1007.032094,-1332.782036,0
0.080208,4.019875,180.871747,-124.610378,-2.219074,5.286038,-5.373100,-0.166565,-4.535093,5.557823,0.121356,-0.123671,0.187635,-0.074856,178.169456,188.495705,1007.316932,-1332.409243,0
0.081250,-58.061915,191.230846,-69.393182,-1.104403,6.482286,-3.635284,-2.872796,-5.630447,3.723094,2.873048,-0.130964,0.179091,-0.056273,254.320763,188.495693,1005.892738,-1331.324163,0
0.082292,-141.105066,162.326376,-25.367676,-0.203659,6.438252,-1.559559,-4.625222,-5.764646,1.803816,4.807180,-0.243995,0.184397,-0.100873,300.412344,188.344936,1005.542633,-1330.855651,0
0.083333,-188.881150,99.502317,19.265414,0.640789,5.146598,1.099460,-5.760703,-4.433537,-0.846818,5.882119,-0.203887,0.193147,-0.048839,289.187795,188.420320,1004.202796,-1329.526007,0
0.084375,-187.898057,53.696778,94.350594,2.070720,3.565055,3.400457,-6.226251,-3.037142,-3.193073,6.517998,-0.222118,0.176335,-0.074856,236.194861,188.495627,1003.576290,-1328.981142,0
0.085417,-144.540243,11.426487,166.896074,3.455614,1.385388,5.009546,-5.632016,-0.864569,-4.782608,5.844269,-0.211179,0.207478,-0.074856,150.755435,188.495736,1002.211861,-1327.677099,0
0.086458,-90.131103,-38.712962,203.156662,4.131172,-1.304335,6.075568,-3.921224,1.699720,-5.953622,4.284851,-0.149195,0.159042,-0.097156,47.257657,188.344945,1002.060844,-1327.978678,0
0.087500,-44.456805,-116.570633,175.390092,3.680800,-3.689493,6.477840,-2.062819,3.970222,-6.346778,2.244739,-0.141902,0.161522,-0.056273,-79.285912,188.420307,1000.357039,-1327.700877,0
0.088542,-3.731874,-181.297384,125.167233,2.768796,-5.182968,5.472160,0.363326,5.486308,-5.484371,-0.048968,-0.087210,0.194594,-0.112023,-177.886319,188.495631,1000.909120,-1327.720442,0
0.089583,57.931819,-191.268898,70.217374,1.620348,-6.434258,3.730321,3.058202,6.552646,-3.708827,-2.830940,-0.036163,0.199624,-0.089723,-253.902527,188.495680,999.966039,-1326.722655,0
0.090625,141.189668,-162.540603,25.839469,0.809678,-6.445267,1.670687,4.833338,6.715861,-1.785320,-4.719652,-0.014286,0.188669,-0.071140,-302.178223,188.269445,1000.335040,-1326.559995,0
0.091667,188.366857,-100.209834,-19.036655,-0.068547,-5.116918,-0.972242,5.991529,5.370244,0.793446,-5.783236,0.036760,0.198108,-0.078573,-289.737774,188.420323,1000.184092,-1325.723368,0
0.092708,188.231258,-54.439530,-93.878801,-1.509738,-3.542714,-3.305421,6.460861,3.988357,3.211568,-6.479675,0.033114,0.198935,-0.048839,-237.330273,188.495642,1001.478512,-1325.832897,0
0.093750,145.099443,-12.051789,-166.655163,-2.860854,-1.370386,-4.914510,5.855271,1.819411,4.822241,-5.802161,0.011237,0.184741,-0.093440,-151.496806,188.495725,1000.867748,-1325.469917,0
0.094792,91.063200,38.569205,-202.988661,-3.570190,1.374380,-6.012713,4.155834,-0.719489,5.984800,-4.238958,-0.028871,0.213610,-0.074856,-47.503661,188.269357,1001.156371,-1325.354455,0
0.095833,46.044297,116.544327,-175.234243,-3.097299,3.759537,-6.382803,2.267150,-3.015380,6.407548,-2.240480,-0.050748,0.202449,-0.078573,78.623349,188.495752,1001.058783,-1325.661989,0
0.096875,4.505772,180.789532,-125.849849,-2.174036,5.267691,-5.409305,-0.147641,-4.545974,5.583188,0.087292,-0.090856,0.201828,-0.048839,177.797931,188.495805,1001.423484,-1326.244323,0
0.097917,-57.824616,190.855006,-70.717715,-1.126922,6.548337,-3.687579,-2.872796,-5.601431,3.811872,2.884403,-0.156487,0.185913,-0.041406,253.802881,188.495734,1001.777021,-1326.464713,0
0.098958,-141.025967,163.054567,-26.121079,-0.248696,6.500633,-1.611855,-4.670641,-5.797289,1.854545,4.757975,-0.200241,0.190253,-0.089723,301.132877,188.269534,1002.465277,-1326.418888,0
0.100000,-188.519553,100.876483,19.070988,0.607011,5.153937,1.051188,-5.794768,-4.455299,-0.787634,5.874549,-0.243995,0.197763,-0.089723,290.054686,188.495709,1002.878824,-1326.444205,0
0.101042,-188.293554,54.953494,93.986044,2.025683,3.598080,3.372298,-6.248960,-3.051650,-3.184618,6.536923,-0.222118,0.197488,-0.089723,237.343210,188.420191,1002.899368,-1327.066727,0
0.102083,-145.319938,12.072462,166.653040,3.511910,1.396397,5.033683,-5.639585,-0.904466,-4.795291,5.874549,-0.254934,0.211957,-0.074856,151.746168,188.495763,1003.350720,-1327.587102,0
0.103125,-91.294995,-38.395846,202.974387,4.164950,-1.300666,6.115795,-3.932578,1.609045,-5.945167,4.250786,-0.189302,0.204860,-0.071140,48.068256,188.269610,1003.326728,-1327.109936,0
0.104167,-45.767596,-116.194793,175.633126,3.703318,-3.689493,6.473817,-2.043894,3.930325,-6.317186,2.305299,-0.167425,0.189220,-0.045123,-78.160079,188.495656,1003.498826,-1326.788896,0
0.105208,-4.421169,-180.757114,126.030002,2.735018,-5.208654,5.439978,0.363326,5.435530,-5.484371,-0.007333,-0.109087,0.218089,-0.104590,-177.019428,188.420361,1003.406070,-1326.344048,0
0.106250,57.547621,-191.257153,70.727744,1.665385,-6.437928,3.758480,3.043062,6.527257,-3.734192,-2.838510,-0.061686,0.183501,-0.086006,-253.046894,188.495636,1003.278764,-1326.385114,0
0.107292,140.884570,-163.163088,26.191867,0.798419,-6.434258,1.674710,4.825768,6.730369,-1.789548,-4.700727,0.011237,0.188393,-0.097156,-302.121931,188.269509,1003.320019,-1326.570928,0
0.108333,187.926160,-101.043730,-18.587043,-0.057288,-5.098570,-0.968219,5.912045,5.341228,0.831494,-5.752956,0.047699,0.197143,-0.089723,-289.366249,188.495770,1002.285204,-1326.730368,0
0.109375,188.570255,-54.416040,-93.174004,-1.509738,-3.542714,-3.261171,6.438151,3.995611,3.160839,-6.434255,0.003945,0.194801,-0.082290,-237.071331,188.420347,1002.074404,-1325.899365,0
