1-Time,2-VGERA,3-VGERB,4-VGERC,5-VN,6-IGERAN,7-IGERBN,8-IGERCN,9-IGERAT,10-IGERBT,11-IGERCT,12-IN,13-IFD,14-IFAULT,15-VFAULT,16-Speed (rad/s),17-FAULT 
0.000000,-184.914334,130.355846,13.676705,3.154248,6.490924,-2.136592,-4.359910,-6.178806,2.363971,4.171900,-0.223418,0.311622,-0.031958,4.933498,188.496152,0
0.001042,-192.842742,68.090867,73.900190,4.285248,5.589153,0.589825,-5.979324,-5.226787,-0.363880,5.666196,-0.256295,0.316325,-0.028224,4.345378,188.721726,0
0.002083,-170.815606,16.481245,152.207955,5.744238,4.264900,2.808264,-6.576343,-3.988059,-2.588127,6.399112,-0.259948,0.323250,-0.028224,0.782728,188.495421,0
0.003125,-113.558663,-34.101500,195.615152,6.581178,1.918166,4.518723,-5.833801,-1.712770,-4.233230,5.644849,-0.267254,0.340496,-0.024490,-5.347291,188.495119,0
0.004167,-54.498263,-101.657915,199.283713,6.660348,-0.581230,6.094251,-4.755435,0.878634,-5.958071,4.755387,-0.223418,0.316652,-0.002084,-10.595131,188.495459,0
0.005208,-5.419263,-164.188674,153.980682,5.823408,-2.935065,6.403801,-2.721838,3.245817,-6.247643,2.734530,-0.197847,0.302607,-0.035692,-12.393421,188.646201,0
0.006250,45.077549,-209.153799,88.882197,4.613238,-5.008427,5.741047,-0.132268,5.329967,-5.752433,0.261826,-0.139399,0.316652,-0.035692,-12.359491,188.495338,0
0.007300,119.643147,-179.434775,36.475947,3.640578,-6.194220,4.217111,2.453572,6.495180,-4.170280,-2.221551,-0.088257,0.305481,-0.039427,-6.025891,188.496226,0
0.008334,184.805812,-130.301738,-13.726705,2.656608,-6.350432,2.304253,4.252092,6.833349,-2.420259,-4.025379,-0.018850,0.315803,-0.028224,-0.257792,188.496127,0
0.009375,192.654823,-68.616643,-74.528788,1.514298,-5.448662,-0.406289,5.849118,5.818842,0.307591,-5.501885,0.010374,0.320767,-0.046895,0.760108,188.646895,0
0.010417,171.058702,-17.043263,-152.442614,0.077928,-4.159911,-2.577105,6.423749,4.532329,2.557018,-6.238360,0.006721,0.334551,-0.009553,4.107868,188.571601,0
0.011458,114.176062,34.179770,-195.985228,-0.747702,-1.795425,-4.382810,5.714789,2.253364,4.281859,-5.562369,-0.040768,0.334747,-0.017021,10.260508,188.496192,0
0.012500,55.614732,101.989884,-198.853599,-0.860802,0.725272,-5.946432,4.643886,-0.334364,6.015093,-4.587519,-0.029809,0.328149,-0.039427,15.632758,188.517589,0
0.013542,6.013977,165.390468,-153.513637,-0.023862,3.100408,-6.267888,2.636409,-2.650086,6.350829,-2.627145,-0.033462,0.320179,-0.024490,17.170918,188.518219,0
0.014583,-45.515003,209.038774,-88.969129,1.163688,5.177321,-5.533700,-0.031521,-4.723209,5.696145,-0.086843,-0.110175,0.310315,-0.028224,18.041788,188.518452,0
0.015625,-119.694956,179.899634,-37.129167,2.170278,6.334712,-4.053418,-2.591240,-5.910477,4.244089,2.378745,-0.172276,0.303914,-0.046895,10.633738,188.507385,0
0.016667,-184.789566,130.416251,14.119886,3.154248,6.448321,-2.104843,-4.393492,-6.182482,2.338790,4.225268,-0.197847,0.311557,-0.039427,5.125768,188.512874,0
0.017708,-192.820057,67.970058,74.712690,4.307868,5.599804,0.617605,-6.009175,-5.292951,-0.330306,5.712448,-0.245336,0.309074,-0.013287,4.322758,188.578356,0
0.018750,-171.121853,16.046333,152.023296,5.766858,4.272000,2.804295,-6.546492,-3.966005,-2.567143,6.416901,-0.245336,0.310381,-0.031958,0.545218,188.576515,0
0.019792,-112.810058,-34.391442,196.513826,6.615108,1.886213,4.578252,-5.848726,-1.690716,-4.271001,5.680427,-0.238030,0.317893,0.005384,-5.290741,188.495821,0
0.020833,-54.271413,-101.754562,199.000569,6.660348,-0.606082,6.141874,-4.718121,0.915391,-5.991645,4.712693,-0.223418,0.293070,-0.005818,-10.877881,188.495635,0
0.021876,-5.373893,-165.590059,153.106629,5.789478,-2.974118,6.447455,-2.688256,3.267871,-6.268626,2.706067,-0.157664,0.317436,-0.031958,-12.664861,188.571154,0
0.022926,45.894209,-208.453106,87.589584,4.635858,-5.061681,5.681518,-0.005401,5.388779,-5.668499,0.162207,-0.139399,0.302476,-0.050629,-12.687481,188.495940,0
0.023970,120.924850,-179.096510,35.528030,3.606648,-6.219072,4.169488,2.558050,6.565019,-4.145100,-2.306939,-0.055380,0.304240,-0.046895,-5.822311,188.495676,0
0.025012,184.556277,-129.057405,-15.253220,2.667918,-6.304279,2.228850,4.240898,6.741455,-2.306948,-4.053842,-0.055380,0.315084,-0.028224,0.024958,188.495933,0
0.026048,192.790933,-67.094449,-75.981440,1.469058,-5.466413,-0.453912,5.867775,5.785760,0.404115,-5.576600,-0.018850,0.315999,-0.028224,0.816658,188.646504,0
0.027092,170.536947,-15.472746,-152.898107,0.111858,-4.067603,-2.632665,6.386436,4.484545,2.607379,-6.217013,-0.000585,0.317762,-0.050629,4.311448,188.495897,0
0.028126,113.348059,34.554278,-196.539205,-0.826872,-1.724420,-4.366936,5.722252,2.234986,4.315433,-5.462749,-0.015197,0.329652,0.020321,10.407538,188.495852,0
0.029168,55.127004,102.702657,-198.361175,-0.826872,0.760775,-5.954369,4.572990,-0.356418,6.027683,-4.573287,-0.018850,0.330958,-0.043161,15.327388,188.495812,0
0.030208,5.764442,165.499196,-153.341288,0.010068,3.093308,-6.255982,2.569244,-2.675817,6.325649,-2.555988,-0.084604,0.327104,-0.039427,17.397118,188.646639,0
0.031250,-45.900648,208.857561,-88.796781,1.186308,5.120517,-5.509888,-0.068834,-4.704831,5.729718,-0.072611,-0.121134,0.315476,-0.043161,17.985238,188.495685,0
0.032292,-119.910463,179.766744,-37.042993,2.170278,6.348913,-3.970078,-2.576315,-5.844313,4.189532,2.385861,-0.161317,0.304763,-0.031958,10.543258,188.495718,0
0.033333,-185.220581,130.295442,14.021402,3.165558,6.430569,-2.116749,-4.367372,-6.164103,2.351381,4.221710,-0.219765,0.312798,-0.020755,4.944808,188.495622,0
0.034375,-192.774687,68.090867,74.958902,4.307868,5.603354,0.677134,-5.986787,-5.190030,-0.363880,5.680427,-0.248989,0.313059,-0.058098,4.345378,188.646614,0
0.035417,-170.736208,16.312113,152.515720,5.744238,4.218746,2.812232,-6.524104,-3.988059,-2.575537,6.377765,-0.219765,0.328541,-0.080503,0.737488,188.571038,0
0.036458,-113.070936,-34.645141,196.132198,6.615108,1.935917,4.542535,-5.800218,-1.676013,-4.291984,5.651964,-0.241683,0.343043,-0.050629,-5.403841,188.495685,0
0.037500,-54.169331,-102.370688,198.803599,6.694278,-0.602532,6.118063,-4.729315,0.852904,-5.958071,4.691346,-0.234377,0.342063,-0.046895,-10.572511,188.495759,0
0.038542,-5.090331,-165.058499,153.082008,5.789478,-2.970567,6.376020,-2.680793,3.220087,-6.247643,2.698951,-0.190541,0.305939,-0.039427,-12.472591,188.570991,0
0.039583,45.667359,-208.875938,87.995834,4.579308,-5.019078,5.713267,-0.009132,5.337319,-5.681089,0.176438,-0.124787,0.298165,-0.031958,-12.348181,188.571020,0
0.040625,119.325557,-179.434775,36.168182,3.651888,-6.215522,4.165519,2.483423,6.513559,-4.182870,-2.196646,-0.073645,0.303326,-0.054364,-6.003271,188.495732,0
0.041667,184.692387,-129.311104,-14.453030,2.701848,-6.322030,2.272505,4.222241,6.800267,-2.348915,-4.043168,-0.040768,0.311099,-0.046895,-0.099452,188.495754,0
0.042708,192.518713,-66.864912,-75.292046,1.502988,-5.469963,-0.394384,5.841656,5.807815,0.370542,-5.505443,-0.026156,0.304175,0.035258,0.895828,188.574679,0
0.043750,170.389494,-15.484827,-152.516478,0.032688,-4.099556,-2.592979,6.386436,4.528654,2.578002,-6.202781,0.046904,0.313124,-0.024490,4.187038,188.571569,0
0.044792,112.701537,34.916705,-196.613069,-0.804252,-1.717319,-4.430433,5.688670,2.220283,4.286056,-5.501885,-0.004238,0.343696,-0.035692,10.339678,188.496136,0
0.045833,54.639277,102.738900,-198.435038,-0.883422,0.739473,-5.922621,4.621498,-0.319661,6.019290,-4.591077,-0.018850,0.302411,-0.080503,15.700618,188.571545,0
0.046875,5.412825,166.417345,-152.738069,-0.035172,3.093308,-6.240107,2.599095,-2.657438,6.325649,-2.598682,-0.073645,0.316848,-0.046895,17.216158,188.571572,0
0.047917,-46.252265,208.712590,-88.809091,1.174998,5.141818,-5.553542,-0.042715,-4.741588,5.754898,-0.090400,-0.110175,0.316195,-0.028224,18.019168,188.571576,0
0.048958,-120.897261,179.609692,-36.956818,2.181588,6.377315,-3.997858,-2.636017,-5.906801,4.214712,2.360956,-0.186888,0.306527,-0.002084,10.633738,188.496165,0
0.050000,-184.914334,130.524979,14.538447,3.131628,6.448321,-2.085000,-4.371104,-6.200861,2.368167,4.207478,-0.238030,0.315737,-0.054364,5.148388,188.571413,0
0.051042,-192.865427,67.945896,75.845265,4.319178,5.617556,0.637448,-6.009175,-5.270896,-0.359683,5.740910,-0.227071,0.317697,-0.024490,4.288828,188.496165,0
0.052083,-171.121853,16.046333,152.343372,5.755548,4.268450,2.847949,-6.539030,-3.991735,-2.634291,6.402670,-0.245336,0.330762,-0.039427,0.488668,188.571599,0
0.053126,-112.458441,-34.959244,197.203220,6.637728,1.889763,4.617938,-5.897234,-1.690716,-4.296181,5.676869,-0.252642,0.335662,-0.054364,-5.335981,188.496177,0
0.054167,-54.407523,-102.648549,198.520455,6.626418,-0.581230,6.153780,-4.721853,0.874958,-6.004235,4.741155,-0.223418,0.330240,-0.046895,-10.911811,188.571473,0
0.055208,-4.976906,-166.435722,152.318750,5.834718,-2.931514,6.459361,-2.699450,3.227438,-6.277020,2.723856,-0.194194,0.323380,-0.020755,-12.732721,188.571536,0
0.056250,45.950921,-208.610158,87.946591,4.613238,-5.026179,5.733110,-0.038983,5.326291,-5.639123,0.212017,-0.146705,0.317828,-0.054364,-12.698791,188.571581,0
0.057292,120.278327,-179.483099,35.971212,3.606648,-6.233273,4.205205,2.505811,6.513559,-4.199657,-2.285592,-0.073645,0.303326,-0.054364,-5.856241,188.496234,0
0.058333,184.476880,-129.081567,-14.933144,2.633988,-6.318480,2.276473,4.244629,6.752483,-2.348915,-4.068073,-0.069992,0.314235,-0.050629,0.070198,188.496145,0
0.059375,192.722878,-66.309190,-75.784470,1.491678,-5.452212,-0.422164,5.893895,5.829869,0.399918,-5.541022,-0.015197,0.315345,-0.031958,0.884518,188.571563,0
0.060417,170.219357,-14.844539,-152.381061,0.100548,-4.131508,-2.589010,6.427481,4.488220,2.636756,-6.249033,0.010374,0.328214,-0.046895,4.311448,188.571513,0
0.061458,111.839507,35.182485,-197.031629,-0.781632,-1.756372,-4.390747,5.703595,2.187201,4.353203,-5.523232,-0.026156,0.335139,-0.024490,10.464088,188.496105,0
0.062500,53.799932,103.137570,-198.324243,-0.792942,0.753674,-5.954369,4.610304,-0.330688,5.994110,-4.559056,-0.029809,0.306853,-0.020755,15.316078,188.496181,0
0.063542,4.947782,166.610639,-152.454925,0.021378,3.114609,-6.220265,2.599095,-2.683168,6.271092,-2.563104,-0.055380,0.320702,-0.009553,17.476288,188.571509,0
0.064583,-46.524485,208.712590,-88.612121,1.163688,5.106315,-5.509888,-0.072566,-4.723209,5.712931,-0.086843,-0.110175,0.305285,-0.065566,17.985238,188.571603,0
0.065625,-121.044713,179.537207,-36.747538,2.170278,6.288558,-3.993889,-2.553927,-5.866368,4.206319,2.378745,-0.205153,0.305155,-0.013287,10.577188,188.496177,0
0.066667,-185.492801,130.090066,14.710795,3.142938,6.441220,-2.104843,-4.348716,-6.178806,2.326200,4.200363,-0.197847,0.317240,-0.039427,4.967428,188.571594,0
0.067709,-192.831399,67.921734,76.042235,4.330488,5.560751,0.629511,-6.005444,-5.190030,-0.405847,5.687543,-0.234377,0.317305,-0.020755,4.356688,188.496161,0
0.068750,-170.906346,16.130899,152.983523,5.778168,4.264900,2.820169,-6.483059,-3.951302,-2.604914,6.406228,-0.241683,0.328149,-0.009553,0.624388,188.571589,0
0.069792,-112.673948,-34.971325,196.612311,6.569868,1.882663,4.546503,-5.807681,-1.646607,-4.254214,5.655522,-0.227071,0.338079,-0.020755,-5.505631,188.496123,0
0.070833,-54.464236,-103.107624,198.335796,6.660348,-0.638035,6.114094,-4.695733,0.915391,-5.974858,4.694903,-0.241683,0.327431,-0.061832,-10.640371,188.571518,0
0.071875,-4.976906,-166.169942,152.171023,5.812098,-2.984769,6.423643,-2.654674,3.234790,-6.310593,2.720299,-0.186888,0.319918,-0.046895,-12.540451,188.496212,0
0.072917,46.211799,-208.537673,87.774243,4.590618,-5.022628,5.677550,-0.012864,5.293210,-5.681089,0.172880,-0.139399,0.305024,0.016587,-12.280321,188.571563,0
0.073958,120.437122,-179.168995,35.774243,3.606648,-6.229723,4.185362,2.546856,6.531938,-4.111526,-2.239340,-0.077298,0.301562,-0.080503,-5.946721,188.496206,0
0.075000,184.749100,-128.900354,-15.031629,2.645298,-6.311379,2.236788,4.296869,6.796592,-2.294358,-4.089420,-0.048074,0.310315,-0.065566,0.013648,188.571623,0
0.076042,192.530055,-65.970925,-76.289205,1.457748,-5.459313,-0.493598,5.901358,5.796787,0.349558,-5.558811,0.006721,0.307376,-0.054364,0.929758,188.496127,0
0.077083,170.196672,-14.494193,-152.565720,0.032688,-4.088905,-2.632665,6.416287,4.513951,2.586395,-6.281054,0.006721,0.312471,-0.073035,4.266208,188.571444,0
0.078125,111.227012,35.641559,-197.314773,-0.792942,-1.745722,-4.458213,5.714789,2.220283,4.332220,-5.498327,0.003068,0.297120,-0.050629,10.362298,188.496199,0
0.079167,53.289519,103.330864,-198.090342,-0.804252,0.757225,-5.970244,4.584184,-0.367446,6.069650,-4.608866,-0.048074,0.318481,-0.039427,15.700618,188.571585,0
0.080208,4.766302,167.347574,-151.593182,0.021378,3.160763,-6.295668,2.591632,-2.734629,6.367616,-2.555988,-0.073645,0.326059,-0.031958,17.284018,188.496168,0
0.081250,-46.603883,208.507214,-87.935038,1.208928,5.173771,-5.541637,-0.087491,-4.804076,5.700341,-0.051264,-0.113828,0.316456,-0.020755,18.041788,188.571507,0
0.082292,-121.816004,179.307669,-36.316667,2.192898,6.387966,-3.985952,-2.602434,-5.983992,4.176942,2.424997,-0.201500,0.304501,-0.031958,10.543258,188.496161,0
0.083333,-184.914334,129.908853,15.104735,3.188178,6.501575,-2.116749,-4.371104,-6.197185,2.301020,4.200363,-0.223418,0.315933,-0.061832,5.148388,188.646851,0
0.084375,-192.899454,67.813006,76.854735,4.353108,5.621106,0.669197,-6.076340,-5.270896,-0.397453,5.723121,-0.259948,0.319134,-0.035692,4.334068,188.496263,0
0.085417,-171.008428,15.877200,152.897349,5.766858,4.261349,2.847949,-6.587538,-3.954978,-2.604914,6.399112,-0.259948,0.323576,-0.065566,0.432118,188.571690,0
0.086458,-112.276961,-35.043810,197.621781,6.694278,1.872012,4.610001,-5.848726,-1.672337,-4.333951,5.676869,-0.256295,0.334094,-0.039427,-5.392531,188.496158,0
0.087500,-54.770483,-103.361323,197.929546,6.660348,-0.623834,6.145843,-4.714390,0.871282,-6.000038,4.709135,-0.230724,0.329652,-0.031958,-10.957051,188.646891,0
0.088542,-5.283153,-167.607570,151.666288,5.778168,-2.988319,6.503015,-2.688256,3.267871,-6.293807,2.716741,-0.168623,0.325536,-0.065566,-12.755341,188.496972,0
0.089583,46.472676,-208.102760,87.688068,4.590618,-5.040380,5.645801,0.016987,5.348346,-5.681089,0.158649,-0.132093,0.309989,-0.028224,-12.687481,188.572264,0
0.090625,121.344522,-179.096510,35.774243,3.606648,-6.240374,4.181394,2.561782,6.561344,-4.149297,-2.274918,-0.066339,0.303718,-0.058098,-5.822311,188.495767,0
0.091667,184.386140,-128.755383,-15.265530,2.645298,-6.339782,2.209007,4.285674,6.818646,-2.273375,-4.096536,-0.051727,0.312406,-0.050629,0.126748,188.571869,0
0.092708,192.756905,-65.789711,-76.695455,1.457748,-5.448662,-0.449944,5.927477,5.807815,0.408312,-5.597947,-0.000585,0.317044,-0.031958,0.907138,188.496203,0
0.093750,170.151302,-14.228413,-152.664205,0.043998,-4.103106,-2.624728,6.431212,4.499248,2.603182,-6.249033,0.014027,0.314170,-0.024490,4.322758,188.570998,0
0.094792,110.988819,35.738206,-197.868751,-0.815562,-1.738621,-4.442339,5.707326,2.168822,4.353203,-5.555253,0.003068,0.347943,-0.028224,10.475398,188.495718,0
0.095833,52.994614,103.741615,-198.004167,-0.860802,0.767875,-5.954369,4.587915,-0.393176,6.036077,-4.551940,-0.029809,0.316979,-0.046895,15.350008,188.571156,0
0.096875,3.938299,167.710002,-152.836553,-0.012552,3.182065,-6.307573,2.535662,-2.738304,6.359222,-2.555988,-0.055380,0.336249,-0.046895,17.566768,188.495749,0
0.097917,-47.000870,210.754263,-87.011743,1.208928,5.187972,-5.517825,-0.083760,-4.770994,5.725522,-0.029917,-0.124787,0.309858,-0.028224,17.973928,188.571223,0
0.098959,-121.657209,179.198941,-35.614962,2.238138,6.363114,-4.049449,-2.580046,-5.914152,4.265072,2.396534,-0.172276,0.307964,-0.035692,10.509328,188.495647,0
0.100000,-185.277294,129.268565,15.338636,3.199488,6.448321,-2.065157,-4.352447,-6.160428,2.376561,4.164784,-0.238030,0.317175,-0.020755,4.910878,188.646549,0
0.101042,-192.797372,67.257285,77.014773,4.353108,5.621106,0.625543,-6.020369,-5.223111,-0.338700,5.723121,-0.256295,0.319330,-0.039427,4.435858,188.495631,0
0.102084,-170.758893,16.650378,153.463637,5.755548,4.229397,2.812232,-6.531567,-3.980708,-2.630094,6.388439,-0.278213,0.328018,-0.050629,0.590458,188.571149,0
0.103125,-112.367701,-35.176700,197.424811,6.592488,1.903965,4.598095,-5.878577,-1.653958,-4.262607,5.676869,-0.252642,0.340692,-0.043161,-5.562181,188.496069,0
0.104167,-54.713771,-103.965368,197.794129,6.637728,-0.634484,6.133937,-4.692002,0.867607,-6.025218,4.705577,-0.186888,0.331938,-0.061832,-10.640371,188.646513,0
0.105209,-4.852138,-167.643813,151.358523,5.812098,-2.991869,6.479204,-2.669599,3.256844,-6.356757,2.698951,-0.175929,0.323315,-0.054364,-12.642241,188.496395,0
0.106250,47.119199,-208.247731,87.601894,4.567998,-5.033279,5.649770,0.020719,5.366725,-5.702073,0.215574,-0.154011,0.302084,-0.039427,-12.348181,188.571735,0
0.107292,121.764195,-178.927377,35.540341,3.606648,-6.197770,4.189331,2.546856,6.520910,-4.149297,-2.278476,-0.099216,0.305873,-0.084238,-5.890171,188.496650,0
0.108334,184.760442,-128.694978,-15.524053,2.645298,-6.311379,2.240756,4.240898,6.756158,-2.298555,-4.036052,-0.051727,0.316325,-0.043161,0.024958,188.647223,0
0.109375,192.507370,-65.717226,-77.175568,1.446438,-5.455762,-0.465818,5.908820,5.844572,0.357951,-5.573042,-0.015197,0.316652,-0.043161,0.941068,188.496481,0
0.110417,170.185329,-14.095523,-152.811932,0.055308,-4.092455,-2.604885,6.427481,4.524978,2.628362,-6.209897,0.003068,0.326451,-0.043161,4.311448,188.571931,0
0.111458,110.705257,36.003986,-197.967235,-0.804252,-1.692467,-4.462182,5.722252,2.139416,4.349006,-5.498327,-0.026156,0.356892,-0.020755,10.418848,188.495618,0
0.112500,52.994614,104.019476,-197.794887,-0.838182,0.792727,-6.005961,4.587915,-0.323337,6.010897,-4.519920,-0.000585,0.295291,-0.024490,15.689308,188.721840,0
0.113542,4.199177,168.422775,-150.596023,0.055308,3.189165,-6.299636,2.572976,-2.778738,6.363419,-2.548873,-0.059033,0.318350,-0.002084,17.363188,188.495607,0
0.114583,-47.250405,208.301839,-86.519318,1.220238,5.173771,-5.517825,-0.113611,-4.789373,5.708735,0.012777,-0.099216,0.300059,-0.043161,17.973928,188.495656,0
0.115625,-122.462526,178.981485,-34.888636,2.249448,6.402167,-4.013732,-2.643480,-5.925180,4.189532,2.424997,-0.183235,0.305024,-0.031958,10.509328,188.495674,0
0.116667,-184.902991,128.845733,16.163447,3.176868,6.430569,-2.088969,-4.408417,-6.197185,2.368167,4.207478,-0.212459,0.319134,-0.002084,5.091838,188.721971,0
0.117708,-193.035564,66.302893,77.839584,4.409658,5.631757,0.633480,-6.053952,-5.237814,-0.389060,5.740910,-0.285519,0.317175,-0.024490,4.311448,188.495636,0
0.118750,-170.611441,14.934889,152.958902,5.778168,4.243598,2.796358,-6.527836,-3.929247,-2.596520,6.388439,-0.289172,0.321943,-0.013287,0.398188,188.495519,0
0.119792,-111.346876,-35.587451,198.225001,6.615108,1.896864,4.657624,-5.859920,-1.650282,-4.321361,5.673311,-0.234377,0.332265,-0.013287,-5.471701,188.495671,0
0.120833,-54.554976,-104.013691,197.510985,6.592488,-0.627384,6.106157,-4.688270,0.930094,-5.974858,4.730482,-0.252642,0.328018,-0.035692,-10.934431,188.721739,0
0.121875,-5.215098,-168.525719,151.038447,5.800788,-2.995419,6.467298,-2.706913,3.253168,-6.306397,2.684720,-0.168623,0.325014,-0.046895,-12.811891,188.495785,0
0.122917,47.130541,-207.752414,87.848106,4.590618,-5.061681,5.677550,0.013256,5.348346,-5.672696,0.158649,-0.146705,0.312145,-0.039427,-12.687481,188.495667,0
0.123958,122.603540,-178.975701,35.614205,3.584028,-6.243924,4.201237,2.546856,6.553992,-4.170280,-2.253571,-0.117481,0.307637,-0.028224,-5.765761,188.495711,0
0.125000,184.544935,-128.815787,-15.794886,2.600058,-6.325580,2.197102,4.293137,6.737780,-2.302752,-4.053842,-0.022503,0.318350,0.024056,0.126748,188.721875,0
0.126042,192.813618,-65.874277,-77.667993,1.480368,-5.473514,-0.497567,5.938671,5.815166,0.408312,-5.597947,-0.022503,0.318220,-0.035692,0.895828,188.495682,0
0.127083,170.026534,-13.805581,-152.996591,0.021378,-4.071154,-2.632665,6.393898,4.502923,2.598985,-6.199223,0.017680,0.332787,-0.035692,4.447168,188.571113,0
0.128125,110.523777,36.306009,-198.385796,-0.826872,-1.696018,-4.422496,5.714789,2.190877,4.328023,-5.487654,-0.026156,0.329782,-0.043161,10.543258,188.495778,0
