1-Time,2-VGERA,3-VGERB,4-VGERC,5-VN,6-IGERAN,7-IGERBN,8-IGERCN,9-IGERAT,10-IGERBT,11-IGERCT,12-IN,13-IFD,14-IFAULT,15-VFAULT,16-Speed (rad/s),17-Active Power,18-Reactive Power,19-FAULT 
0.000000,-120.091943,-80.685466,189.792235,6.490698,5.929980,-0.299138,-5.483052,-5.917828,0.563589,5.246370,-0.227071,0.594544,-0.031958,-129.587639,188.495403,1569.292635,915.077020,0
0.001042,-38.391912,-135.520689,190.777084,6.513318,4.531170,2.089950,-6.259177,-4.557801,-1.815935,6.014865,-0.256295,0.576188,-0.028224,-56.954820,188.646123,1569.221101,914.359453,0
0.002083,38.703063,-176.088365,163.189016,6.004368,2.702777,4.221079,-6.333804,-2.793441,-4.061166,6.174968,-0.241683,0.625378,-0.039427,13.664818,188.570736,1569.880623,914.330407,0
0.003125,100.349554,-186.127596,95.505303,4.737648,0.061370,5.832324,-5.098721,-0.172631,-5.584566,5.043572,-0.190541,0.608263,-0.005818,74.410827,188.570664,1569.899731,914.489624,0
0.004167,147.466301,-188.471291,9.454167,3.109008,-2.256962,6.538732,-3.546471,2.271743,-6.428101,3.517256,-0.168623,0.603690,-0.050629,126.052286,188.495394,1571.090287,914.773694,0
0.005208,173.247804,-144.061888,-63.732387,1.683948,-4.234467,6.022817,-1.042722,4.172106,-5.953875,1.229561,-0.135746,0.597484,0.005384,165.094405,188.646107,1571.534279,914.933594,0
0.006250,197.736263,-58.758625,-118.182197,0.677358,-5.839192,4.852084,1.472222,5.896033,-4.866931,-1.317858,-0.069992,0.570244,-0.031958,191.016924,188.570772,1571.867329,914.789839,0
0.007292,165.523562,13.424776,-167.436932,-0.238752,-6.243924,3.113845,3.472236,6.337123,-3.150484,-3.203516,-0.062686,0.541109,-0.017021,174.662665,188.570977,1572.752393,914.896204,0
0.008333,119.291530,81.597318,-189.682198,-0.679842,-5.821441,0.502516,5.345383,5.851924,-0.535944,-5.131869,-0.022503,0.594871,-0.031958,134.738365,188.495338,1573.322176,913.938293,0
0.009375,39.372271,135.756010,-190.937879,-0.759012,-4.404880,-1.942131,6.166285,4.499248,1.860367,-5.918153,0.021333,0.610876,-0.002084,62.919867,188.646136,1574.561057,914.132663,0
0.010417,-37.200950,176.021664,-163.632955,-0.238752,-2.501931,-4.101041,6.192404,2.617264,4.109795,-6.032004,0.021333,0.615840,-0.024490,-8.480161,188.570779,1575.862873,913.524040,0
0.011458,-100.163170,186.918639,-94.792046,1.039278,0.157228,-5.668631,4.942396,-0.029276,5.662571,-4.840126,-0.022503,0.603886,-0.005818,-69.192240,188.570721,1577.125350,912.892298,0
0.012500,-147.245890,188.887826,-7.989962,2.701848,2.436506,-6.347259,3.341638,-2.367054,6.468336,-3.306694,-0.022503,0.600620,-0.028224,-122.564129,188.495387,1577.448739,912.015794,0
0.013542,-173.775998,143.475708,64.334849,4.070358,4.392710,-5.847218,0.893859,-4.307850,6.023487,-1.008325,-0.073645,0.596766,-0.054364,-160.316908,188.646192,1578.987003,911.751531,0
0.014583,-198.207744,59.163079,118.206061,5.133498,6.018737,-4.724108,-1.632278,-5.983992,4.911363,1.514188,-0.124787,0.598399,-0.017021,-186.307287,188.570691,1579.864225,910.859942,0
0.015625,-166.142495,-11.486048,168.162501,6.072228,6.412818,-2.934277,-3.647218,-6.439785,3.257866,3.403405,-0.175929,0.610810,-0.009553,-170.959618,188.570665,1581.543395,911.157584,0
0.016667,-121.044713,-80.298877,189.644508,6.445458,5.976134,-0.291200,-5.527828,-5.983992,0.550999,5.292622,-0.212459,0.616167,-0.020755,-130.322789,188.495287,1582.957071,911.277364,0
0.017708,-39.548847,-135.701903,191.109470,6.513318,4.541821,2.141542,-6.341267,-4.572504,-1.824329,6.078906,-0.241683,0.586575,-0.046895,-57.271500,188.570618,1584.304465,911.379534,0
0.018750,38.521583,-175.617209,163.496781,6.038298,2.660174,4.276640,-6.341267,-2.734629,-4.073756,6.185641,-0.234377,0.605454,-0.043161,14.219008,188.570723,1584.680321,910.478964,0
0.019792,100.179416,-186.961178,94.754356,4.692408,0.025867,5.887885,-5.117378,-0.069710,-5.626532,5.032899,-0.205153,0.609439,-0.017021,75.564447,188.570754,1585.821293,909.581765,0
0.020833,146.944546,-188.688748,9.244886,3.120318,-2.296015,6.602230,-3.490500,2.279095,-6.444888,3.492351,-0.183235,0.604735,-0.013287,126.255866,188.495405,1586.014777,909.191430,0
0.021875,173.542709,-144.110212,-63.129167,1.751808,-4.259318,6.014879,-0.994214,4.208863,-5.953875,1.176193,-0.139399,0.600685,-0.009553,165.207505,188.570736,1586.770942,908.312258,0
0.022917,197.747605,-59.918392,-117.812879,0.699978,-5.892446,4.848116,1.479684,5.892357,-4.854341,-1.349878,-0.059033,0.603233,-0.028224,191.175264,188.646078,1587.254742,907.427913,0
0.023958,165.943234,12.506628,-167.498485,-0.261372,-6.254575,3.074159,3.531938,6.278311,-3.171467,-3.267558,-0.029809,0.604670,-0.054364,175.262095,188.570790,1587.693591,906.645788,0
0.025000,119.257502,81.416104,-189.842235,-0.657222,-5.849843,0.419176,5.405085,5.903384,-0.506567,-5.160332,-0.015197,0.578671,-0.013287,134.727055,188.495273,1588.595034,906.746624,0
0.026042,38.623666,135.707687,-191.270266,-0.713772,-4.458134,-1.938163,6.151359,4.499248,1.914924,-5.925269,-0.007891,0.597288,-0.009553,62.376987,188.646132,1589.063269,906.527612,0
0.027083,-37.393772,176.287443,-163.817614,-0.216132,-2.519682,-4.108978,6.192404,2.613588,4.105598,-6.042678,0.039598,0.619629,-0.039427,-7.484881,188.570741,1589.229876,906.722701,0
0.028125,-99.766183,186.773668,-95.764584,1.084518,0.171429,-5.708317,4.905082,-0.021925,5.675161,-4.840126,0.014027,0.606368,-0.039427,-68.083860,188.570799,1589.595925,906.403819,0
0.029167,-147.336630,189.069040,-9.085606,2.667918,2.518163,-6.410757,3.360295,-2.425866,6.501910,-3.292462,-0.051727,0.603363,-0.020755,-121.896839,188.495191,1590.828254,905.668358,0
0.030208,-173.469751,144.115996,64.248674,4.070358,4.424662,-5.815469,0.867740,-4.326228,5.998307,-0.994093,-0.080951,0.591866,0.005384,-159.875818,188.570725,1591.047939,905.032023,0
0.031250,-198.366539,58.812733,117.972159,5.110878,6.011636,-4.712203,-1.624816,-5.972964,4.873593,1.531978,-0.172276,0.586640,-0.031958,-186.974577,188.570658,1590.822878,904.442106,0
0.032292,-166.448743,-11.691423,167.510038,6.015678,6.444770,-2.969994,-3.650949,-6.395676,3.140359,3.367827,-0.183235,0.601142,-0.013287,-170.009578,188.570859,1589.968323,902.821961,0
0.033333,-120.681753,-79.960611,190.186175,6.445458,5.972583,-0.243577,-5.546485,-6.013398,0.492246,5.331758,-0.227071,0.607675,-0.017021,-130.786499,188.495472,1590.996364,902.436014,0
0.034375,-40.342822,-135.303233,191.146402,6.479388,4.587975,2.149479,-6.300222,-4.609261,-1.845312,6.082464,-0.267254,0.615448,-0.020755,-58.323330,188.646181,1591.521843,902.330688,0
0.035417,37.489416,-176.136688,163.595266,6.015678,2.645973,4.308388,-6.348730,-2.727277,-4.090543,6.221220,-0.241683,0.620413,-0.050629,13.427308,188.570609,1592.398532,902.222291,0
0.036458,99.839141,-186.731641,95.037500,4.748958,-0.027387,5.907728,-5.072601,-0.051331,-5.634926,5.015110,-0.245336,0.603363,-0.039427,73.867947,188.570365,1592.520998,901.605194,0
0.037500,146.729038,-188.966608,8.924811,3.131628,-2.317316,6.594293,-3.512889,2.315852,-6.444888,3.456773,-0.186888,0.601600,-0.028224,125.611196,188.495541,1592.842555,900.944985,0
0.038542,173.134379,-144.158535,-63.289205,1.763118,-4.287721,6.078377,-1.038990,4.252972,-5.987448,1.186867,-0.139399,0.599705,-0.028224,165.083095,188.570826,1593.490093,901.177771,0
0.039583,197.963113,-60.317062,-117.677462,0.666048,-5.917298,4.871927,1.502072,5.943817,-4.871128,-1.417477,-0.095563,0.600946,-0.043161,191.084784,188.495481,1594.883512,900.698713,0
0.040625,166.124714,11.334780,-167.523107,-0.295302,-6.282977,3.078127,3.550595,6.337123,-3.167270,-3.285347,-0.022503,0.611660,-0.058098,175.047205,188.570729,1595.973062,900.501207,0
0.041667,120.119532,80.630845,-189.928410,-0.702462,-5.846293,0.407270,5.434936,5.910736,-0.447814,-5.235047,0.014027,0.601273,-0.035692,134.625265,188.495255,1597.603684,899.407052,0
0.042709,38.396816,135.478150,-191.417993,-0.713772,-4.390679,-2.029440,6.192404,4.513951,1.969481,-5.943058,0.035945,0.585660,-0.024490,61.924587,188.570732,1598.297363,899.169416,0
0.043765,-39.537505,175.308890,-163.620644,-0.170892,-2.423825,-4.196287,6.166285,2.495964,4.218909,-6.046236,0.014027,0.607740,-0.046895,-10.165351,188.570839,1599.157045,897.818069,0
0.044797,-99.856923,187.860949,-94.201137,1.118448,0.288588,-5.783720,4.908813,-0.124846,5.784275,-4.872146,-0.037115,0.608916,-0.039427,-69.045210,188.570649,1601.194106,897.730173,0
0.045833,-147.223205,189.153606,-9.824242,2.667918,2.535914,-6.458380,3.311787,-2.514084,6.556467,-3.310252,-0.026156,0.607218,-0.050629,-122.360549,188.495361,1602.838967,897.314531,0
0.046875,-174.207013,144.067672,63.337690,4.013808,4.495668,-5.878966,0.789381,-4.396068,6.031880,-0.986978,-0.117481,0.596243,-0.050629,-160.452628,188.570801,1604.202121,897.198991,0
0.047917,-198.570704,59.066432,117.553599,5.110878,6.057790,-4.668548,-1.703174,-6.020749,4.865200,1.588903,-0.139399,0.576188,-0.024490,-186.556107,188.495383,1605.288422,896.458427,0
0.048958,-166.358003,-12.259225,167.657766,6.072228,6.498025,-2.906497,-3.699457,-6.428757,3.203309,3.463889,-0.172276,0.581022,-0.028224,-171.095338,188.570727,1606.534499,897.115381,0
0.050000,-120.988001,-80.093501,189.989205,6.479388,6.022287,-0.203891,-5.598724,-6.028101,0.492246,5.385126,-0.212459,0.613293,0.001650,-130.967459,188.495399,1607.334384,897.157157,0
0.051042,-40.410877,-135.109938,191.380304,6.547248,4.559573,2.232819,-6.337536,-4.601910,-1.975410,6.139389,-0.234377,0.619956,-0.039427,-58.888830,188.495416,1609.210332,896.107806,0
0.052083,36.502618,-175.701776,163.976894,5.993058,2.617570,4.340137,-6.363655,-2.723601,-4.195460,6.246125,-0.234377,0.619499,-0.017021,12.952288,188.495481,1610.827029,895.270956,0
0.053125,99.147249,-187.323605,95.283712,4.692408,-0.087742,5.927571,-5.132303,-0.010898,-5.689483,5.000878,-0.219765,0.601469,-0.035692,74.806677,188.495412,1611.948090,894.499059,0
0.054167,146.377421,-189.051175,8.850947,3.109008,-2.395422,6.630010,-3.483038,2.400394,-6.512035,3.431868,-0.164970,0.597876,-0.073035,125.679056,188.495401,1613.439309,893.824260,0
0.055208,173.338544,-143.844432,-63.092235,1.774428,-4.326774,6.090282,-0.968094,4.315460,-5.991645,1.140615,-0.150358,0.597876,-0.024490,165.207505,188.495414,1614.309846,893.161225,0
0.056250,198.053853,-59.966715,-117.246591,0.677358,-5.952801,4.860021,1.558043,5.998954,-4.866931,-1.428151,-0.099216,0.599640,-0.046895,191.288364,188.495459,1614.913096,893.054455,0
0.057292,166.555729,10.766978,-167.670834,-0.261372,-6.368184,3.078127,3.621491,6.337123,-3.171467,-3.345830,-0.033462,0.620021,-0.054364,175.714495,188.570767,1615.875812,892.596813,0
0.058333,120.834110,80.038881,-190.174622,-0.691152,-5.864044,0.395365,5.505832,5.929114,-0.460404,-5.238605,0.014027,0.597811,-0.035692,135.450895,188.495378,1616.353900,892.613179,0
0.059375,39.224819,135.091561,-191.701137,-0.770322,-4.401330,-2.045314,6.196136,4.547032,1.994662,-5.975079,0.010374,0.570962,-0.013287,61.879347,188.495303,1617.343712,892.534999,0
0.060417,-37.949555,175.961259,-163.965341,-0.250062,-2.494830,-4.212161,6.255838,2.617264,4.193729,-6.060467,0.035945,0.584419,-0.046895,-7.722391,188.495354,1617.529105,893.771105,0
0.061458,-99.006235,187.184419,-95.703031,1.107138,0.238884,-5.779752,4.961052,-0.102791,5.742308,-4.857915,-0.007891,0.606368,-0.050629,-67.122510,188.495347,1617.037500,893.027234,0
0.062500,-146.928300,189.407305,-10.107386,2.690538,2.535914,-6.466317,3.315518,-2.514084,6.627810,-3.278231,-0.004238,0.604278,-0.043161,-121.636709,188.512782,1617.903472,892.792424,0
0.063542,-173.798683,144.865012,62.709849,4.013808,4.577324,-5.882935,0.822963,-4.436501,6.040274,-0.951399,-0.077298,0.600816,-0.050629,-159.909748,188.495428,1618.799178,891.875980,0
0.064583,-198.582047,60.008742,117.258144,5.088258,6.125245,-4.612988,-1.759145,-6.064858,4.881986,1.645829,-0.164970,0.591866,-0.031958,-187.110297,188.495300,1620.102855,891.245204,0
0.065625,-166.562168,-12.114255,167.140720,6.060918,6.487374,-2.854905,-3.736771,-6.483894,3.190719,3.492351,-0.201500,0.595002,-0.031958,-169.941718,188.419943,1620.970372,891.050446,0
0.066667,-120.568328,-79.972692,190.580114,6.535938,6.029388,-0.239609,-5.613650,-5.983992,0.454475,5.378010,-0.238030,0.589776,-0.009553,-130.797809,188.495296,1620.796829,890.353640,0
0.067708,-40.172685,-134.590459,191.675758,6.592488,4.524070,2.244725,-6.352461,-4.576179,-1.967016,6.121600,-0.267254,0.608851,-0.050629,-59.363850,188.495369,1620.419968,889.950038,0
0.068750,36.105631,-175.991717,164.186175,6.049608,2.621121,4.411571,-6.344998,-2.639059,-4.191264,6.235451,-0.238030,0.618976,-0.017021,11.629018,188.495332,1620.637074,888.813321,0
0.069792,98.591466,-186.912855,96.305493,4.715028,-0.112594,5.975194,-5.121109,0.022184,-5.744040,5.007994,-0.219765,0.605323,-0.039427,72.714327,188.419989,1621.719139,888.038598,0
0.070834,146.626956,-189.268631,9.232576,3.075078,-2.409624,6.618104,-3.453187,2.426125,-6.537215,3.385616,-0.175929,0.598137,-0.035692,125.204036,188.495347,1622.389014,887.389692,0
0.071875,173.191092,-144.086050,-63.104546,1.785738,-4.369377,6.070440,-0.975557,4.355893,-6.000038,1.101478,-0.102869,0.598660,-0.061832,165.162265,188.420104,1623.114026,886.818187,0
0.072917,198.326073,-59.604288,-116.766478,0.722598,-5.995405,4.871927,1.628939,5.995278,-4.816571,-1.474403,-0.088257,0.597353,-0.002084,191.197884,188.420045,1623.154602,885.757259,0
0.073959,166.533044,10.742816,-167.449243,-0.238752,-6.368184,3.078127,3.655073,6.381232,-3.129500,-3.352946,-0.029809,0.610222,-0.017021,175.556155,188.419989,1623.639629,885.399319,0
0.075000,121.435262,79.350270,-190.346970,-0.702462,-5.895997,0.383459,5.505832,5.962196,-0.435223,-5.274183,0.006721,0.609700,-0.020755,135.971155,188.495459,1624.736025,885.057455,0
0.076042,40.381754,134.898266,-191.922728,-0.792942,-4.358726,-2.128655,6.259569,4.455139,2.024038,-5.943058,0.014027,0.622308,-0.031958,62.750217,188.420034,1624.742588,883.248845,0
0.077084,-37.348402,175.852531,-164.322349,-0.272682,-2.420274,-4.247878,6.222255,2.551100,4.235696,-6.092488,0.014027,0.614534,-0.039427,-8.412301,188.471862,1625.838072,882.243651,0
0.078125,-98.734015,187.728060,-95.259849,1.084518,0.295688,-5.811500,4.916276,-0.161603,5.822045,-4.854357,-0.011544,0.610745,-0.024490,-67.439190,188.475382,1627.200754,881.715974,0
0.079167,-146.485942,189.612681,-9.935038,2.701848,2.599819,-6.513940,3.300593,-2.539814,6.623614,-3.288905,-0.044421,0.602253,-0.013287,-121.862909,188.495173,1627.394468,881.541345,0
0.080209,-174.104931,144.671718,62.057387,4.025118,4.570223,-5.890872,0.744604,-4.469583,6.065454,-0.926494,-0.066339,0.604213,-0.020755,-160.339528,188.355362,1628.128233,881.235057,0
0.081250,-198.865609,61.277237,116.728788,5.076948,6.121695,-4.672517,-1.766608,-6.134697,4.911363,1.660060,-0.128440,0.597941,-0.028224,-186.612657,188.369763,1629.641812,881.063516,0
0.082292,-166.925128,-10.966569,167.436175,6.049608,6.490924,-2.839031,-3.796473,-6.491245,3.123572,3.517256,-0.179582,0.595002,-0.028224,-171.242368,188.424655,1630.428179,879.826781,0
0.083334,-121.056056,-79.634427,190.457008,6.479388,5.997435,-0.172143,-5.662158,-5.954586,0.433492,5.406473,-0.234377,0.591866,-0.028224,-130.707329,188.495486,1630.820988,879.038394,0
0.084375,-39.503477,-134.614621,192.008145,6.547248,4.495668,2.304253,-6.400969,-4.510016,-2.004787,6.146505,-0.234377,0.592193,-0.031958,-58.719180,188.420014,1631.191638,878.262992,0
0.085417,36.491276,-175.701776,164.395455,6.072228,2.617570,4.439352,-6.374849,-2.661114,-4.203854,6.253240,-0.278213,0.607087,-0.024490,11.764738,188.344777,1631.408331,878.640827,0
0.086466,98.568781,-187.963893,95.271402,4.681098,-0.158747,5.995036,-5.020362,0.099375,-5.760827,4.961742,-0.234377,0.609112,-0.028224,74.376897,188.420173,1631.868125,877.773635,0
0.087503,146.411448,-189.256550,9.934280,3.086388,-2.484179,6.626041,-3.400948,2.418773,-6.491051,3.438984,-0.201500,0.600620,-0.017021,125.577266,188.495694,1631.459447,877.941002,0
0.088542,173.259147,-144.448477,-62.575190,1.729188,-4.408430,6.050597,-0.919587,4.359569,-6.025218,1.129941,-0.135746,0.593891,-0.009553,164.992615,188.420189,1631.807161,878.257589,0
0.089583,198.223990,-59.362670,-116.372538,0.733908,-5.952801,4.863990,1.651327,6.009981,-4.799784,-1.442382,-0.073645,0.589972,-0.039427,191.503254,188.269418,1631.512792,878.298794,0
0.090625,166.896004,11.044838,-166.882955,-0.261372,-6.350432,3.101939,3.606565,6.381232,-3.100123,-3.306694,-0.059033,0.587489,-0.009553,176.019865,188.420151,1630.985128,878.145047,0
0.091667,121.299152,78.927438,-190.346970,-0.713772,-5.871145,0.391396,5.494638,5.954845,-0.481387,-5.224373,0.010374,0.608328,-0.039427,136.593205,188.495696,1630.062256,878.502549,0
0.092708,41.493319,134.402949,-191.910417,-0.725082,-4.404880,-2.069126,6.214793,4.517626,2.003055,-5.960848,0.024986,0.611856,-0.035692,63.813357,188.420119,1630.519875,878.954948,0
0.093750,-35.941932,176.214958,-164.223864,-0.250062,-2.441576,-4.224067,6.267032,2.562127,4.231499,-6.046236,0.021333,0.613554,-0.002084,-7.077721,188.344768,1630.287130,878.343645,0
0.094792,-98.405083,187.220662,-96.109281,1.050588,0.245985,-5.712286,4.920007,-0.102791,5.754898,-4.843684,0.003068,0.600358,-0.005818,-66.523080,188.420157,1629.135072,878.397544,0
0.095833,-146.168352,190.023431,-9.824242,2.690538,2.543015,-6.454411,3.349101,-2.473650,6.569057,-3.278231,-0.059033,0.601796,-0.046895,-121.014659,188.495727,1627.976618,878.404138,0
0.096875,-173.220216,145.396572,62.500568,4.059048,4.516969,-5.890872,0.837889,-4.418122,6.065454,-1.001209,-0.066339,0.600097,-0.013287,-159.389488,188.344853,1627.122419,879.260527,0
0.097917,-198.740842,61.784635,116.642614,5.088258,6.157198,-4.692360,-1.729294,-6.068534,4.915560,1.610250,-0.157664,0.598529,-0.020755,-187.291257,188.269406,1626.078825,879.485250,0
0.098958,-167.651048,-9.480618,166.832955,6.072228,6.476723,-2.882686,-3.733040,-6.476542,3.148752,3.456773,-0.197847,0.613227,-0.020755,-170.631628,188.420267,1625.700852,879.332375,0
0.100000,-121.192166,-78.728359,190.789395,6.479388,5.976134,-0.188017,-5.606187,-5.995019,0.450279,5.367337,-0.216112,0.605715,-0.024490,-130.707329,188.495624,1625.618596,879.639036,0
0.101042,-39.809725,-134.070981,192.020455,6.592488,4.527620,2.197102,-6.341267,-4.528395,-1.912459,6.061117,-0.241683,0.580369,-0.028224,-58.707870,188.344780,1623.884959,880.037908,0
0.102083,36.253083,-176.233336,164.075379,6.015678,2.606920,4.379823,-6.393506,-2.664789,-4.170280,6.224778,-0.256295,0.600228,-0.020755,11.301028,188.269369,1623.283477,880.113640,0
0.103125,98.115081,-186.357133,97.696591,4.771578,-0.066440,5.927571,-5.091258,-0.043979,-5.655909,5.040015,-0.201500,0.609373,-0.046895,71.990487,188.420244,1621.785702,881.383576,0
0.104167,146.400106,-189.691463,11.288447,3.086388,-2.370570,6.570481,-3.494232,2.356285,-6.478461,3.474562,-0.194194,0.605650,-0.017021,124.966526,188.495694,1621.548309,881.771719,0
0.105208,172.737392,-145.402868,-62.304356,1.695258,-4.319673,6.042659,-1.020334,4.264000,-6.025218,1.201098,-0.143052,0.595198,-0.020755,164.246155,188.344740,1620.436911,882.521707,0
0.106250,198.360100,-60.449952,-116.200190,0.699978,-5.920849,4.856053,1.561774,6.002629,-4.808177,-1.396130,-0.084604,0.541958,-0.043161,191.412774,188.268518,1620.402561,882.720190,0
0.107292,166.998087,11.310618,-166.365910,-0.238752,-6.300728,3.074159,3.539400,6.344474,-3.142090,-3.313810,-0.029809,0.590756,-0.028224,175.624015,188.420043,1619.970699,882.895697,0
0.108333,121.026932,78.939519,-190.420834,-0.691152,-5.899547,0.446956,5.461056,5.943817,-0.498174,-5.231489,0.024986,0.595786,-0.054364,136.219975,188.420710,1619.819879,883.028522,0
0.109375,41.493319,134.125088,-191.824243,-0.747702,-4.440383,-2.021503,6.184942,4.491896,1.961088,-5.946616,0.010374,0.617996,0.001650,64.605057,188.344706,1619.143474,882.923410,0
0.110417,-34.853052,176.299524,-164.236175,-0.227442,-2.484179,-4.140727,6.181210,2.591533,4.160155,-6.053352,-0.004238,0.615644,-0.024490,-6.647941,188.269189,1618.554218,883.265160,0
