1-Time,2-VGERA,3-VGERB,4-VGERC,5-VN,6-IGERAN,7-IGERBN,8-IGERCN,9-IGERAT,10-IGERBT,11-IGERCT,12-IN,13-IFD,14-IFAULT,15-VFAULT,16-Speed (rad/s),17-Active Power,18-Reactive Power,19-FAULT 
0.000000,-156.936261,170.559628,7.101591,0.528196,1.000094,-5.047260,3.546459,-0.980633,4.965975,-3.622004,-0.076271,0.593180,-0.115740,155.900490,188.420019,1018.250012,989.289376,0
0.001042,-174.360746,122.534282,78.553421,1.868052,2.988948,-4.902442,1.502592,-2.750609,4.868743,-1.627311,-0.156487,0.580296,-0.123173,174.386659,188.495376,1019.345700,989.569894,0
0.002083,-189.491346,42.221903,132.579753,2.960204,4.434720,-4.359374,-0.329318,-4.259441,4.412175,0.295466,-0.185656,0.586773,-0.112023,183.100602,188.344364,1020.165177,990.041075,0
0.003125,-154.676276,-26.603856,173.190640,3.703318,4.999819,-3.039921,-2.081744,-4.781729,3.127019,2.006284,-0.233057,0.591734,-0.119457,149.674636,188.495461,1021.023609,989.942711,0
0.004167,-105.160004,-97.461502,179.643177,3.860949,4.959455,-0.940060,-3.856880,-4.759967,1.000593,3.932846,-0.269518,0.582294,-0.100873,98.753234,188.420057,1021.564692,990.126176,0
0.005208,-22.139452,-145.991884,178.950532,3.872208,4.130154,0.910392,-4.708491,-4.009178,-0.787634,4.735265,-0.287749,0.597314,-0.108307,16.488656,188.495432,1022.065188,990.365475,0
0.006250,56.236830,-169.599354,150.467014,3.309243,2.695390,2.660277,-4.897738,-2.667188,-2.613908,5.026710,-0.262226,0.590907,-0.152907,-59.516294,188.269196,1022.273193,989.661045,0
0.007292,118.205620,-179.242007,73.692752,1.777978,0.710205,4.317638,-4.413266,-0.759386,-4.140030,4.511951,-0.273164,0.592147,-0.108307,-117.406599,188.420139,1021.194793,989.086166,0
0.008333,156.715766,-170.480230,-7.237382,0.235454,-1.025455,4.981387,-3.414042,0.996082,-4.968618,3.546777,-0.200241,0.595730,-0.104590,-155.144503,188.419994,1021.131640,988.149804,0
0.009375,174.309750,-122.642804,-78.239599,-1.149440,-3.006971,4.904956,-1.381530,2.758804,-4.900978,1.559655,-0.182010,0.584706,-0.123173,-173.765772,188.495437,1021.643480,988.687380,0
0.010417,189.451650,-42.107269,-132.594027,-2.230333,-4.434396,4.321661,0.344401,4.238620,-4.402134,-0.336628,-0.156487,0.584155,-0.115740,-182.457199,188.269288,1021.985081,987.763195,0
0.011458,155.269375,26.025534,-172.974032,-3.029743,-5.050867,3.070594,2.183881,4.793551,-3.222666,-2.020951,-0.123671,0.589391,-0.115740,-149.391499,188.420090,1022.699420,987.397644,0
0.012500,105.990401,96.918415,-179.548086,-3.153596,-5.006833,0.950620,3.943877,4.800805,-1.083558,-3.932373,-0.101794,0.577333,-0.119457,-98.717780,188.419983,1022.415437,986.964945,0
0.013542,23.229748,145.906852,-178.588104,-3.153596,-4.166524,-0.915924,4.852262,3.995611,0.632802,-4.863482,-0.043455,0.590424,-0.108307,-16.329360,188.495510,1022.253790,988.387191,0
0.014583,-55.349933,169.913653,-150.262557,-2.613149,-2.702404,-2.641672,5.030154,2.693518,2.518261,-5.067872,-0.065333,0.576231,-0.089723,60.114664,188.269281,1021.415833,988.604725,0
0.015625,-118.064518,178.792880,-73.378931,-1.059366,-0.750245,-4.282942,4.477554,0.771208,4.166980,-4.575822,-0.054394,0.590011,-0.123173,118.061261,188.420262,1020.751031,988.678098,0
0.016667,-156.382565,170.806273,8.438275,0.584492,0.992755,-5.035191,3.557814,-0.962498,4.940610,-3.595509,-0.058040,0.593249,-0.115740,155.382607,188.420367,1020.063998,988.495283,0
0.017708,-173.445452,122.299382,79.367583,1.969386,2.974270,-4.934623,1.502592,-2.732474,4.872971,-1.661376,-0.109087,0.584912,-0.112023,173.677384,188.495718,1019.406425,988.965824,0
0.018750,-189.480046,41.810828,132.664815,2.903908,4.431051,-4.492124,-0.253619,-4.219544,4.458677,0.208411,-0.185656,0.568445,-0.108307,183.213185,188.269499,1018.246362,990.197975,0
0.019792,-154.744076,-25.852175,173.032668,3.703318,5.010827,-3.132444,-2.062819,-4.778102,3.207341,1.960864,-0.211179,0.594283,-0.108307,149.866028,188.344921,1017.736350,991.071270,0
0.020833,-105.917099,-96.510156,179.898363,3.849689,4.985141,-1.016492,-3.849310,-4.792610,1.085143,3.902566,-0.233057,0.593594,-0.108307,99.834033,188.420169,1017.446743,991.967081,0
0.021875,-24.071739,-145.627788,178.476617,3.827171,4.174188,0.821892,-4.685781,-4.059956,-0.724221,4.769330,-0.251287,0.598899,-0.082290,17.873430,188.495664,1017.654507,992.662117,0
0.022917,55.005138,-170.139624,150.527772,3.286724,2.765110,2.620049,-4.893953,-2.743355,-2.503993,5.038065,-0.276811,0.601242,-0.082290,-59.212319,188.269518,1016.611156,993.796029,0
0.023958,118.635017,-178.255426,74.482611,1.789237,0.761578,4.245229,-4.477609,-0.831926,-4.114665,4.580080,-0.247641,0.592836,-0.112023,-117.924482,188.269510,1016.073640,995.030095,0
0.025000,156.489767,-170.961775,-7.869268,0.167898,-0.977752,5.025637,-3.448106,0.909034,-4.972845,3.607337,-0.225764,0.591045,-0.130607,-154.570329,188.420238,1015.232323,996.422567,0
0.026042,173.191057,-122.278708,-79.284643,-1.194477,-2.944590,4.892887,-1.453444,2.697145,-4.867158,1.616429,-0.229410,0.580503,-0.100873,-172.775039,188.495694,1013.591013,996.891462,0
0.027083,189.429050,-40.885788,-132.314538,-2.185296,-4.408709,4.442343,0.314122,4.227739,-4.440182,-0.234433,-0.134610,0.577885,-0.078573,-182.536007,188.269566,1012.378993,998.253129,0
0.028125,154.681779,26.706745,-172.706695,-2.995965,-5.058206,3.114844,2.153602,4.764535,-3.252258,-1.994456,-0.130964,0.589046,-0.123173,-149.076266,188.269469,1011.426288,998.572613,0
0.029167,106.046901,96.671770,-179.645300,-3.086040,-5.003164,0.970733,3.951447,4.782670,-1.121605,-3.958868,-0.094502,0.589529,-0.108307,-99.640963,188.420414,1011.473219,998.712388,0
0.030208,24.653539,145.671952,-178.029127,-3.142336,-4.166524,-0.907878,4.810628,4.053643,0.717352,-4.818062,-0.061686,0.571064,-0.123173,-17.691618,188.420273,1012.028053,998.202356,0
0.031250,-53.790543,170.019358,-150.371922,-2.601890,-2.750108,-2.649717,4.969595,2.722534,2.522488,-5.075442,-0.043455,0.593456,-0.093440,59.067640,188.269481,1012.368967,998.212422,0
0.032292,-118.008019,178.311335,-74.193093,-1.115662,-0.728228,-4.262829,4.553252,0.774835,4.082431,-4.617457,-0.039809,0.590631,-0.082290,118.218877,188.269505,1011.679545,998.362881,0
0.033333,-156.416465,170.864999,8.170938,0.494418,0.985416,-4.998987,3.535104,-0.958871,4.961748,-3.584154,-0.087210,0.585464,-0.082290,155.191215,188.420540,1011.933148,998.322961,0
0.034375,-173.547152,122.264147,79.489099,1.901830,2.922897,-4.854169,1.506377,-2.674442,4.805331,-1.638666,-0.112733,0.572993,-0.104590,173.542284,188.420211,1010.871734,997.616802,0
0.035417,-189.412247,40.624582,132.263810,2.937686,4.390687,-4.387533,-0.242264,-4.161512,4.369900,0.280326,-0.145548,0.546122,-0.097156,183.123119,188.269496,1010.195142,995.901400,0
0.036458,-154.450278,-27.449497,172.874696,3.759615,5.040183,-3.104285,-2.032540,-4.723697,3.156611,1.964649,-0.218472,0.570857,-0.093440,149.629603,188.269463,1009.383168,995.260079,0
0.037500,-105.126104,-97.156132,179.667481,3.883467,5.003489,-1.004424,-3.853095,-4.759967,1.085143,3.879856,-0.247641,0.576300,-0.093440,99.969133,188.420311,1008.573136,995.127481,0
0.038542,-23.992640,-145.815709,178.440162,3.827171,4.170518,0.821892,-4.689566,-4.034567,-0.660809,4.723910,-0.269518,0.595179,-0.112023,19.010521,188.420291,1007.424331,995.142467,0
0.039583,53.999445,-169.881234,150.843716,3.297983,2.798135,2.624072,-4.856103,-2.732474,-2.533585,5.056990,-0.295042,0.598141,-0.086006,-58.030195,188.269510,1008.174110,994.756150,0
0.040625,118.092621,-178.231936,75.260318,1.777978,0.746900,4.221093,-4.424620,-0.842807,-4.135803,4.568725,-0.243995,0.595799,-0.093440,-117.507924,188.194215,1008.538313,994.493895,0
0.041667,156.806165,-170.679895,-7.176623,0.179157,-0.944727,4.921047,-3.406472,0.912661,-4.951708,3.542992,-0.236703,0.589460,-0.104590,-154.682912,188.420426,1008.442322,993.492268,0
0.042708,173.643054,-122.631059,-78.907941,-1.205737,-2.959268,4.876797,-1.438304,2.711653,-4.879840,1.623999,-0.182010,0.568308,-0.108307,-172.865106,188.495617,1008.896218,993.652513,0
0.043750,189.485549,-40.580418,-132.095808,-2.196555,-4.386692,4.382002,0.306552,4.242247,-4.431727,-0.279853,-0.149195,0.545019,-0.074856,-182.513490,188.269472,1009.346037,993.204131,0
0.044791,154.738279,27.904736,-172.184173,-3.018484,-4.977478,3.106799,2.108182,4.706503,-3.226893,-1.975531,-0.101794,0.604893,-0.067423,-148.997458,188.194114,1008.344950,992.747210,0
0.045833,104.803909,97.223785,-179.560238,-3.142336,-5.021511,1.010960,3.936307,4.815313,-1.180790,-3.924803,-0.094502,0.569410,-0.115740,-98.954205,188.420296,1007.359924,993.901910,0
0.046875,23.410547,145.671952,-178.320767,-3.052262,-4.214227,-0.843515,4.852262,4.031881,0.645484,-4.814277,-0.065333,0.594765,-0.097156,-17.995593,188.495825,1006.394563,994.383690,0
0.047917,-53.880942,170.383453,-150.602804,-2.545593,-2.819828,-2.573285,5.045294,2.744296,2.501351,-5.098152,-0.061686,0.604480,-0.078573,58.313332,188.269669,1006.404130,995.005767,0
0.048958,-117.736821,177.724084,-75.809265,-1.138181,-0.783270,-4.262829,4.541898,0.843748,4.073976,-4.628812,-0.061686,0.594834,-0.067423,118.038744,188.269518,1006.208274,995.358500,0
0.050000,-156.766763,170.853254,6.773496,0.449381,0.934043,-4.998987,3.542674,-0.944363,4.965975,-3.652283,-0.072625,0.593043,-0.082290,155.360090,188.420305,1006.427991,996.058056,0
0.051041,-173.083855,123.168513,79.197459,1.879312,2.886203,-4.926578,1.555582,-2.649053,4.889881,-1.691656,-0.112733,0.580641,-0.100873,173.035660,188.495685,1006.727424,997.219463,0
0.052083,-189.570446,41.411497,132.336720,2.903908,4.357661,-4.415692,-0.185490,-4.186901,4.399492,0.238691,-0.138256,0.576644,-0.108307,183.348285,188.269527,1007.014784,997.900943,0
0.053125,-154.585877,-27.390772,172.315719,3.692059,4.988811,-3.112330,-2.024970,-4.680173,3.215796,1.888949,-0.207533,0.537165,-0.100873,149.348145,188.269483,1005.660494,998.456682,0
0.054166,-104.244710,-97.214857,180.129244,3.872208,4.985141,-1.056719,-3.815245,-4.745459,1.085143,3.883641,-0.240349,0.584568,-0.123173,99.012175,188.420166,1005.458231,998.481566,0
0.055208,-22.478450,-145.486848,178.367252,3.838430,4.207213,0.757529,-4.685781,-4.038194,-0.639672,4.701200,-0.265872,0.584361,-0.082290,18.121113,188.495676,1004.601263,998.718776,0
0.056250,54.835639,-170.421505,150.588530,3.331761,2.823822,2.579822,-4.939372,-2.757863,-2.503993,5.068345,-0.273164,0.602689,-0.097156,-57.883837,188.269422,1004.157306,999.557336,0
0.057292,118.250820,-177.386296,76.487636,1.868052,0.842306,4.180866,-4.470040,-0.904466,-4.055481,4.595220,-0.236703,0.599519,-0.100873,-117.710574,188.269447,1003.054899,1000.031954,0
0.058333,157.020864,-170.985265,-5.645513,0.246713,-0.908032,4.961274,-3.482171,0.829240,-4.964390,3.645187,-0.251287,0.600759,-0.104590,-154.896820,188.420238,1002.785424,1001.556294,0
0.059375,173.134557,-123.688110,-78.312509,-1.239515,-2.911564,4.872774,-1.461014,2.642740,-4.892523,1.658064,-0.211179,0.571821,-0.089723,-172.335965,188.495794,1002.230945,1001.813237,0
0.060416,189.587249,-42.201230,-132.278083,-2.230333,-4.372015,4.386024,0.302767,4.213231,-4.465547,-0.238218,-0.145548,0.584499,-0.071140,-182.794948,188.269559,1002.126200,1002.278558,0
0.061458,154.772179,26.882920,-172.390752,-2.973447,-4.992155,3.138981,2.047623,4.724638,-3.286078,-1.945251,-0.083563,0.587324,-0.089723,-148.794808,188.269579,1002.112347,1003.033052,0
0.062500,105.222006,97.118080,-179.742513,-3.131077,-4.995825,1.039119,3.909813,4.800805,-1.151197,-3.902093,-0.083563,0.583810,-0.100873,-98.413805,188.420394,1002.100546,1002.572901,0
0.063542,22.630852,145.683697,-178.187099,-3.142336,-4.199549,-0.783174,4.803058,4.064524,0.615892,-4.761287,-0.043455,0.551565,-0.093440,-16.689627,188.495750,1001.061281,1003.047731,0
0.064583,-55.010935,170.242513,-150.456984,-2.545593,-2.841844,-2.585353,5.026370,2.744296,2.480213,-5.071657,-0.090856,0.574233,-0.112023,58.910023,188.269570,1000.339182,1003.139709,0
0.065625,-118.143618,177.735829,-75.177378,-1.115662,-0.805287,-4.254783,4.545682,0.800224,4.035928,-4.583392,-0.061686,0.594834,-0.086006,118.241394,188.344983,999.793271,1002.381779,0
0.066666,-156.811962,170.994194,6.785648,0.528196,0.919365,-4.990941,3.561599,-0.915347,4.944838,-3.720413,-0.087210,0.598968,-0.082290,155.720356,188.420341,999.335831,1003.274669,0
0.067708,-173.298553,123.697038,78.444056,1.856793,2.882533,-4.894396,1.582076,-2.649053,4.839151,-1.740861,-0.141902,0.586428,-0.093440,173.249568,188.495774,999.042745,1003.160675,0
0.068750,-189.468746,42.891369,132.385326,2.960204,4.335644,-4.403624,-0.215769,-4.186901,4.403720,0.151636,-0.171072,0.586842,-0.112023,183.348285,188.269572,998.708403,1003.711899,0
0.069792,-154.857075,-25.840430,172.765331,3.737096,4.988811,-3.140489,-1.964411,-4.705562,3.220023,1.873809,-0.222118,0.587600,-0.078573,149.562053,188.344829,999.214025,1003.768267,0
0.070833,-105.340802,-96.709821,179.801149,3.827171,4.941107,-1.028560,-3.777396,-4.730951,1.114735,3.834436,-0.225764,0.559695,-0.126890,99.124759,188.420546,998.663196,1003.632912,0
0.071875,-22.986947,-145.557318,178.549527,3.804652,4.174188,0.741438,-4.640362,-3.991043,-0.605852,4.686060,-0.284103,0.558799,-0.115740,17.333030,188.495964,998.292879,1003.212161,0
0.072917,55.253736,-170.057409,150.552075,3.297983,2.820152,2.523504,-4.852318,-2.743355,-2.444808,5.045635,-0.273164,0.574853,-0.086006,-58.953377,188.269819,997.340657,1003.044969,0
0.073958,118.522018,-177.797371,75.187408,1.856793,0.820289,4.160752,-4.432190,-0.879077,-4.051253,4.580080,-0.273164,0.593732,-0.115740,-117.800640,188.269756,997.110143,1002.962356,0
0.075000,156.580167,-170.891305,-6.812073,0.291750,-0.919041,4.921047,-3.512450,0.800224,-4.930570,3.648972,-0.214826,0.596488,-0.100873,-154.840528,188.420564,996.164548,1003.119255,0
0.076042,172.942459,-123.711600,-78.385419,-1.115662,-2.845514,4.896910,-1.521573,2.602843,-4.900978,1.733764,-0.174718,0.586842,-0.104590,-172.459806,188.495908,995.385867,1004.071802,0
0.077083,189.440350,-43.023380,-132.314538,-2.252852,-4.353667,4.430274,0.264918,4.147945,-4.507822,-0.173873,-0.171072,0.590976,-0.112023,-182.682365,188.345158,994.419990,1004.757551,0
0.078125,155.291975,25.250363,-172.427207,-3.007225,-4.962800,3.179208,2.051408,4.717384,-3.345263,-1.861981,-0.109087,0.594627,-0.097156,-149.245141,188.345209,993.828475,1005.406471,0
0.079167,106.171200,96.154989,-179.839726,-3.153596,-5.021511,1.047165,3.879533,4.775416,-1.239975,-3.849103,-0.090856,0.592767,-0.100873,-99.078046,188.420584,992.922259,1005.720508,0
0.080208,24.427540,145.307857,-178.150644,-3.119818,-4.206888,-0.738924,4.738714,4.060897,0.582072,-4.689372,-0.061686,0.595936,-0.108307,-17.432676,188.495948,992.240694,1005.172271,0
0.081250,-54.095641,170.465668,-150.323316,-2.579371,-2.882209,-2.541103,4.999875,2.787820,2.391436,-5.037592,-0.079917,0.584017,-0.108307,59.225256,188.420569,990.980760,1005.492648,0
0.082292,-118.256617,177.266029,-75.189530,-1.059366,-0.908032,-4.182374,4.575962,0.872764,3.985198,-4.613672,-0.065333,0.588082,-0.115740,118.444044,188.345071,989.905500,1006.381148,0
0.083333,-156.303466,171.229094,7.952208,0.516936,0.831298,-4.962782,3.633512,-0.831926,4.877198,-3.705273,-0.094502,0.588357,-0.104590,155.134924,188.420564,988.161698,1006.455466,0
0.084375,-172.134661,123.650058,79.452644,1.924349,2.831161,-4.906464,1.635065,-2.565632,4.856061,-1.797636,-0.141902,0.585739,-0.097156,172.225060,188.495982,986.727810,1007.384805,0
0.085417,-189.513946,42.585998,132.555450,2.960204,4.320967,-4.520283,-0.079512,-4.154258,4.450222,0.091076,-0.152841,0.588357,-0.100873,183.483385,188.345113,985.919343,1008.432435,0
0.086458,-154.981374,-25.100495,172.485843,3.737096,4.977802,-3.233012,-1.896282,-4.720070,3.325711,1.771614,-0.211179,0.584912,-0.100873,149.719669,188.345147,984.931156,1009.965311,0
0.087500,-106.176997,-95.582300,180.323671,3.894726,5.025505,-1.117060,-3.735762,-4.759967,1.207740,3.823081,-0.236703,0.570995,-0.097156,100.363174,188.420537,984.906966,1010.922873,0
0.088542,-25.020933,-145.193223,177.844730,3.827171,4.240238,0.677074,-4.613867,-4.092599,-0.533984,4.633070,-0.236703,0.608752,-0.082290,18.909196,188.496063,984.137061,1011.847936,0
0.089583,53.434448,-170.832580,150.576379,3.252946,2.856847,2.463163,-4.882598,-2.805014,-2.406761,5.038065,-0.273164,0.599519,-0.115740,-58.109003,188.420571,983.910486,1012.366559,0
0.090625,118.612418,-176.540655,76.378271,1.800497,0.893679,4.136616,-4.488964,-0.998768,-3.979386,4.599005,-0.254934,0.593112,-0.086006,-118.239715,188.420535,982.361327,1013.238878,0
0.091667,156.591467,-171.431576,-7.395353,0.212935,-0.812626,4.949206,-3.527590,0.771208,-4.892523,3.683037,-0.243995,0.586015,-0.082290,-154.547812,188.420595,981.722270,1013.788384,0
0.092708,171.857666,-123.641129,-79.321098,-1.171959,-2.797811,4.864728,-1.582132,2.515795,-4.858703,1.741334,-0.189302,0.579952,-0.104590,-171.300199,188.495948,980.059949,1013.639730,0
0.093750,189.745448,-41.766664,-132.363145,-2.151518,-4.353667,4.510729,0.196789,4.118929,-4.503594,-0.132238,-0.171072,0.578160,-0.126890,-182.986340,188.420542,979.094810,1014.122681,0
0.094792,154.941678,25.978554,-172.172021,-3.007225,-4.959130,3.239549,1.983279,4.713757,-3.387538,-1.827916,-0.120025,0.573957,-0.093440,-149.042491,188.420600,978.347096,1014.823441,0
0.095833,106.272899,96.002304,-180.034153,-3.176114,-5.025181,1.099460,3.826544,4.768162,-1.328752,-3.807468,-0.072625,0.586497,-0.082290,-100.136329,188.420567,977.388379,1015.638988,0
0.096875,25.636632,145.425307,-177.628122,-3.176114,-4.254591,-0.726856,4.716005,4.082659,0.505977,-4.693157,-0.061686,0.598486,-0.089723,-18.839967,188.495899,976.932866,1016.229135,0
0.097917,-52.615351,170.653588,-150.432681,-2.556853,-2.874870,-2.492831,4.973380,2.827717,2.353389,-5.086797,-0.065333,0.598210,-0.100873,58.189490,188.496056,977.131392,1016.898374,0
0.098958,-118.234017,176.843209,-76.027995,-1.138181,-0.922710,-4.150192,4.564607,0.945304,3.951379,-4.655307,-0.065333,0.592974,-0.108307,118.624177,188.420555,976.569926,1017.801522,0
0.100000,-156.450365,171.287819,7.757781,0.460640,0.860654,-4.962782,3.603233,-0.810164,4.860288,-3.690133,-0.079917,0.587048,-0.112023,155.067374,188.495962,976.247531,1017.662198,0
0.101042,-172.213761,123.391668,79.719981,1.901830,2.768780,-4.878305,1.638850,-2.551124,4.809558,-1.767356,-0.145548,0.574440,-0.097156,172.112477,188.495930,975.783564,1017.036747,0
0.102083,-189.581746,41.528947,132.336720,2.937686,4.280602,-4.435806,-0.121146,-4.074464,4.407947,0.125141,-0.167425,0.563416,-0.089723,183.483385,188.495948,974.748870,1016.151934,0
0.103125,-154.585877,-26.791776,172.388629,3.759615,4.919091,-3.220944,-1.854648,-4.647530,3.308801,1.767829,-0.225764,0.573406,-0.086006,149.539536,188.420614,973.579433,1015.827654,0
0.104167,-105.352102,-96.463176,179.983424,3.894726,4.996150,-1.145219,-3.739547,-4.778102,1.207740,3.789017,-0.247641,0.585464,-0.100873,100.351916,188.495977,972.881960,1016.246961,0
0.105208,-24.557636,-145.510338,177.978398,3.849689,4.269594,0.673052,-4.621437,-4.103480,-0.563577,4.674705,-0.258580,0.584568,-0.108307,19.809862,188.496000,973.562944,1016.541066,0
0.106250,52.948552,-170.609425,150.710047,3.297983,2.897211,2.443050,-4.893953,-2.859419,-2.402533,5.011570,-0.291395,0.600484,-0.078573,-57.365954,188.496225,973.230092,1016.771376,0
0.107292,118.341219,-176.799045,76.973703,1.811756,0.930374,4.116502,-4.504104,-0.962498,-4.030116,4.572510,-0.240349,0.600070,-0.108307,-117.879449,188.345205,974.199095,1016.105358,0
0.108333,156.975664,-171.043990,-6.569040,0.179157,-0.838312,4.921047,-3.542730,0.756700,-4.934798,3.705747,-0.269518,0.594283,-0.123173,-154.581587,188.495948,974.565795,1016.599350,0
0.109375,172.422662,-123.805560,-78.968700,-1.194477,-2.794141,4.896910,-1.582132,2.548438,-4.913660,1.752689,-0.185656,0.582983,-0.112023,-171.581657,188.495953,975.471048,1017.205182,0
0.110416,189.542049,-41.461294,-132.156567,-2.241592,-4.331650,4.406138,0.193004,4.147945,-4.533187,-0.128453,-0.174718,0.568790,-0.119457,-182.851240,188.495995,975.726142,1017.595542,0
