1-Time,2-VGERA,3-VGERB,4-VGERC,5-VN,6-IGERAN,7-IGERBN,8-IGERCN,9-IGERAT,10-IGERBT,11-IGERCT,12-IN,13-IFD,14-IFAULT,15-VFAULT,16-Speed (rad/s),17-Active Power,18-Reactive Power,19-FAULT 
0.000000,184.193317,-117.822165,-12.815720,2.622678,-5.146888,-0.315012,5.378966,5.804139,0.194280,-5.163890,-0.033462,0.197173,-0.031958,10.226578,188.439837,1005.628592,-1322.041282,0
0.001042,193.176578,-63.059427,-81.644318,1.355958,-3.787131,-2.866811,6.311808,4.275027,2.775247,-6.067583,0.003068,0.191489,-0.069301,-3.300181,188.513118,1005.368843,-1321.947358,0
0.002083,161.825906,-15.231128,-156.320455,-0.057792,-1.685367,-4.370905,5.565534,2.275419,4.353203,-5.462749,-0.007891,0.203509,-0.069301,-25.784461,188.516492,1003.867809,-1322.148224,0
0.003125,99.986594,32.536767,-207.298675,-1.019142,0.778526,-5.509888,4.192390,-0.242470,5.452737,-4.082304,-0.110175,0.198871,-0.061832,-44.253691,188.510081,1002.723576,-1322.307872,0
0.004167,54.446454,105.396699,-189.103599,-0.713772,3.210467,-6.045647,2.233421,-2.642735,6.124207,-2.228666,-0.088257,0.172480,-0.058098,-47.035951,188.436110,1002.121414,-1322.368575,0
0.005208,9.552837,181.119805,-139.184091,0.224958,4.996257,-5.513857,0.050570,-4.421798,5.666768,-0.161557,-0.164970,0.180907,-0.035692,-43.767361,188.511947,1002.109088,-1321.559225,0
0.006250,-45.174728,201.935203,-84.007955,1.310718,6.128796,-3.664497,-2.714376,-5.616417,3.883173,2.506828,-0.179582,0.179404,-0.061832,-25.852321,188.514150,1001.317076,-1322.223981,0
0.007292,-131.672636,173.871263,-34.765530,2.204208,6.554829,-1.862760,-4.751704,-6.050155,2.032432,4.499222,-0.227071,0.176856,-0.024490,-10.674301,188.516116,1001.632081,-1322.775168,0
0.008333,-184.540031,117.719221,13.061174,3.142938,5.280279,0.458862,-5.490515,-4.962133,-0.187619,5.338874,-0.248989,0.195539,-0.076769,-5.528251,188.576846,1001.376006,-1324.042003,0
0.009375,-193.738799,63.584690,82.025190,4.443588,3.945375,3.018599,-6.430820,-3.433021,-2.785371,6.260356,-0.263601,0.193318,-0.065566,8.484838,188.564626,1001.589645,-1324.775867,0
0.010417,-161.866373,15.526854,156.479735,5.812098,1.857811,4.522692,-5.695740,-1.473846,-4.321361,5.612828,-0.259948,0.208735,-0.039427,30.177418,188.496749,1001.767645,-1324.609525,0
0.011458,-100.140485,-32.313526,207.445645,6.796068,-0.680638,5.701361,-4.311402,1.088152,-5.530009,4.207478,-0.186888,0.218795,-0.061832,49.913367,188.561857,1001.636991,-1325.719633,0
0.012500,-54.441551,-105.233863,188.881251,6.502008,-3.112579,6.145843,-2.311388,3.521498,-6.138529,2.424997,-0.161317,0.207037,-0.046895,52.107507,188.495568,1001.820157,-1325.574206,0
0.013542,-9.241686,-181.126102,139.294129,5.563278,-4.834464,5.594209,-0.206895,5.326291,-5.613942,0.240479,-0.132093,0.185283,-0.076769,46.735257,188.572255,1001.178684,-1325.970941,0
0.014583,45.111576,-201.397859,84.130303,4.511448,-5.988304,3.844064,2.550587,6.498856,-3.859725,-2.335402,-0.062686,0.163791,-0.039427,32.914438,188.489200,1000.583494,-1326.332827,0
0.015625,131.393978,-173.913802,34.900189,3.584028,-6.400136,1.966924,4.580453,6.939946,-1.992197,-4.356259,-0.026156,0.178947,-0.080503,16.854238,188.496503,1000.666359,-1326.503161,0
0.016667,184.091235,-117.701356,-13.037311,2.656608,-5.107835,-0.322949,5.367772,5.782084,0.211067,-5.128311,-0.033462,0.197042,-0.039427,10.407538,188.494073,1000.262757,-1326.038837,0
0.017708,193.380743,-63.156074,-81.976705,1.344648,-3.730327,-2.835063,6.319271,4.249297,2.825607,-6.049794,-0.018850,0.194494,-0.058098,-3.537691,188.564288,999.768979,-1326.479261,0
0.018750,161.633084,-14.929105,-156.406629,-0.012552,-1.678266,-4.335187,5.528221,2.246013,4.369990,-5.444960,-0.007891,0.208539,-0.087972,-26.010661,188.503572,999.378926,-1326.547342,0
0.019792,99.986594,32.875032,-207.249432,-0.996522,0.814029,-5.525762,4.106569,-0.220415,5.461130,-4.057400,-0.040768,0.179665,-0.054364,-44.434651,188.565656,999.407074,-1326.344673,0
0.020833,54.004097,105.650398,-188.906629,-0.713772,3.224668,-6.013898,2.207301,-2.613329,6.069650,-2.274918,-0.080951,0.161570,-0.050629,-48.042540,188.496474,999.795035,-1325.259370,0
0.021875,8.838260,181.083562,-139.110228,0.258888,4.932352,-5.434485,0.028181,-4.473258,5.553457,-0.104632,-0.117481,0.205795,-0.058098,-43.823911,188.569556,998.313320,-1325.409109,0
0.022917,-45.458290,201.838555,-83.946402,1.288098,6.082642,-3.648622,-2.688256,-5.583335,3.857993,2.457018,-0.186888,0.180907,-0.084238,-28.148251,188.491236,998.297181,-1324.499293,0
0.023958,-131.627266,173.774615,-34.568561,2.215518,6.547728,-1.870697,-4.688270,-5.972964,1.990465,4.495664,-0.219765,0.177771,-0.020755,-11.658271,188.569471,997.255313,-1323.924259,0
0.025000,-184.766881,117.924596,13.516667,3.131628,5.241226,0.446956,-5.456932,-4.914348,-0.179225,5.257043,-0.263601,0.197891,-0.091706,-5.539561,188.495383,996.889970,-1322.795842,0
0.026042,-193.568662,63.669256,82.246781,4.420968,3.888570,2.990818,-6.386044,-3.403615,-2.743405,6.178526,-0.248989,0.196389,-0.061832,8.416978,188.573750,996.287700,-1321.562692,0
0.027083,-162.115908,15.333559,156.602841,5.823408,1.832959,4.490943,-5.680815,-1.448116,-4.291984,5.587923,-0.223418,0.194429,-0.043161,30.697678,188.516742,995.934334,-1321.246467,0
0.028125,-100.458075,-32.567225,207.125569,6.807378,-0.669987,5.602147,-4.244237,1.069773,-5.475452,4.207478,-0.227071,0.207233,-0.125314,49.902057,188.508695,995.870647,-1320.520074,0
0.029167,-54.203358,-105.547966,189.262879,6.502008,-3.116129,6.141874,-2.315119,3.561931,-6.062989,2.353840,-0.175929,0.165229,-0.065566,53.351607,188.510029,994.554890,-1320.499812,0
0.030208,-8.617849,-180.799917,139.109470,5.574588,-4.838014,5.590241,-0.191969,5.307913,-5.559385,0.261826,-0.102869,0.182474,-0.102909,48.069837,188.505133,994.284398,-1319.611103,0
0.031251,45.497221,-201.832771,83.736364,4.500138,-5.927949,3.796441,2.546856,6.392259,-3.826151,-2.306939,-0.091910,0.190705,-0.069301,32.993608,188.509325,993.922775,-1318.166210,0
0.032292,131.405320,-173.539294,34.678599,3.572718,-6.385935,1.978830,4.561796,6.833349,-2.038360,-4.288660,-0.011544,0.180580,-0.050629,16.910788,188.503289,993.737091,-1316.222878,0
0.033334,184.533592,-118.039621,-13.566667,2.622678,-5.132687,-0.303106,5.356578,5.737975,0.219461,-5.106964,-0.015197,0.199067,-0.076769,10.090858,188.646592,993.488277,-1315.998352,0
0.034375,193.131208,-63.458097,-82.296781,1.333338,-3.755179,-2.843000,6.278226,4.219891,2.758460,-6.046236,0.003068,0.203836,-0.043161,-3.526381,188.495676,993.485875,-1315.313457,0
0.035417,162.086784,-14.772053,-156.603599,-0.035172,-1.685367,-4.366936,5.539415,2.286446,4.328023,-5.466307,-0.022503,0.214353,-0.043161,-25.931491,188.495586,994.295662,-1314.955298,0
0.036459,100.077334,33.322025,-207.150948,-1.007832,0.806929,-5.501951,4.173733,-0.235118,5.461130,-4.053842,-0.029809,0.208931,-0.069301,-44.310241,188.495591,994.268647,-1315.018712,0
0.037500,53.936042,106.121553,-189.239016,-0.668532,3.192716,-5.994055,2.203570,-2.635383,6.107421,-2.253571,-0.069992,0.183716,-0.080503,-47.160361,188.646473,994.455249,-1315.715912,0
0.038542,8.475300,181.180210,-138.851705,0.258888,4.978505,-5.446391,0.039375,-4.403419,5.603817,-0.118863,-0.139399,0.177510,-0.046895,-43.789981,188.495678,995.232460,-1314.930051,0
0.039584,-45.639770,202.092254,-83.158523,1.322028,6.111044,-3.656559,-2.714376,-5.594362,3.841206,2.478365,-0.190541,0.200961,-0.043161,-25.773151,188.497609,995.196495,-1315.011928,0
0.040625,-132.160364,173.762534,-33.928409,2.226828,6.526427,-1.878634,-4.673345,-6.020749,1.994662,4.481433,-0.241683,0.178228,-0.065566,-10.572511,188.497710,996.034915,-1315.056873,0
0.041667,-184.687484,118.045405,13.947538,3.165558,5.266078,0.466799,-5.479321,-4.918024,-0.170832,5.267717,-0.238030,0.199786,-0.046895,-5.392531,188.644234,996.286248,-1315.098115,0
0.042709,-193.761484,63.826308,82.776137,4.454898,3.909872,2.963038,-6.400969,-3.414642,-2.755995,6.146505,-0.267254,0.195474,-0.073035,8.677108,188.547585,996.363835,-1315.026862,0
0.043750,-161.775633,15.079860,156.849054,5.857338,1.829409,4.510786,-5.669621,-1.492225,-4.342344,5.545229,-0.259948,0.209388,-0.076769,30.301828,188.502826,996.489473,-1314.965271,0
0.044792,-100.390020,-33.062542,207.347160,6.863928,-0.709040,5.661675,-4.233043,1.095503,-5.483845,4.200363,-0.201500,0.209650,-0.046895,49.913367,188.644205,996.476167,-1315.215768,0
0.045834,-54.214701,-105.801665,188.819698,6.468078,-3.101928,6.106157,-2.311388,3.525174,-6.083972,2.382303,-0.197847,0.189529,-0.043161,52.141437,188.498876,997.133524,-1314.808091,0
0.046875,-8.368314,-181.101940,138.863258,5.551968,-4.823813,5.598178,-0.188238,5.337319,-5.563582,0.268942,-0.139399,0.181625,-0.065566,46.667397,188.571248,997.429658,-1315.009070,0
0.047917,45.553934,-201.494506,83.120834,4.466208,-5.949251,3.792472,2.584170,6.462098,-3.842938,-2.328286,-0.091910,0.168234,-0.061832,32.790028,188.497466,997.818699,-1315.628408,0
0.048959,131.620828,-173.672184,33.927652,3.550098,-6.382385,2.006610,4.528213,6.866431,-1.988000,-4.313565,-0.011544,0.178359,-0.073035,16.786378,188.568643,997.783322,-1316.206111,0
0.050000,184.318085,-117.701356,-13.812879,2.633988,-5.072332,-0.283263,5.304338,5.726948,0.173297,-5.117638,-0.011544,0.199198,-0.028224,10.283128,188.502147,998.102642,-1315.734460,0
0.051042,193.324030,-63.518501,-82.653788,1.333338,-3.726777,-2.795377,6.278226,4.238269,2.792033,-6.003542,0.010374,0.198283,-0.054364,-3.752581,188.572430,998.040438,-1315.740518,0
0.052084,161.735166,-14.796215,-156.874432,-0.012552,-1.671166,-4.307407,5.520758,2.231310,4.311236,-5.405823,-0.026156,0.209454,-0.031958,-26.236861,188.504211,996.961423,-1315.318405,0
0.053125,100.326869,33.575724,-207.286364,-0.985212,0.838881,-5.497982,4.117763,-0.257173,5.440146,-4.036052,-0.026156,0.210564,-0.028224,-44.468581,188.569378,996.628087,-1315.330013,0
0.054167,54.060809,106.314847,-188.882008,-0.668532,3.221118,-5.954369,2.169988,-2.694195,6.082240,-2.217993,-0.077298,0.195213,-0.084238,-48.065160,188.494075,995.796297,-1315.728098,0
0.055209,8.271135,181.349342,-138.790152,0.224958,5.017559,-5.446391,0.031913,-4.432825,5.566047,-0.115305,-0.099216,0.180776,-0.069301,-43.835221,188.569268,995.504296,-1315.843503,0
0.056262,-46.955500,200.992892,-81.878220,1.333338,6.093293,-3.561313,-2.751689,-5.557605,3.790846,2.556638,-0.212459,0.182278,-0.069301,-27.503581,188.495568,994.666234,-1315.286672,0
0.057302,-133.476094,173.412188,-32.672727,2.272068,6.487374,-1.775451,-4.695733,-5.943558,1.986268,4.495664,-0.238030,0.181560,-0.084238,-11.318971,188.641272,994.718119,-1314.485627,0
0.058334,-184.823594,117.731302,14.144508,3.199488,5.216374,0.446956,-5.453201,-4.910673,-0.149848,5.274833,-0.230724,0.200896,-0.046895,-5.494321,188.504077,994.956196,-1314.260298,0
0.059375,-193.466579,63.657175,82.948485,4.466208,3.899221,2.970976,-6.419626,-3.410967,-2.755995,6.128716,-0.278213,0.198806,-0.039427,8.631868,188.552973,994.821767,-1313.943033,0
0.060417,-162.093223,15.152346,157.218372,5.868648,1.811657,4.467132,-5.609919,-1.448116,-4.262607,5.538113,-0.256295,0.208866,-0.084238,30.935188,188.514469,994.502924,-1313.384297,0
0.061458,-100.730295,-33.219594,207.297917,6.773448,-0.698389,5.614052,-4.218118,1.051394,-5.441878,4.168342,-0.256295,0.213700,-0.046895,49.969917,188.513634,994.358480,-1312.602064,0
0.062500,-54.509606,-106.176173,189.090531,6.490698,-3.109028,6.098220,-2.274074,3.521498,-6.033612,2.389419,-0.183235,0.206514,-0.065566,53.351607,188.514907,994.198885,-1312.319338,0
0.063542,-8.107436,-181.222749,138.863258,5.518038,-4.845114,5.621990,-0.173313,5.278507,-5.555189,0.268942,-0.128440,0.191489,-0.046895,47.979357,188.507332,994.219720,-1311.574044,0
0.064583,45.928236,-201.796528,82.960796,4.500138,-5.885346,3.796441,2.569244,6.443720,-3.813561,-2.321170,-0.029809,0.156148,-0.069301,32.812648,188.496272,994.089095,-1311.283773,0
0.065625,131.995130,-173.515132,33.410606,3.572718,-6.364633,2.010578,4.517019,6.833349,-2.038360,-4.345585,-0.011544,0.178555,-0.069301,16.650658,188.629923,994.550197,-1311.030793,0
0.066667,184.454195,-117.363090,-14.256061,2.679228,-5.075882,-0.307075,5.311801,5.737975,0.211067,-5.110522,-0.033462,0.200373,-0.050629,10.022998,188.623092,994.532518,-1311.115054,0
0.067708,193.108523,-63.192317,-83.047728,1.344648,-3.758729,-2.799345,6.240912,4.241945,2.733280,-5.992868,0.014027,0.197760,-0.020755,-3.684721,188.552056,994.946726,-1310.238766,0
0.068750,161.814564,-14.639164,-157.206819,-0.046482,-1.685367,-4.358999,5.509564,2.260716,4.298646,-5.441402,-0.022503,0.211348,-0.046895,-26.202931,188.475925,995.762206,-1310.230708,0
0.069792,100.576404,33.769019,-207.286364,-1.007832,0.810479,-5.478139,4.125226,-0.238794,5.410770,-4.050284,-0.044421,0.203248,-0.046895,-44.298931,188.628687,996.014509,-1309.871920,0
0.070833,54.128864,106.737679,-188.906629,-0.668532,3.263721,-5.946432,2.177450,-2.613329,6.057060,-2.267803,-0.059033,0.197368,-0.046895,-47.126431,188.622871,996.864171,-1308.743160,0
0.071875,7.919517,181.748012,-138.605493,0.247578,4.946553,-5.458296,0.024450,-4.429149,5.566047,-0.111747,-0.084604,0.192208,-0.043161,-43.744741,188.548727,997.070328,-1308.633096,0
0.072917,-46.308978,201.923122,-82.666099,1.322028,6.068441,-3.644654,-2.688256,-5.561280,3.866387,2.492596,-0.212459,0.183650,-0.058098,-25.660051,188.477076,998.233041,-1308.713307,0
0.073959,-132.625407,173.750454,-32.992803,2.249448,6.561930,-1.838948,-4.643494,-5.983992,2.036629,4.463643,-0.230724,0.179665,-0.039427,-10.346311,188.626599,998.803820,-1308.647597,0
0.075000,-184.721511,117.103095,14.649242,3.210798,5.262528,0.458862,-5.453201,-4.899645,-0.166635,5.225023,-0.252642,0.200177,-0.035692,-5.188951,188.556058,998.585859,-1307.841528,0
0.076042,-193.727457,63.113535,83.527084,4.488828,3.941824,2.974944,-6.415895,-3.436697,-2.735011,6.182083,-0.259948,0.201157,-0.061832,8.914618,188.559339,999.681775,-1308.030448,0
0.077083,-161.855030,14.850323,157.378410,5.846028,1.854261,4.467132,-5.639770,-1.514280,-4.266804,5.541671,-0.241683,0.202464,-0.035692,30.561958,188.511647,1000.502812,-1307.660100,0
0.078125,-100.923118,-33.545778,207.531819,6.796068,-0.677088,5.614052,-4.259163,1.025664,-5.479648,4.211036,-0.234377,0.208278,-0.054364,49.969917,188.644682,1001.489248,-1308.051600,0
0.079167,-54.691086,-106.514438,188.696591,6.445458,-3.091277,6.122031,-2.315119,3.510471,-6.062989,2.378745,-0.190541,0.198152,-0.073035,52.084887,188.502204,1001.669109,-1308.143302,0
0.080208,-7.801189,-181.826794,138.727841,5.563278,-4.852215,5.621990,-0.203164,5.304237,-5.601352,0.293847,-0.139399,0.193188,-0.073035,46.644777,188.492079,1002.681994,-1308.474845,0
0.081250,46.518046,-201.361616,82.825379,4.500138,-5.956351,3.788504,2.535662,6.436368,-3.889102,-2.331844,-0.055380,0.180515,-0.046895,32.722168,188.496492,1003.567833,-1308.324841,0
0.082292,132.584940,-173.720507,33.053599,3.527478,-6.393036,2.026453,4.531945,6.844376,-2.034163,-4.299333,-0.037115,0.180057,-0.054364,16.447078,188.515115,1004.067851,-1307.907288,0
0.083333,184.272715,-116.867773,-14.686932,2.645298,-5.129137,-0.303106,5.296876,5.723272,0.202674,-5.114080,-0.015197,0.199720,-0.065566,10.022998,188.518561,1004.087172,-1307.544531,0
0.084375,193.414770,-62.346653,-83.380114,1.378578,-3.776481,-2.811251,6.278226,4.256648,2.804623,-6.053352,0.014027,0.196323,-0.046895,-3.876991,188.441578,1004.611414,-1308.655876,0
0.085417,161.406234,-14.180089,-157.292993,-0.046482,-1.681816,-4.323282,5.535683,2.275419,4.315433,-5.412939,-0.015197,0.195409,-0.058098,-26.451751,188.513602,1004.590059,-1308.339683,0
0.086458,100.349554,34.022718,-207.421781,-0.985212,0.849532,-5.466234,4.114031,-0.238794,5.431753,-4.060957,-0.040768,0.204946,-0.031958,-44.525131,188.511079,1004.921907,-1308.504560,0
0.087500,54.367057,106.979297,-188.623485,-0.634602,3.214017,-5.974212,2.147599,-2.631708,6.052864,-2.274918,-0.088257,0.195997,-0.073035,-48.019920,188.515517,1004.901038,-1308.634090,0
0.088542,7.874147,181.965468,-138.593182,0.258888,4.960754,-5.402736,0.016987,-4.407095,5.561851,-0.150884,-0.124787,0.197238,-0.035692,-43.778671,188.442294,1005.315551,-1308.136464,0
0.089584,-46.751335,201.705665,-82.715341,1.265478,6.036488,-3.624811,-2.647211,-5.575983,3.849600,2.446344,-0.183235,0.190183,-0.069301,-27.854191,188.508710,1005.594077,-1307.742476,0
0.090625,-132.750174,173.629645,-32.869697,2.260758,6.512226,-1.831011,-4.654688,-5.950910,2.011448,4.456528,-0.216112,0.178294,-0.050629,-11.318971,188.518367,1005.137451,-1307.429169,0
0.091667,-184.959704,117.006447,15.104735,3.165558,5.209274,0.427113,-5.430813,-4.903321,-0.183422,5.225023,-0.278213,0.197760,-0.050629,-5.188951,188.513006,1005.272516,-1307.513376,0
0.092708,-193.727457,62.219548,83.637879,4.511448,3.892120,2.978913,-6.356193,-3.381561,-2.730814,6.153621,-0.270907,0.196650,-0.065566,8.858068,188.493490,1004.678130,-1306.909546,0
0.093750,-161.526098,14.052984,157.513826,5.857338,1.815208,4.439352,-5.613650,-1.415034,-4.312968,5.541671,-0.241683,0.184630,-0.061832,31.116148,188.500381,1003.859175,-1307.576701,0
0.094792,-100.514788,-33.908205,207.445645,6.829998,-0.687739,5.578335,-4.240506,1.058746,-5.416698,4.143437,-0.245336,0.207951,-0.039427,50.015157,188.721068,1002.730667,-1306.787389,0
0.095833,-54.418866,-106.913108,188.795076,6.456768,-3.080626,6.090282,-2.288999,3.499444,-6.012628,2.364514,-0.183235,0.197499,-0.058098,53.351607,188.490599,1002.449688,-1306.222948,0
0.096875,-7.744476,-181.790551,138.592425,5.540658,-4.813162,5.558492,-0.121073,5.311588,-5.530009,0.261826,-0.124787,0.183716,-0.039427,47.877567,188.516546,1001.421391,-1306.084013,0
0.097917,46.835636,-201.397859,82.702273,4.477518,-5.906648,3.788504,2.558050,6.406962,-3.792578,-2.274918,-0.073645,0.183193,-0.076769,32.710858,188.496425,1000.706259,-1305.106154,0
0.098958,132.868503,-173.370161,32.967424,3.538788,-6.339782,1.978830,4.517019,6.789240,-2.000590,-4.302891,-0.044421,0.179927,-0.043161,16.458388,188.497395,999.979672,-1304.710971,0
0.100000,184.510907,-116.843611,-15.007008,2.633988,-5.058131,-0.350729,5.315533,5.682839,0.227854,-5.106964,-0.018850,0.199198,-0.050629,9.706318,188.567255,999.518730,-1304.646678,0
0.101042,193.131208,-61.863417,-83.786364,1.333338,-3.751629,-2.866811,6.281957,4.208863,2.750066,-6.035562,0.028639,0.199263,-0.050629,-3.922231,188.571992,999.300018,-1303.682970,0
0.102084,161.031931,-13.237779,-157.514584,-0.069102,-1.653414,-4.327250,5.502101,2.312176,4.323826,-5.416497,0.021333,0.168625,-0.024490,-26.406511,188.494495,999.999943,-1303.290454,0
0.103125,99.703031,34.493873,-207.495645,-1.019142,0.828230,-5.474171,4.132688,-0.279227,5.444343,-4.039610,-0.040768,0.199132,-0.039427,-44.310241,188.634407,999.705805,-1303.414472,0
0.104167,54.072152,107.450452,-188.549622,-0.679842,3.210467,-5.934527,2.136405,-2.672141,6.052864,-2.232224,-0.088257,0.194168,-0.076769,-47.047261,188.550429,999.280406,-1303.813967,0
0.105219,6.932720,184.007141,-137.251326,0.292818,4.989156,-5.434485,0.005793,-4.440177,5.515687,-0.125979,-0.106522,0.195605,-0.065566,-43.586401,188.556870,999.550240,-1303.713188,0
0.106251,-47.182350,201.512371,-82.469129,1.310718,6.068441,-3.593062,-2.691987,-5.502468,3.837010,2.485481,-0.172276,0.181299,-0.080503,-25.513021,188.473968,998.970538,-1303.141888,0
0.107292,-133.453409,173.617564,-32.672727,2.249448,6.529977,-1.815137,-4.733047,-5.947234,1.961088,4.520569,-0.212459,0.176726,-0.073035,-10.267141,188.630197,998.576860,-1303.998029,0
0.108333,-184.857621,116.716506,15.314015,3.210798,5.198623,0.458862,-5.415887,-4.859212,-0.258962,5.281948,-0.245336,0.196715,-0.087972,-5.007991,188.549672,997.642820,-1304.876877,0
0.109375,-193.738799,62.122901,84.339584,4.500138,3.888570,2.955101,-6.386044,-3.385236,-2.772781,6.192757,-0.289172,0.194429,-0.050629,9.095578,188.546896,998.004093,-1305.650823,0
0.110417,-160.868233,13.364372,157.673864,5.879958,1.808107,4.443320,-5.658426,-1.418710,-4.275197,5.513208,-0.248989,0.212916,-0.065566,30.765538,188.483728,997.969278,-1304.629033,0
