1-Time,2-VGERA,3-VGERB,4-VGERC,5-VN,6-IGERAN,7-IGERBN,8-IGERCN,9-IGERAT,10-IGERBT,11-IGERCT,12-IN,13-IFD,14-IFAULT,15-VFAULT,16-Speed (rad/s),17-Active Power,18-Reactive Power,19-FAULT 
0.000000,134.511413,50.372940,-180.374400,-3.198633,-3.311537,-1.177401,4.242887,3.364513,1.000593,-4.161096,-0.047102,0.418450,-0.100873,-125.917892,188.495740,1189.878532,5.814688,0
0.001042,60.677700,103.014075,-193.729087,-3.480115,-1.895120,-2.810626,4.250457,2.008015,2.700043,-4.320066,-0.072625,0.426511,-0.097156,-137.074892,188.495729,1188.744266,5.245238,0
0.002083,-2.692281,157.651862,-163.483576,-2.883372,-0.221841,-3.804238,3.633512,0.488302,3.630090,-3.574422,-0.076271,0.402534,-0.097156,-126.390742,188.571056,1187.881927,4.551908,0
0.003125,-65.418166,182.504304,-111.936185,-1.881295,1.521159,-4.230647,2.289859,-1.234523,4.205028,-2.295094,-0.105440,0.421137,-0.093440,-94.158159,188.495693,1187.311789,3.620800,0
0.004167,-121.533595,184.313035,-32.707285,-0.361289,2.977940,-4.142147,0.722895,-2.645426,4.040156,-0.747031,-0.174718,0.403774,-0.141757,-35.749970,188.495662,1186.279418,3.637007,0
0.005208,-164.371612,152.777683,35.609413,0.967308,3.957689,-3.369784,-0.806220,-3.613835,3.414488,0.816172,-0.160133,0.408391,-0.071140,15.711831,188.495736,1185.763658,3.321091,0
0.006250,-184.847077,81.415002,89.453470,2.003164,4.420042,-1.957809,-2.577571,-3.962027,2.040555,2.549700,-0.192949,0.418932,-0.097156,53.686160,188.495683,1184.972901,4.776142,0
0.007292,-179.728211,13.564078,144.014476,3.039020,4.166849,-0.614219,-3.402687,-3.893114,0.687759,3.522444,-0.222118,0.426442,-0.097156,96.828060,188.495707,1184.818739,4.757422,0
0.008333,-134.754508,-50.328777,180.250761,3.692059,3.253150,1.127619,-4.136965,-2.939213,-1.003235,4.188603,-0.225764,0.422997,-0.100873,126.020896,188.495687,1183.753192,4.947777,0
0.009375,-61.304993,-102.981657,194.115818,3.928504,1.844072,2.748776,-4.182384,-1.655255,-2.690002,4.389208,-0.203887,0.427820,-0.112023,139.249427,188.495761,1183.618698,5.252151,0
0.010417,1.918089,-157.595954,163.566516,3.500651,0.218496,3.814798,-3.493526,-0.084764,-3.620049,3.685198,-0.243995,0.423686,-0.093440,127.338120,188.495718,1183.394936,5.293261,0
0.011458,65.208971,-182.789000,112.432281,2.509832,-1.579546,4.164775,-2.195292,1.627180,-4.194988,2.413440,-0.174718,0.418450,-0.108307,92.189631,188.495830,1183.342153,5.854212,0
0.012500,121.448699,-184.339342,33.324899,0.922271,-3.098708,4.072252,-0.624543,3.106996,-4.076618,0.804817,-0.163779,0.405083,-0.074856,37.102648,188.495723,1183.732735,5.584946,0
0.013542,164.467515,-152.757010,-35.490018,-0.395067,-4.060109,3.340117,0.915927,4.071778,-3.455178,-0.731891,-0.138256,0.410595,-0.108307,-15.924061,188.495682,1184.253075,6.309209,0
0.014583,184.818680,-80.748353,-89.212559,-1.408404,-4.522463,1.944232,2.691063,4.448986,-1.996695,-2.518408,-0.109087,0.406875,-0.126890,-52.401033,188.571138,1183.863935,6.490097,0
0.015625,179.767614,-12.556824,-143.591290,-2.399222,-4.269269,0.624779,3.504825,4.311160,-0.762269,-3.513862,-0.090856,0.412111,-0.082290,-95.430349,188.495635,1184.728211,7.634353,0
0.016667,134.240214,50.596095,-180.313642,-3.142336,-3.344562,-1.193491,4.280737,3.400783,0.996366,-4.191376,-0.054394,0.421619,-0.126890,-126.694717,188.495673,1185.300948,7.990269,0
0.017708,61.468695,102.767430,-193.959969,-3.435078,-1.887781,-2.846830,4.352651,2.066047,2.712725,-4.357916,-0.061686,0.420104,-0.119457,-136.579526,188.495703,1186.203854,8.300055,0
0.018750,-1.324990,157.851527,-163.289149,-2.928410,-0.210832,-3.832397,3.637297,0.441151,3.693502,-3.650122,-0.072625,0.438362,-0.108307,-125.962926,188.495805,1187.610057,7.557593,0
0.019792,-65.011369,182.339873,-112.361493,-1.960110,1.546845,-4.303056,2.342849,-1.230896,4.247303,-2.404858,-0.098148,0.426925,-0.097156,-92.593251,188.495796,1188.817591,8.371806,0
0.020833,-121.770894,184.219075,-33.521447,-0.440104,3.051329,-4.146170,0.730465,-2.656307,4.103568,-0.747031,-0.116379,0.407633,-0.097156,-36.177787,188.495709,1189.666784,8.316060,0
0.021875,-164.213413,152.636743,35.633716,0.956049,3.957689,-3.361739,-0.787295,-3.660986,3.414488,0.816172,-0.171072,0.405428,-0.119457,15.666798,188.495743,1190.095625,8.113586,0
0.022917,-185.445973,80.581106,89.210437,1.958127,4.475084,-1.933672,-2.626775,-4.067210,1.998280,2.644325,-0.222118,0.404326,-0.093440,54.429210,188.495716,1191.650020,6.874329,0
0.023958,-179.524812,12.025482,143.516257,3.016501,4.148501,-0.638356,-3.440536,-3.867725,0.658167,3.526229,-0.214826,0.427958,-0.108307,95.690970,188.495910,1191.155634,6.751571,0
0.025000,-133.421117,-50.974752,180.651766,3.737096,3.238472,1.123597,-4.174814,-2.939213,-1.028600,4.290798,-0.218472,0.394266,-0.097156,126.572554,188.495700,1192.281142,6.616121,0
0.026042,-60.152401,-102.828972,194.030757,3.951023,1.851411,2.793026,-4.216449,-1.626239,-2.736505,4.408132,-0.247641,0.408804,-0.086006,137.459354,188.495787,1192.518761,6.177684,0
0.027083,1.805090,-158.159714,163.773094,3.444354,0.181801,3.778593,-3.557870,-0.041240,-3.683462,3.681413,-0.211179,0.415418,-0.130607,125.942088,188.495702,1193.288863,5.316060,0
0.028125,64.802173,-182.096045,113.161382,2.464795,-1.572207,4.225116,-2.191507,1.641688,-4.249945,2.428580,-0.167425,0.416934,-0.112023,92.448572,188.495694,1193.972299,4.938342,0
0.029167,121.663397,-184.492027,33.871724,0.922271,-3.139072,4.104434,-0.598048,3.110623,-4.076618,0.789677,-0.152841,0.408184,-0.104590,36.911257,188.495700,1194.066317,4.622057,0
0.030208,164.501414,-152.897950,-34.700160,-0.350030,-4.045432,3.352185,0.946207,4.079032,-3.421358,-0.803806,-0.105440,0.410251,-0.115740,-16.036644,188.495709,1193.962541,3.286224,0
0.031250,185.394976,-81.065468,-88.848009,-1.453441,-4.544480,1.908027,2.744052,4.427224,-2.005150,-2.525978,-0.105440,0.415901,-0.093440,-52.851366,188.495712,1193.948069,3.150555,0
0.032292,179.496415,-12.227964,-143.372560,-2.523075,-4.228905,0.572484,3.512394,4.285771,-0.652354,-3.491152,-0.036163,0.393095,-0.089723,-95.891941,188.495718,1193.187435,2.024852,0
0.033333,133.743018,51.124621,-180.265035,-3.198633,-3.311537,-1.209582,4.299661,3.368140,0.996366,-4.149741,-0.087210,0.401914,-0.119457,-125.816567,188.495676,1192.371667,2.102301,0
0.034375,59.683307,102.802665,-193.996424,-3.367522,-1.913468,-2.822694,4.322371,2.018896,2.759227,-4.335206,-0.072625,0.402741,-0.112023,-137.131184,188.495660,1192.038509,1.584565,0
0.035417,-2.579281,157.651862,-163.556486,-2.827076,-0.225510,-3.844466,3.671362,0.484675,3.714639,-3.646337,-0.065333,0.413696,-0.093440,-126.402000,188.571069,1192.214876,2.208669,0
0.036458,-64.898370,182.445578,-112.920470,-1.870035,1.495472,-4.282942,2.320139,-1.227269,4.251530,-2.385933,-0.112733,0.416314,-0.104590,-94.721075,188.495674,1192.218935,1.910717,0
0.037500,-121.612695,184.066390,-34.408519,-0.428845,3.047659,-4.134102,0.749390,-2.670815,4.061293,-0.796236,-0.120025,0.409562,-0.130607,-36.639378,188.495658,1191.983760,1.960663,0
0.038542,-164.665410,152.906878,34.649431,0.899753,3.961358,-3.369784,-0.825144,-3.639224,3.422943,0.835097,-0.138256,0.411216,-0.078573,15.261498,188.495738,1191.977686,1.643951,0
0.039583,-185.095675,81.767352,89.186133,2.014423,4.442059,-1.921604,-2.600280,-4.009178,2.006735,2.572410,-0.189302,0.411009,-0.078573,53.494769,188.571181,1190.986215,2.170364,0
0.040625,-179.637811,12.847633,143.601319,3.039020,4.188866,-0.565947,-3.451891,-3.900368,0.675077,3.590574,-0.236703,0.417279,-0.089723,96.479052,188.495624,1192.037965,1.841739,0
0.041667,-133.782714,-51.115692,180.287216,3.703318,3.242142,1.167847,-4.140750,-2.906570,-1.020145,4.211313,-0.247641,0.396884,-0.104590,125.998379,188.495752,1190.825655,1.848440,0
0.042708,-59.553505,-102.864207,194.371004,4.063616,1.822056,2.744754,-4.205094,-1.608104,-2.736505,4.377853,-0.233057,0.403981,-0.115740,139.485852,188.495741,1190.421973,1.737764,0
0.043750,3.251480,-157.419779,163.663729,3.455614,0.189140,3.762503,-3.520020,-0.044867,-3.675007,3.688983,-0.214826,0.400743,-0.078573,127.450703,188.571053,1190.197649,2.176405,0
0.044792,65.163771,-182.824235,112.638860,2.509832,-1.568537,4.200979,-2.214217,1.685212,-4.228808,2.485355,-0.156487,0.408460,-0.130607,92.606189,188.495712,1190.682315,2.513745,0
0.045833,121.448699,-184.186657,34.297032,1.012346,-3.098708,4.084320,-0.616973,3.081607,-4.055481,0.819957,-0.192949,0.413420,-0.134323,38.104639,188.495765,1190.206244,2.893316,0
0.046875,164.874312,-152.991910,-34.177638,-0.372548,-4.012406,3.336094,0.938637,4.071778,-3.455178,-0.754601,-0.123671,0.414661,-0.100873,-14.877037,188.495694,1190.429928,3.623127,0
0.047917,185.089878,-82.380909,-88.848009,-1.408404,-4.504116,1.891937,2.706203,4.492510,-1.984012,-2.567613,-0.094502,0.410182,-0.126890,-52.052025,188.571022,1191.403392,2.679712,0
0.048958,179.778913,-13.531660,-143.664200,-2.500556,-4.254591,0.576506,3.535104,4.293025,-0.698856,-3.502507,-0.068979,0.405772,-0.126890,-95.317766,188.495615,1191.833088,2.836657,0
0.050000,134.002916,50.654820,-180.435158,-3.176114,-3.315206,-1.229696,4.254242,3.379021,1.064005,-4.176236,-0.043455,0.422860,-0.112023,-126.705975,188.495799,1192.497378,1.942938,0
0.051042,60.203104,102.649980,-194.117941,-3.423819,-1.884112,-2.846830,4.250457,2.018896,2.771910,-4.350346,-0.068979,0.415418,-0.093440,-136.748401,188.495754,1192.829977,1.690749,0
0.052083,-2.760080,157.687097,-163.507880,-2.872113,-0.229180,-3.848488,3.660007,0.495556,3.676592,-3.616057,-0.068979,0.386756,-0.074856,-126.176834,188.495734,1192.141549,1.906228,0
0.053125,-65.248667,182.492559,-111.924033,-1.870035,1.539506,-4.343283,2.320139,-1.285301,4.306487,-2.389718,-0.083563,0.424375,-0.104590,-92.435635,188.495714,1192.935851,1.567518,0
0.054167,-121.477096,184.336525,-33.059684,-0.327511,3.069676,-4.162261,0.688831,-2.707085,4.082431,-0.739461,-0.112733,0.409424,-0.089723,-36.324145,188.495740,1193.276249,1.007465,0
0.055208,-164.202113,152.730703,34.856009,0.922271,3.983375,-3.353693,-0.821359,-3.693629,3.435625,0.819957,-0.156487,0.411698,-0.119457,14.676066,188.495731,1193.797760,1.060235,0
0.056250,-185.694571,81.814332,88.894493,1.958127,4.497101,-1.905513,-2.653269,-4.059956,1.947550,2.651895,-0.192949,0.409080,-0.097156,53.900069,188.571040,1194.650172,-0.401730,0
0.057292,-179.581312,13.928174,143.783594,3.039020,4.192535,-0.557901,-3.501095,-3.835082,0.637029,3.605714,-0.233057,0.415487,-0.108307,95.634678,188.495718,1194.112294,-1.473501,0
0.058333,-134.065213,-49.811996,181.113530,3.703318,3.220125,1.183937,-4.178599,-2.971856,-1.079330,4.290798,-0.229410,0.427200,-0.097156,126.730171,188.495669,1195.917559,-2.169762,0
0.059375,-60.626998,-102.664541,194.030757,4.029838,1.785361,2.821185,-4.189954,-1.579088,-2.804145,4.408132,-0.236703,0.410251,-0.093440,137.571937,188.495635,1196.615809,-3.317187,0
0.060417,2.516985,-157.971794,163.821701,3.421836,0.079056,3.806752,-3.501095,-0.023105,-3.734192,3.677628,-0.222118,0.409906,-0.100873,126.223546,188.495651,1197.265818,-4.117658,0
0.061458,65.276770,-182.260475,112.201400,2.442277,-1.663944,4.229138,-2.119593,1.754125,-4.266855,2.349095,-0.178364,0.391235,-0.130607,91.885656,188.495712,1196.846081,-6.078297,0
0.062500,121.437399,-184.938337,32.996803,0.967308,-3.161089,4.116502,-0.560199,3.157774,-4.038571,0.766967,-0.167425,0.403774,-0.093440,36.460924,188.495727,1197.247658,-7.062013,0
0.063542,163.913818,-152.439894,-35.113316,-0.304993,-4.060109,3.291844,0.987841,4.100794,-3.383310,-0.841655,-0.094502,0.406461,-0.100873,-15.811478,188.495615,1196.761152,-8.475361,0
0.064583,185.858273,-80.842313,-88.495610,-1.397145,-4.592183,1.932164,2.778116,4.478002,-1.962875,-2.609248,-0.109087,0.405428,-0.082290,-52.389774,188.495736,1196.679485,-8.812840,0
0.065625,179.462516,-13.543405,-143.785716,-2.444260,-4.261930,0.584552,3.546459,4.264009,-0.681946,-3.544142,-0.072625,0.432230,-0.089723,-96.128365,188.495627,1196.689909,-9.372459,0
0.066667,134.296714,49.726964,-180.921225,-3.164855,-3.351901,-1.253832,4.292092,3.379021,1.068233,-4.225441,-0.061686,0.426374,-0.123173,-126.334450,188.495763,1197.384940,-9.823105,0
0.067708,61.683394,102.485550,-193.668329,-3.457597,-1.865765,-2.834762,4.284522,2.015269,2.776137,-4.380626,-0.050748,0.422584,-0.082290,-137.029859,188.495683,1197.768906,-10.214710,0
0.068750,-1.607488,157.769312,-163.556486,-2.894632,-0.174138,-3.924920,3.656222,0.412135,3.752687,-3.623627,-0.061686,0.420173,-0.078573,-126.615908,188.646487,1198.637296,-11.858789,0
0.069792,-64.796670,182.433833,-112.191370,-1.858776,1.598218,-4.282942,2.259580,-1.252658,4.243075,-2.310233,-0.130964,0.412111,-0.100873,-94.146900,188.495693,1197.210100,-12.352917,0
0.070833,-121.251097,184.489210,-32.974622,-0.361289,3.139396,-4.142147,0.677476,-2.757863,4.061293,-0.694041,-0.127317,0.403774,-0.063706,-35.693679,188.495785,1197.250585,-13.383393,0
0.071875,-164.066514,152.601508,35.451441,0.899753,3.983375,-3.365762,-0.840284,-3.675494,3.410260,0.876732,-0.134610,0.403430,-0.100873,15.858190,188.495714,1196.907524,-13.971813,0
0.072917,-185.570272,80.463656,88.736521,1.969386,4.522788,-1.901491,-2.626775,-4.038194,2.006735,2.685960,-0.251287,0.390408,-0.112023,53.247086,188.646538,1196.964555,-13.439078,0
0.073958,-179.445713,12.683203,143.662078,3.016501,4.141162,-0.578015,-3.451891,-3.838709,0.653939,3.632209,-0.200241,0.401914,-0.104590,96.659185,188.495747,1197.174412,-13.088528,0
0.075000,-133.827914,-50.152601,180.773283,3.759615,3.256819,1.187960,-4.208879,-2.902943,-1.096240,4.313508,-0.240349,0.400123,-0.115740,126.392421,188.495647,1196.806322,-13.773627,0
0.076042,-61.146794,-102.605816,193.921392,3.984801,1.807378,2.825208,-4.197524,-1.618985,-2.808372,4.434627,-0.225764,0.422308,-0.074856,139.204394,188.495752,1197.341993,-13.477252,0
0.077083,1.194894,-157.948304,163.748791,3.478132,0.170793,3.863071,-3.561654,-0.030359,-3.755329,3.711693,-0.203887,0.424375,-0.119457,127.552028,188.571011,1197.887280,-13.652012,0
0.078125,64.553575,-182.753765,112.894045,2.419758,-1.645596,4.293502,-2.168797,1.696093,-4.296447,2.413440,-0.214826,0.413696,-0.059989,92.257181,188.495709,1198.590634,-12.794699,0
0.079167,121.505199,-184.656457,33.725904,0.922271,-3.186775,4.124548,-0.590478,3.165028,-4.093528,0.732902,-0.141902,0.407357,-0.097156,37.203973,188.495741,1199.136955,-13.234802,0
0.080208,164.286716,-152.733519,-34.906738,-0.361289,-4.078457,3.324026,1.021905,4.158826,-3.421358,-0.856795,-0.112733,0.406668,-0.108307,-15.687636,188.495709,1200.257740,-13.464709,0
0.081250,185.824373,-80.372512,-88.568520,-1.397145,-4.570166,1.891937,2.789471,4.546915,-1.984012,-2.647098,-0.112733,0.396402,-0.115740,-51.961958,188.571125,1201.335328,-13.516592,0
0.082292,179.575515,-12.192729,-143.323953,-2.489297,-4.272939,0.540302,3.622158,4.332922,-0.605852,-3.578207,-0.072625,0.397367,-0.112023,-95.193924,188.495897,1202.164558,-14.046585,0
0.083333,133.200621,50.666565,-181.115652,-3.176114,-3.377587,-1.294060,4.329941,3.371767,1.102053,-4.270861,-0.072625,0.387032,-0.082290,-127.100016,188.495709,1202.630246,-14.150949,0
0.084375,60.474302,102.462060,-194.142244,-3.435078,-1.880443,-2.895103,4.352651,2.033404,2.839550,-4.410906,-0.047102,0.428647,-0.086006,-136.613301,188.495734,1203.499716,-14.214443,0
0.085417,-1.370189,158.168643,-163.738761,-2.883372,-0.181477,-3.977215,3.694071,0.412135,3.816099,-3.669047,-0.050748,0.413972,-0.074856,-126.424517,188.495658,1204.727198,-14.333804,0
0.086458,-64.367273,182.198933,-112.835409,-1.948850,1.605557,-4.371442,2.308784,-1.343333,4.327625,-2.351868,-0.105440,0.415350,-0.130607,-92.728351,188.495631,1206.356293,-15.282752,0
0.087500,-121.996892,184.665385,-33.958908,-0.417586,3.146735,-4.234670,0.666121,-2.746982,4.196573,-0.671331,-0.109087,0.408804,-0.108307,-36.380437,188.495636,1207.931439,-15.162560,0
0.088542,-164.168214,152.624998,34.965374,0.922271,4.067773,-3.414034,-0.912198,-3.766169,3.456763,0.944862,-0.163779,0.410940,-0.097156,15.216465,188.495629,1209.425420,-16.153334,0
0.089583,-186.542066,80.510636,88.505640,1.958127,4.607185,-1.913559,-2.706259,-4.143377,1.998280,2.742735,-0.236703,0.426787,-0.126890,53.810002,188.571111,1211.158578,-16.875328,0
0.090625,-179.355313,12.424812,143.491954,3.027760,4.218221,-0.525720,-3.580579,-3.943892,0.628574,3.715478,-0.189302,0.413558,-0.093440,95.510836,188.495734,1212.957119,-17.242401,0
0.091667,-132.935220,-50.504952,181.721113,3.782133,3.260489,1.268415,-4.311072,-3.015380,-1.151197,4.362713,-0.236703,0.431748,-0.100873,127.067920,188.495776,1214.716252,-16.786464,0
0.092708,-59.485705,-102.558836,194.115818,4.052357,1.825725,2.909685,-4.273223,-1.564580,-2.837965,4.480047,-0.222118,0.405083,-0.093440,137.560679,188.495716,1215.061948,-17.154488,0
0.093750,2.901182,-158.429849,164.089038,3.444354,0.079056,3.955593,-3.637353,0.016792,-3.810286,3.783608,-0.243995,0.421344,-0.134323,126.459971,188.495694,1216.500865,-17.090043,0
0.094792,64.813473,-182.154770,113.076320,2.521092,-1.685960,4.341775,-2.195292,1.739617,-4.347177,2.436150,-0.171072,0.396747,-0.149190,92.572414,188.495718,1217.312367,-17.399609,0
0.095833,121.798997,-185.302432,34.649431,0.911012,-3.263834,4.225116,-0.567769,3.259330,-4.178078,0.744257,-0.152841,0.412111,-0.112023,37.327815,188.495787,1219.301566,-18.019398,0
0.096875,164.264116,-152.944930,-34.104728,-0.383808,-4.170194,3.372298,1.033260,4.180588,-3.459405,-0.818945,-0.145548,0.415901,-0.123173,-15.451211,188.495667,1219.797918,-17.664711,0
0.097917,186.728368,-81.053723,-88.167515,-1.397145,-4.650895,1.895959,2.823536,4.583185,-1.996695,-2.654668,-0.112733,0.411078,-0.115740,-52.243416,188.495711,1220.603379,-17.863242,0
0.098958,179.338216,-12.956154,-143.530531,-2.466778,-4.298625,0.504097,3.663792,4.390954,-0.639672,-3.657692,-0.050748,0.421413,-0.086006,-95.970749,188.495848,1222.026491,-17.935155,0
0.100000,133.336220,50.302470,-181.492354,-3.243670,-3.355571,-1.286014,4.398070,3.422545,1.123190,-4.338991,-0.054394,0.405015,-0.074856,-126.514584,188.495685,1223.386322,-18.056101,0
0.101042,59.751107,102.485550,-194.190851,-3.401300,-1.858426,-2.939353,4.379145,2.069674,2.835322,-4.433616,-0.025225,0.382002,-0.086006,-137.300059,188.495591,1223.716264,-17.413654,0
0.102083,-2.952179,158.051193,-163.981795,-2.905891,-0.181477,-3.973193,3.716781,0.433897,3.837236,-3.703112,-0.058040,0.384620,-0.108307,-127.111275,188.571080,1224.282982,-16.697279,0
0.103125,-64.751471,182.516049,-112.397948,-1.858776,1.623904,-4.371442,2.323924,-1.296182,4.319170,-2.382148,-0.090856,0.407839,-0.138040,-94.495908,188.495689,1224.251203,-15.687590,0
0.104167,-121.590095,185.017736,-33.983211,-0.338771,3.139396,-4.290988,0.738035,-2.772371,4.166980,-0.743246,-0.145548,0.412456,-0.130607,-36.538053,188.495645,1224.347247,-15.283648,0
0.105208,-164.450712,152.977348,34.272729,0.922271,4.064103,-3.434148,-0.893273,-3.806066,3.482128,0.907012,-0.167425,0.415418,-0.067423,14.912490,188.495729,1225.034283,-15.060162,0
0.106250,-186.474266,81.802587,88.408426,1.958127,4.548474,-1.933672,-2.717613,-4.139750,2.002507,2.738950,-0.207533,0.413834,-0.086006,52.909336,188.571134,1225.131256,-15.311241,0
0.107292,-179.558712,13.834214,143.844353,3.027760,4.265924,-0.578015,-3.554085,-3.958400,0.632802,3.670058,-0.243995,0.431059,-0.115740,96.557861,188.495680,1225.042156,-15.233628,0
0.108333,-133.624516,-49.952936,181.478080,3.692059,3.278836,1.240256,-4.277008,-3.008126,-1.130060,4.377853,-0.243995,0.430094,-0.100873,126.651362,188.495700,1225.120749,-15.386274,0
0.109375,-59.858603,-102.570581,194.371004,3.984801,1.818386,2.877504,-4.242943,-1.629866,-2.821055,4.487617,-0.233057,0.422171,-0.074856,139.508369,188.495680,1225.495517,-14.638066,0
0.110417,3.104581,-157.983539,163.991824,3.455614,0.163454,3.895252,-3.595719,-0.030359,-3.789149,3.741973,-0.218472,0.432850,-0.093440,128.002361,188.571094,1224.739617,-14.219559,0
