1-Time,2-VGERA,3-VGERB,4-VGERC,5-VN,6-IGERAN,7-IGERBN,8-IGERCN,9-IGERAT,10-IGERBT,11-IGERCT,12-IN,13-IFD,14-IFAULT,15-VFAULT,16-Speed (rad/s),17-FAULT 
0.000000,164.967779,-163.125555,-15.474811,2.667918,-3.101928,6.225206,-2.738060,2.944405,-6.206692,2.909233,-0.168623,0.602057,-0.050629,-26.904151,188.495658,0
0.001042,180.280155,-112.639457,-82.715341,1.378578,-5.033279,5.428950,-0.042518,4.984447,-5.461360,0.145427,-0.113828,0.592389,-0.035692,-33.396091,188.495673,0
0.002083,183.626192,-25.040822,-133.865910,0.417228,-6.144516,4.011689,2.543321,6.046738,-3.994867,-2.363318,-0.084604,0.597484,-0.028224,-39.232051,188.420256,0
0.003125,156.324794,51.902456,-170.206819,-0.306612,-6.314930,2.034382,4.623747,6.373880,-2.125492,-4.426655,-0.033462,0.583505,-0.020755,-39.537421,188.495752,0
0.004167,82.745993,107.220915,-185.496591,-0.611982,-5.477064,-0.655366,6.398573,5.458618,0.541590,-6.181634,0.017680,0.603429,-0.024490,-26.146381,188.495682,0
0.005208,6.898692,152.186040,-186.370645,-0.634602,-4.056953,-2.674581,6.806038,4.010373,2.648666,-6.790738,0.017680,0.619368,-0.020755,-12.246391,188.495756,0
0.006250,-62.426671,183.523905,-145.327084,0.134478,-1.653414,-4.632840,6.265363,1.724056,4.534156,-6.212089,-0.000585,0.614599,-0.028224,6.799648,188.495620,0
0.007292,-115.702396,196.655848,-54.413258,1.910148,0.913437,-5.798651,4.749121,-0.915132,5.851582,-4.807345,-0.026156,0.603298,-0.061832,19.568638,188.495712,0
0.008333,-164.928848,162.925964,16.348106,3.233418,3.160763,-6.107248,2.664777,-3.054419,6.105398,-2.804918,-0.077298,0.599509,-0.035692,32.756098,188.495682,0
0.009375,-181.103254,112.753969,82.973106,4.477518,5.102765,-5.303372,-0.019011,-5.054027,5.412440,-0.121056,-0.124787,0.592650,-0.043161,37.755118,188.495658,0
0.010417,-183.734714,26.000998,133.089584,5.450178,6.196251,-3.817534,-2.624440,-6.160428,3.954005,2.418144,-0.179582,0.598856,-0.046895,43.952997,188.495693,0
0.011458,-157.045810,-50.640257,170.661554,6.185328,6.405717,-1.904994,-4.634342,-6.476542,2.104774,4.538585,-0.216112,0.601730,-0.046895,45.163167,188.495606,0
0.012500,-82.332759,-107.275535,177.038448,6.354978,5.532349,0.841901,-6.499281,-5.616417,-0.574395,6.285950,-0.259948,0.608197,-0.017021,30.505408,188.495779,0
0.013542,-5.872963,-152.156094,186.246781,6.547248,4.119338,2.872546,-6.938090,-4.215956,-2.689528,6.955963,-0.267254,0.617408,-0.020755,14.931538,188.495651,0
0.014583,62.318150,-183.119451,144.366099,5.698998,1.744202,4.800326,-6.389579,-1.933315,-4.550845,6.346860,-0.259948,0.621393,-0.009553,-1.762022,188.495683,0
0.015625,115.446422,-196.505092,56.566856,4.036428,-0.794247,5.962327,-4.932106,0.742631,-5.944819,4.983991,-0.248989,0.611202,-0.028224,-15.786421,188.495718,0
0.016667,164.740929,-162.799370,-12.150947,2.701848,-3.069975,6.263305,-2.855598,2.955433,-6.142231,2.947302,-0.183235,0.601992,-0.028224,-28.159561,188.495656,0
0.017708,180.461635,-111.419286,-81.718182,1.401198,-4.990676,5.417520,-0.066026,4.995474,-5.453302,0.175882,-0.132093,0.585399,-0.043161,-32.841901,188.495778,0
0.018750,183.410685,-25.391168,-131.686932,0.462468,-6.151617,3.992640,2.523731,6.076144,-4.023069,-2.355704,-0.088257,0.598333,-0.050629,-39.469561,188.495635,0
0.019792,157.073399,50.344019,-167.166099,-0.216132,-6.385935,2.080100,4.490537,6.362853,-2.161752,-4.419041,-0.037115,0.608263,-0.020755,-38.259391,188.495779,0
0.020833,82.439745,107.631666,-183.059091,-0.555432,-5.491265,-0.685845,6.386819,5.440240,0.545619,-6.242545,-0.004238,0.605584,-0.024490,-24.732631,188.495801,0
0.021875,4.959125,152.379334,-187.392425,-0.645912,-4.103106,-2.724109,6.856972,4.061833,2.644637,-6.809772,-0.007891,0.639553,-0.028224,-11.895781,188.495770,0
0.022917,-62.721576,183.620552,-150.042046,0.100548,-1.656965,-4.663318,6.277117,1.760814,4.542213,-6.227317,-0.007891,0.612182,-0.043161,7.444318,188.495649,0
0.023958,-115.736423,196.498796,-59.645265,1.785738,0.892135,-5.817700,4.772628,-0.874699,5.916043,-4.864448,-0.033462,0.612770,-0.035692,19.975798,188.420363,0
0.025000,-165.711480,162.962206,13.639773,3.199488,3.167864,-6.137727,2.735300,-3.094852,6.141657,-2.827759,-0.088257,0.605780,-0.024490,33.717448,188.495725,0
0.026042,-180.581499,111.485474,82.049811,4.466208,5.067262,-5.200506,-0.026847,-5.079757,5.347978,-0.022077,-0.139399,0.579977,-0.017021,38.015248,188.495674,0
0.027083,-183.848139,24.792907,132.744887,5.450178,6.182050,-3.760386,-2.694963,-6.090588,3.937890,2.498088,-0.172276,0.569394,-0.039427,43.195228,188.495676,0
0.028125,-157.374743,-50.108698,170.698485,6.185328,6.363114,-1.866895,-4.642178,-6.454488,2.072544,4.542391,-0.201500,0.603821,-0.024490,45.660807,188.495667,0
0.029167,-83.319557,-106.743976,185.988258,6.502008,5.550100,0.849521,-6.495363,-5.572308,-0.594539,6.289757,-0.278213,0.611072,-0.009553,30.663748,188.495767,0
0.030208,-5.101673,-152.011123,181.310228,6.400218,4.144190,2.864927,-6.965516,-4.201253,-2.721758,6.860791,-0.267254,0.603298,-0.028224,16.548868,188.495674,0
0.031250,63.066755,-183.421473,146.778978,5.755548,1.769054,4.785087,-6.350400,-1.892882,-4.566960,6.270722,-0.263601,0.615253,-0.039427,-2.406691,188.495683,0
0.032292,115.389709,-196.070180,54.523296,3.957258,-0.829750,5.901370,-4.881173,0.735280,-5.872300,4.904047,-0.216112,0.604539,-0.091706,-16.103101,188.495680,0
0.033333,165.228657,-162.908098,-16.238068,2.656608,-3.084176,6.236636,-2.820337,2.907648,-6.150289,2.954916,-0.190541,0.607544,-0.039427,-27.096421,188.495645,0
0.034375,180.166730,-111.975007,-84.180303,1.378578,-4.980025,5.375612,-0.105205,4.918283,-5.408985,0.172075,-0.128440,0.588861,-0.035692,-33.430021,188.495560,0
0.035417,183.546795,-23.748165,-134.469129,0.417228,-6.080611,3.958351,2.531567,6.032035,-4.006954,-2.317635,-0.088257,0.584354,-0.035692,-39.175501,188.495731,0
0.036458,156.687754,51.250087,-171.548675,-0.317922,-6.286527,2.038191,4.521880,6.315068,-2.169809,-4.403814,-0.026156,0.602906,0.009119,-39.537421,188.571288,0
0.037500,83.676078,107.172592,-180.042993,-0.498882,-5.423810,-0.704894,6.284953,5.432888,0.521446,-6.124531,-0.000585,0.602122,-0.050629,-26.214241,188.495718,0
0.038542,6.320225,152.258525,-186.173675,-0.600672,-4.032101,-2.663152,6.790367,4.021400,2.628521,-6.714600,-0.007891,0.614534,-0.028224,-12.291631,188.495702,0
0.039583,-63.311386,183.161478,-144.416099,0.179718,-1.656965,-4.568072,6.198758,1.727732,4.497896,-6.162600,0.014027,0.600097,-0.020755,7.082398,188.495808,0
0.040625,-115.759108,196.607524,-55.188826,1.876218,0.885035,-5.726264,4.702105,-0.900429,5.762947,-4.769276,-0.040768,0.595655,-0.017021,19.693048,188.571042,0
0.041667,-165.325835,162.623941,16.114205,3.222108,3.093308,-6.023431,2.692203,-2.999283,6.093311,-2.827759,-0.062686,0.601730,-0.065566,32.869198,188.495767,0
0.042708,-181.080569,112.693565,83.724053,4.511448,5.045961,-5.272893,0.004497,-5.002566,5.420497,-0.159125,-0.132093,0.592193,-0.031958,37.721188,188.495734,0
0.043750,-183.383096,24.792907,134.308334,5.506728,6.103944,-3.817534,-2.616604,-6.068534,3.949976,2.380075,-0.186888,0.584746,-0.054364,43.862517,188.495758,0
0.044792,-156.739563,-51.667134,170.661554,6.162708,6.356013,-1.893564,-4.575573,-6.366270,2.112832,4.466254,-0.216112,0.553259,-0.017021,45.174477,188.495756,0
0.045833,-83.659832,-107.154726,185.446591,6.479388,5.454243,0.830472,-6.409169,-5.509820,-0.546193,6.209812,-0.248989,0.600881,-0.061832,30.550648,188.495727,0
0.046875,-6.712308,-152.144013,181.396402,6.434148,4.105137,2.784920,-6.887157,-4.179198,-2.681470,6.777039,-0.234377,0.616690,-0.046895,15.270838,188.571080,0
0.047917,62.805877,-182.865752,143.319697,5.732928,1.772604,4.746988,-6.354317,-1.896558,-4.454153,6.282143,-0.285519,0.608524,-0.017021,-1.863812,188.495669,0
0.048958,115.423737,-196.505092,59.816856,4.115598,-0.762294,5.878511,-4.861583,0.720577,-5.836040,4.885012,-0.219765,0.600750,-0.035692,-15.922141,188.571158,0
0.050000,164.820327,-162.485267,-13.172727,2.679228,-3.048674,6.145200,-2.820337,2.922351,-6.110000,2.909233,-0.197847,0.595851,-0.043161,-28.159561,188.495676,0
0.051042,180.665800,-112.409920,-76.276894,1.548228,-4.955173,5.364182,-0.062108,4.899904,-5.449273,0.187303,-0.110175,0.589188,-0.031958,-32.921071,188.571120,0
0.052083,183.025040,-25.173712,-134.038258,0.383298,-6.084162,3.958351,2.484552,5.995278,-4.006954,-2.275759,-0.077298,0.594087,-0.005818,-39.367771,188.495640,0
0.053125,156.370164,51.672919,-170.563826,-0.317922,-6.268776,2.019142,4.533634,6.300365,-2.105348,-4.388586,-0.055380,0.608197,-0.039427,-38.225461,188.495720,0
0.054167,82.020073,107.885365,-182.418940,-0.555432,-5.430910,-0.697274,6.335886,5.418185,0.569792,-6.151179,0.003068,0.590233,-0.031958,-24.585601,188.495740,0
0.055208,6.308882,152.475982,-185.238069,-0.600672,-4.025000,-2.708870,6.806038,4.014049,2.676867,-6.737441,0.017680,0.614599,-0.028224,-12.088051,188.571136,0
0.056250,-62.449356,183.548067,-141.338447,0.236268,-1.621462,-4.644269,6.230101,1.705678,4.518040,-6.143565,0.003068,0.610027,-0.035692,7.138948,188.495801,0
0.057292,-115.872533,196.414229,-57.023106,1.842288,0.913437,-5.791031,4.725613,-0.933511,5.791149,-4.803538,-0.037115,0.603167,-0.035692,20.054968,188.495693,0
0.058333,-165.144355,162.780993,15.326326,3.233418,3.160763,-6.053910,2.672613,-3.069122,6.061080,-2.721166,-0.102869,0.593369,-0.039427,33.615658,188.495607,0
0.059375,-180.694924,112.017034,78.270455,4.387038,5.070813,-5.246224,-0.097369,-5.057703,5.360065,-0.041111,-0.139399,0.587293,-0.050629,37.992628,188.571167,0
0.060417,-183.746056,25.771460,129.297917,5.382318,6.192701,-3.802294,-2.644030,-6.123670,3.986236,2.479054,-0.190541,0.594349,-0.031958,43.172608,188.495832,0
0.061458,-157.023125,-50.700662,168.925758,6.128778,6.356013,-1.885944,-4.661768,-6.465515,2.080601,4.553812,-0.223418,0.610157,-0.020755,45.638187,188.571062,0
0.062500,-81.867717,-107.335940,184.449432,6.468078,5.543000,0.860951,-6.495363,-5.506144,-0.626769,6.278336,-0.248989,0.595916,-0.002084,30.561958,188.495731,0
0.063542,-5.135701,-152.144013,183.686175,6.445458,4.083835,2.826828,-6.898911,-4.208604,-2.693557,6.841757,-0.234377,0.625117,-0.065566,16.311358,188.571038,0
0.064583,62.306807,-183.663091,148.194697,5.732928,1.744202,4.769847,-6.369989,-1.892882,-4.603220,6.312598,-0.267254,0.615971,-0.054364,-2.157872,188.495702,0
0.065625,115.582532,-195.961452,57.908712,4.070358,-0.787146,5.950898,-4.908598,0.779389,-5.888415,4.942116,-0.219765,0.609177,-0.069301,-16.103101,188.571093,0
0.066667,165.092547,-162.763128,-2.167045,2.950668,-3.062875,6.217587,-2.839927,2.929702,-6.114029,2.894006,-0.197847,0.603690,-0.039427,-27.107731,188.495745,0
0.067708,180.075990,-110.682350,-83.601705,1.412508,-4.972924,5.352753,-0.019011,4.988122,-5.352581,0.134006,-0.124787,0.575796,-0.020755,-33.339541,188.571094,0
0.068750,183.308602,-25.016660,-133.570455,0.428538,-6.091262,3.927872,2.558993,6.035711,-3.966665,-2.374738,-0.080951,0.588796,-0.031958,-39.209431,188.495606,0
0.069792,156.653726,50.525233,-170.379167,-0.306612,-6.290078,2.000093,4.521880,6.315068,-2.125492,-4.419041,-0.048074,0.605584,-0.073035,-39.469561,188.571154,0
0.070833,82.609883,107.510857,-185.053410,-0.623292,-5.501916,-0.674415,6.355475,5.440240,0.549648,-6.166407,-0.004238,0.608981,-0.043161,-26.169001,188.495803,0
0.071875,4.494082,152.294768,-181.975758,-0.476262,-4.028550,-2.701250,6.806038,4.043455,2.640608,-6.710793,0.028639,0.589514,-0.017021,-12.008881,188.646458,0
0.072917,-63.254673,183.487662,-140.316667,0.281508,-1.625012,-4.602361,6.190922,1.753462,4.497896,-6.151179,-0.004238,0.606630,-0.031958,7.297288,188.495682,0
0.073958,-116.008643,196.317582,-57.503220,1.819668,0.853082,-5.741503,4.709941,-0.841617,5.791149,-4.837800,-0.033462,0.605323,-0.054364,19.659118,188.571160,0
0.075000,-165.518658,162.768912,14.513826,3.199488,3.093308,-6.034861,2.711793,-3.069122,6.097340,-2.774462,-0.051727,0.602253,-0.043161,32.937058,188.495709,0
0.076042,-180.774321,111.557960,82.320644,4.500138,5.031760,-5.230985,-0.062108,-4.987863,5.335892,-0.079180,-0.143052,0.583178,-0.031958,37.766428,188.646536,0
0.077083,-183.598604,23.898920,132.929546,5.495418,6.118145,-3.752766,-2.663619,-6.039128,3.889544,2.440985,-0.223418,0.551103,-0.031958,43.975617,188.495655,0
0.078125,-157.045810,-50.628177,169.873675,6.174018,6.327611,-1.851656,-4.634342,-6.380973,2.080601,4.485288,-0.219765,0.595524,-0.054364,45.095307,188.571118,0
0.079167,-83.376269,-107.094322,184.474054,6.456768,5.521698,0.868570,-6.444430,-5.542902,-0.598568,6.236460,-0.267254,0.607936,0.009119,30.550648,188.495758,0
0.080208,-5.498661,-152.301065,182.750569,6.422838,4.073185,2.838258,-6.922419,-4.131414,-2.705643,6.834143,-0.241683,0.603951,-0.054364,15.123808,188.646498,0
0.081250,63.690592,-183.324826,142.273296,5.665068,1.683847,4.743178,-6.334728,-1.815691,-4.534730,6.232653,-0.219765,0.598921,-0.043161,-2.225732,188.495694,0
0.082292,115.695957,-196.142665,58.364205,4.081668,-0.765845,5.897560,-4.838075,0.768361,-5.832011,4.923081,-0.223418,0.600881,-0.039427,-15.933451,188.571123,0
0.083333,165.534904,-162.618157,-14.256061,2.690538,-3.055774,6.198537,-2.785075,2.959108,-6.146260,2.916847,-0.212459,0.600816,0.012853,-28.193491,188.495687,0
0.084375,180.178072,-111.830036,-81.792046,1.423818,-5.011977,5.402281,-0.069944,4.955041,-5.421071,0.164461,-0.113828,0.591082,-0.035692,-32.966311,188.721944,0
0.085417,183.342630,-23.506547,-132.684091,0.405918,-6.091262,3.912633,2.551157,6.009981,-3.950550,-2.367125,-0.095563,0.580042,-0.020755,-39.526111,188.495740,0
0.086458,156.336136,52.156155,-170.416099,-0.317922,-6.254575,1.946755,4.580649,6.326095,-2.073118,-4.438076,-0.044421,0.580892,-0.009553,-38.134981,188.571102,0
0.087500,82.496458,107.402129,-184.954925,-0.623292,-5.345704,-0.758232,6.359393,5.407158,0.618138,-6.143565,0.010374,0.603755,-0.054364,-24.608221,188.495627,0
0.088542,6.320225,152.693438,-182.283523,-0.510192,-4.003698,-2.716490,6.809956,3.958912,2.688954,-6.729827,0.035945,0.608589,-0.017021,-12.325561,188.721922,0
0.089583,-63.175276,184.115869,-142.077084,0.224958,-1.561107,-4.697607,6.187004,1.613784,4.574444,-6.113110,-0.018850,0.607544,-0.031958,7.387768,188.495705,0
0.090625,-115.951931,196.293420,-60.433144,1.797048,0.963141,-5.794841,4.655090,-0.970269,5.803236,-4.735014,-0.026156,0.598072,-0.043161,20.122828,188.571107,0
0.091667,-165.881618,162.841397,11.928599,3.154248,3.217567,-6.034861,2.562911,-3.127934,6.073167,-2.664062,-0.062686,0.595263,-0.005818,33.638278,188.495607,0
0.092708,-180.536129,112.125762,79.895455,4.454898,5.092114,-5.211935,-0.105205,-5.087109,5.343950,0.008378,-0.128440,0.589906,-0.017021,38.083108,188.721916,0
0.093750,-183.961564,24.732503,131.095266,5.404938,6.206902,-3.748957,-2.687127,-6.119994,3.897601,2.551385,-0.164970,0.592454,-0.061832,43.376187,188.495761,0
0.094792,-156.229150,-52.319503,169.824432,6.162708,6.324061,-1.783079,-4.669604,-6.388324,1.983909,4.561426,-0.223418,0.586248,-0.046895,45.638187,188.571129,0
0.095833,-81.527442,-106.973513,185.323485,6.479388,5.447142,0.921908,-6.452266,-5.476738,-0.683173,6.308791,-0.248989,0.586705,0.005384,30.279208,188.495781,0
0.096875,-6.428746,-152.433955,182.479735,6.434148,4.048333,2.899215,-6.887157,-4.138765,-2.745931,6.834143,-0.259948,0.619107,-0.017021,16.582798,188.721884,0
0.097917,62.431575,-184.339622,141.756250,5.676378,1.683847,4.804136,-6.322974,-1.804664,-4.603220,6.259301,-0.270907,0.611660,-0.039427,-2.078702,188.495767,0
0.098958,115.548504,-195.743995,57.342424,4.059048,-0.858152,5.893750,-4.802814,0.823498,-5.864242,4.808874,-0.201500,0.599248,-0.028224,-16.125721,188.571080,0
0.100000,165.239999,-162.751047,-12.741856,2.724468,-3.137431,6.206157,-2.659701,3.025272,-6.126116,2.806447,-0.197847,0.591082,-0.043161,-26.938081,188.495759,0
0.101042,179.962565,-111.528014,-83.835606,1.378578,-5.036829,5.375612,0.004497,4.962392,-5.364668,0.122585,-0.128440,0.587881,-0.028224,-33.373471,188.646491,0
0.102083,183.739617,-24.968336,-130.197349,0.462468,-6.137416,3.935492,2.598172,6.065117,-3.922348,-2.405194,-0.066339,0.591409,-0.035692,-39.322531,188.493887,0
0.103125,156.097944,51.938698,-166.365910,-0.227442,-6.247474,1.946755,4.588485,6.307717,-2.057002,-4.449497,-0.018850,0.608197,-0.050629,-39.401701,188.570620,0
0.104167,80.647630,107.631666,-183.526895,-0.510192,-5.406058,-0.784901,6.398573,5.407158,0.642311,-6.212089,0.003068,0.578932,-0.069301,-26.010661,188.495394,0
0.105208,5.548935,152.620952,-186.235228,-0.611982,-3.989497,-2.758398,6.790367,3.988318,2.725213,-6.756476,0.003068,0.622242,-0.061832,-11.974951,188.714581,0
0.106250,-62.335931,184.381649,-149.574243,0.077928,-1.564657,-4.697607,6.226183,1.646866,4.590559,-6.234931,0.006721,0.613554,-0.050629,6.991918,188.570763,0
0.107292,-116.019986,196.063883,-59.792993,1.808358,0.927638,-5.764362,4.702105,-0.970269,5.823380,-4.750241,-0.026156,0.606956,-0.009553,19.659118,188.569154,0
0.108333,-165.564028,162.841397,12.925758,3.199488,3.224668,-6.080579,2.602090,-3.142637,6.105398,-2.698325,-0.051727,0.595459,-0.046895,32.801338,188.495240,0
0.109375,-180.479416,110.965995,81.372728,4.443588,5.159570,-5.177647,-0.163974,-5.123866,5.319777,0.046447,-0.154011,0.579716,-0.050629,37.766428,188.721523,0
0.110417,-184.052304,25.119092,132.449432,5.416248,6.221103,-3.760386,-2.722388,-6.149400,3.905659,2.524737,-0.197847,0.591148,-0.050629,44.133957,188.495189,0
0.111458,-156.909700,-50.821471,170.353788,6.174018,6.384416,-1.821177,-4.700947,-6.469191,2.044342,4.599495,-0.208806,0.606303,-0.024490,45.038757,188.569806,0
0.112500,-81.436702,-107.239293,185.803599,6.490698,5.511047,0.899049,-6.542379,-5.517171,-0.659000,6.308791,-0.252642,0.595067,-0.028224,30.335758,188.494686,0
0.113542,-4.421123,-152.591006,183.772349,6.490698,4.044782,2.925884,-6.883239,-4.109359,-2.758018,6.898860,-0.245336,0.578344,-0.035692,14.773198,188.720739,0
0.114583,62.726480,-184.279218,144.636932,5.710308,1.658995,4.834614,-6.358235,-1.830394,-4.643508,6.293564,-0.259948,0.612966,-0.043161,-2.123942,188.571500,0
0.115625,115.786697,-196.021856,55.889773,4.070358,-0.858152,6.004236,-4.830239,0.768361,-5.924674,4.904047,-0.252642,0.608981,-0.061832,-15.820351,188.571580,0
0.116667,165.784439,-162.799370,-15.917992,2.679228,-3.190685,6.259495,-2.765486,3.003217,-6.190577,2.844516,-0.179582,0.603037,-0.039427,-28.103011,188.496082,0
0.117708,180.064647,-110.271600,-83.207765,1.389888,-5.061681,5.348943,0.082856,5.039583,-5.348552,0.069289,-0.139399,0.578997,-0.035692,-33.011551,188.722338,0
0.118750,183.716932,-23.494466,-126.208713,0.552948,-6.140966,3.897394,2.617762,6.105550,-3.906233,-2.466104,-0.073645,0.581218,-0.043161,-39.741001,188.571522,0
0.119792,156.653726,51.093035,-169.098864,-0.250062,-6.307829,1.908657,4.608075,6.333447,-2.040887,-4.460917,-0.040768,0.607675,-0.017021,-38.021881,188.571502,0
0.120833,81.430263,107.281320,-184.991857,-0.578052,-5.452212,-0.807760,6.476932,5.392455,0.638282,-6.292034,-0.018850,0.615187,-0.028224,-24.608221,188.496226,0
0.121875,4.652877,152.886732,-190.974811,-0.691152,-3.996598,-2.781257,6.829546,3.991994,2.729242,-6.790738,-0.004238,0.603625,0.005384,-12.065431,188.722297,0
0.122917,-63.424811,184.889047,-138.310038,0.292818,-1.511403,-4.739515,6.226183,1.621135,4.626819,-6.185441,0.014027,0.604539,-0.020755,7.727068,188.571545,0
0.123958,-116.088041,196.039721,-56.013637,1.842288,1.005744,-5.832939,4.682516,-1.003350,5.879783,-4.746434,-0.048074,0.603559,-0.009553,20.100208,188.496071,0
0.125000,-166.346660,163.191743,15.547917,3.233418,3.277922,-6.099628,2.598172,-3.190422,6.133599,-2.705938,-0.080951,0.601208,-0.046895,33.649588,188.496125,0
0.126042,-180.309279,111.219694,83.096212,4.511448,5.145369,-5.189076,-0.183564,-5.160624,5.364094,0.069289,-0.146705,0.588012,-0.046895,38.026558,188.722340,0
0.127083,-184.165729,23.101581,133.902084,5.472798,6.281458,-3.699429,-2.777240,-6.178806,3.845227,2.600875,-0.190541,0.580304,-0.043161,43.545837,188.496183,0
