1-Time,2-VGERA,3-VGERB,4-VGERC,5-VN,6-IGERAN,7-IGERBN,8-IGERCN,9-IGERAT,10-IGERBT,11-IGERCT,12-IN,13-IFD,14-IFAULT,15-VFAULT,16-Speed (rad/s),17-Active Power,18-Reactive Power,19-FAULT 
0.000000,117.136454,82.636276,-186.900001,-0.623292,-5.906648,0.359647,5.509564,5.973223,-0.460404,-5.295530,-0.033462,0.592846,-0.069301,1.925038,188.419875,1609.353086,898.791858,0
0.001042,35.561191,135.429826,-190.827084,-0.759012,-4.401330,-2.112780,6.311808,4.484545,1.986268,-5.967963,-0.015197,0.618453,-0.061832,3.825118,188.419867,1608.923106,898.818464,0
0.002083,-41.034715,171.430920,-162.180304,-0.182202,-2.398973,-4.263753,6.173748,2.448179,4.218909,-6.035562,0.014027,0.613619,-0.069301,5.385898,188.274824,1608.279298,898.564299,0
0.003125,-100.027060,187.474361,-91.308144,1.186308,0.316990,-5.910715,5.050605,-0.172631,5.838832,-4.886378,-0.000585,0.607348,-0.028224,6.596068,188.195409,1608.345745,898.382864,0
0.004167,-145.918817,186.145461,-8.691667,2.713158,2.539464,-6.529814,3.371489,-2.532462,6.619417,-3.345830,-0.055380,0.605780,-0.043161,7.387768,188.419809,1609.235918,898.701034,0
0.005208,-173.889423,139.029935,62.352841,4.036428,4.676732,-5.998024,0.800575,-4.554125,6.078044,-0.912263,-0.106522,0.597288,-0.058098,7.874098,188.419822,1609.738668,898.208680,0
0.006250,-196.426972,56.142853,116.667235,5.076948,6.139446,-4.771731,-1.647204,-6.131022,4.995297,1.567556,-0.113828,0.597092,-0.028224,7.975888,188.269012,1609.523531,897.671420,0
0.007292,-163.919365,-13.588125,165.552652,6.015678,6.508675,-2.827125,-3.781547,-6.480218,3.106785,3.549277,-0.212459,0.601338,-0.076769,5.057908,188.193680,1609.195766,897.073217,0
0.008333,-116.677851,-82.739219,187.059281,6.422838,5.983234,-0.168174,-5.602456,-6.009722,0.425099,5.413589,-0.227071,0.577560,-0.054364,2.954248,188.419822,1607.693338,897.083187,0
0.009375,-35.000505,-135.182424,190.690910,6.502008,4.545372,2.280442,-6.359924,-4.568828,-2.013180,6.114484,-0.248989,0.589449,-0.043161,0.895828,188.419835,1607.002335,895.886894,0
0.010417,40.948879,-171.171437,162.007197,5.993058,2.503962,4.451257,-6.344998,-2.580247,-4.245821,6.174968,-0.267254,0.604996,-0.039427,-0.868532,188.269096,1606.459197,896.147209,0
0.011459,100.043306,-187.420253,91.541288,4.624548,-0.165848,6.098220,-5.162154,0.055266,-5.916104,5.054246,-0.223418,0.609047,-0.035692,-1.716782,188.193660,1606.229160,895.961885,0
0.012503,145.957748,-185.487308,8.986364,3.120318,-2.438026,6.653821,-3.460650,2.415097,-6.545608,3.463889,-0.183235,0.607414,-0.076769,-2.553721,188.426121,1605.804456,896.080177,0
0.013541,173.712847,-138.577158,-61.947349,1.751808,-4.564642,6.122031,-0.837496,4.488220,-6.042005,1.026763,-0.154011,0.597419,-0.054364,-2.994811,188.419970,1605.814947,895.190336,0
0.014583,195.978175,-55.182677,-116.471023,0.722598,-6.027357,4.927487,1.587894,6.068793,-4.950865,-1.445940,-0.102869,0.595328,-0.084238,-2.802541,188.269494,1605.913522,894.098002,0
0.015625,163.266404,14.802000,-165.676516,-0.261372,-6.350432,2.955101,3.778208,6.370204,-3.058156,-3.420545,-0.026156,0.616036,-0.035692,-0.303032,188.194043,1605.281553,893.571248,0
0.016666,115.990862,83.651071,-186.900001,-0.623292,-5.856944,0.323930,5.561803,5.954845,-0.355486,-5.291972,-0.022503,0.582263,-0.031958,1.913728,188.420345,1605.180339,892.853554,0
0.017708,34.744531,135.888900,-190.839395,-0.691152,-4.419081,-2.160403,6.319271,4.506599,2.036629,-6.010657,-0.022503,0.569198,-0.046895,3.994768,188.420280,1606.007702,893.262530,0
0.018750,-40.966660,171.116816,-162.254167,-0.193512,-2.342168,-4.303439,6.188673,2.426125,4.298646,-6.007100,0.014027,0.610876,-0.046895,5.589478,188.269214,1606.633494,892.330231,0
0.019791,-99.902293,188.283781,-90.778788,1.208928,0.366694,-5.974212,4.998366,-0.260849,5.956340,-4.882820,-0.037115,0.607805,-0.058098,6.675238,188.194052,1608.699035,891.686135,0
0.020833,-146.202380,185.577659,-8.888636,2.701848,2.674375,-6.490128,3.270742,-2.602302,6.602630,-3.267558,-0.055380,0.601796,-0.043161,7.466938,188.420314,1608.947149,890.203821,0
0.021878,-175.511401,137.217800,62.599053,4.036428,4.747737,-5.914684,0.688634,-4.653370,6.090634,-0.755718,-0.099216,0.593761,-0.069301,7.817548,188.420236,1610.487632,889.024234,0
0.022917,-196.313547,54.475688,116.593372,5.043018,6.182050,-4.763794,-1.740488,-6.197185,4.902970,1.652945,-0.135746,0.601338,-0.013287,7.953268,188.269462,1610.970317,887.718922,0
0.023958,-163.386268,-15.303613,166.057387,6.026988,6.526427,-2.771565,-3.900951,-6.494921,3.010261,3.648897,-0.197847,0.593042,-0.017021,5.035288,188.194089,1611.817199,886.876435,0
0.025000,-116.314891,-83.476155,186.726895,6.445458,6.000986,-0.116583,-5.688277,-6.013398,0.303394,5.498977,-0.219765,0.600620,-0.024490,3.089968,188.420072,1613.221870,885.782887,0
0.026042,-35.136615,-135.810631,190.863258,6.535938,4.495668,2.411405,-6.419626,-4.572504,-2.080327,6.182083,-0.263601,0.610288,-0.046895,0.827968,188.420287,1614.795581,885.735053,0
0.027083,40.676659,-170.712362,162.204167,5.981748,2.422305,4.486975,-6.300222,-2.532462,-4.371721,6.164294,-0.259948,0.614599,-0.054364,-0.913772,188.289074,1616.195951,884.322603,0
0.028125,99.612291,-188.664586,90.888826,4.613238,-0.265255,6.173623,-5.087527,0.125105,-5.962268,5.057804,-0.234377,0.610549,-0.046895,-1.705472,188.213315,1617.456570,883.886611,0
0.029167,145.867008,-185.173204,8.826326,3.075078,-2.530333,6.685570,-3.367365,2.477585,-6.574985,3.385616,-0.201500,0.598333,-0.058098,-2.644201,188.443752,1618.106471,882.674782,0
0.030208,174.767699,-137.212016,-62.082765,1.740498,-4.649849,6.145843,-0.744212,4.524978,-6.054595,0.955607,-0.110175,0.593957,-0.073035,-3.006121,188.282908,1618.649287,882.394762,0
0.031250,195.728640,-53.298056,-116.446402,0.733908,-6.027357,4.899707,1.617745,6.094523,-4.921488,-1.463729,-0.099216,0.600358,-0.058098,-2.972191,188.287781,1618.289540,882.412135,0
0.032292,163.323116,15.683906,-165.959660,-0.216132,-6.435639,2.935258,3.834179,6.399610,-3.028780,-3.513049,-0.029809,0.603821,-0.046895,-0.269102,188.202264,1619.517826,882.129514,0
0.033333,116.104287,83.651071,-186.801516,-0.600672,-5.881796,0.288213,5.584191,5.940142,-0.393257,-5.348898,-0.022503,0.593957,-0.005818,1.913728,188.426842,1619.921366,882.289299,0
0.034375,35.549848,135.961386,-190.987122,-0.725082,-4.411980,-2.180246,6.349122,4.418381,2.066005,-6.067583,0.050557,0.621524,-0.080503,3.768568,188.420101,1620.903612,881.038706,0
0.035417,-40.365507,171.116816,-162.328031,-0.216132,-2.317316,-4.327250,6.207330,2.429800,4.332220,-6.024889,-0.018850,0.613097,-0.035692,5.419828,188.344608,1621.558695,880.848753,0
0.036472,-100.514788,190.337535,-87.811932,1.265478,0.508705,-6.033741,4.931201,-0.360094,5.947946,-4.822337,-0.018850,0.601926,-0.035692,6.629998,188.269225,1621.565162,880.510207,0
0.037511,-146.792190,184.212516,-6.574242,2.735778,2.695677,-6.513940,3.218503,-2.642735,6.606827,-3.207074,-0.037115,0.598987,-0.024490,7.410388,188.420050,1621.001078,880.482212,0
0.038551,-175.987786,135.321098,63.657765,4.059048,4.783240,-5.958338,0.606544,-4.690128,6.069650,-0.709466,-0.091910,0.589057,-0.061832,7.941958,188.420066,1620.762718,880.457564,0
0.039590,-196.029984,52.542744,117.467425,5.099568,6.196251,-4.720140,-1.755413,-6.208212,4.902970,1.667176,-0.161317,0.594936,-0.039427,7.964578,188.344733,1620.381738,881.158133,0
0.040633,-163.227473,-16.004306,166.968372,6.060918,6.551279,-2.731879,-3.983041,-6.509624,3.018655,3.709380,-0.219765,0.601992,-0.058098,5.091838,188.269295,1621.192268,881.550889,0
0.041670,-116.700536,-83.572802,186.936175,6.445458,6.004536,-0.108645,-5.729322,-6.042804,0.332771,5.516766,-0.216112,0.600685,-0.043161,2.999488,188.419994,1621.669508,882.149370,0
0.042710,-35.805822,-136.028087,190.752463,6.490698,4.520520,2.367751,-6.400969,-4.528395,-2.097114,6.206988,-0.208806,0.609896,-0.054364,0.929758,188.495445,1622.165357,881.477447,0
0.043750,40.517864,-170.978142,162.191857,5.981748,2.432956,4.486975,-6.259177,-2.532462,-4.380115,6.185641,-0.248989,0.611398,-0.039427,-0.913772,188.344668,1622.550326,881.631662,0
0.044791,99.907196,-188.749152,90.236364,4.601928,-0.286557,6.169654,-5.098721,0.187593,-5.953875,5.025783,-0.241683,0.603755,-0.035692,-1.694162,188.269321,1622.490027,880.944229,0
0.045833,145.878351,-185.306094,8.038447,3.063768,-2.505481,6.665727,-3.359903,2.506991,-6.633739,3.414079,-0.197847,0.595524,-0.035692,-2.553721,188.420103,1623.338177,881.658593,0
0.046875,174.552192,-136.583809,-62.550568,1.763118,-4.681802,6.133937,-0.755406,4.558060,-6.092365,0.884450,-0.110175,0.592389,-0.046895,-3.017431,188.495374,1623.941887,881.284211,0
0.047916,195.683270,-53.491351,-116.692614,0.699978,-6.034458,4.903676,1.651327,6.120253,-4.904701,-1.531328,-0.106522,0.590886,-0.061832,-2.757301,188.344601,1624.763801,880.548605,0
0.048958,163.164321,14.946970,-166.599811,-0.261372,-6.471142,2.931290,3.845373,6.414313,-3.024583,-3.555743,-0.029809,0.609308,-0.009553,-0.303032,188.269281,1625.589939,880.278475,0
0.050000,116.898262,83.614829,-186.727652,-0.634602,-5.881796,0.240590,5.632699,5.951169,-0.309323,-5.366687,-0.026156,0.611333,-0.046895,1.868488,188.420052,1626.582280,879.300257,0
0.051041,35.640588,136.408379,-190.851705,-0.725082,-4.344525,-2.251681,6.356585,4.429408,2.137349,-6.096046,-0.011544,0.614142,-0.058098,3.938218,188.495486,1627.606233,879.097720,0
0.052083,-41.352305,170.899360,-162.241857,-0.170892,-2.242760,-4.358999,6.170016,2.323204,4.340613,-6.017773,0.010374,0.606434,-0.028224,5.634718,188.344619,1627.605883,878.081357,0
0.053125,-99.959005,189.781813,-88.649053,1.163688,0.501605,-6.013898,4.957321,-0.345391,5.989913,-4.825894,-0.029809,0.599575,-0.043161,6.675238,188.344594,1628.085132,877.769931,0
0.054166,-145.884790,185.082342,-7.399053,2.735778,2.734730,-6.517908,3.225965,-2.712574,6.619417,-3.217748,-0.048074,0.593565,-0.058098,7.444318,188.419999,1629.278254,876.890507,0
0.055208,-175.919731,136.263408,62.660606,4.036428,4.850695,-5.990087,0.647589,-4.708506,6.103224,-0.752160,-0.132093,0.591082,-0.028224,7.828858,188.495423,1630.008745,877.102925,0
0.056250,-196.029984,54.137423,116.888826,5.099568,6.217553,-4.736014,-1.788996,-6.281727,4.944937,1.684965,-0.154011,0.599640,-0.058098,7.930648,188.419978,1631.607691,876.898291,0
0.057291,-163.511035,-14.361303,166.943751,6.049608,6.551279,-2.731879,-3.994235,-6.553733,2.985081,3.716496,-0.186888,0.608197,-0.028224,5.046598,188.347583,1632.551642,876.115188,0
0.058333,-117.279003,-83.415750,186.628410,6.422838,5.969033,-0.072928,-5.703203,-6.075885,0.269821,5.513208,-0.234377,0.616298,-0.024490,3.056038,188.420276,1633.172875,875.536228,0
0.059375,-35.227355,-136.281786,190.949432,6.490698,4.460165,2.439185,-6.423357,-4.491637,-2.164261,6.214104,-0.256295,0.610288,0.009119,0.816658,188.495758,1633.698862,874.879092,0
0.060416,41.981046,-170.362016,162.019508,5.970438,2.390353,4.542535,-6.225595,-2.414838,-4.401098,6.153621,-0.230724,0.577560,-0.043161,-0.947702,188.420312,1633.417824,873.559819,0
0.061458,100.065991,-189.908919,88.648296,4.590618,-0.339811,6.185528,-5.087527,0.231702,-5.987448,4.986647,-0.219765,0.604474,-0.043161,-1.671542,188.344858,1633.809249,873.362256,0
0.062500,145.946406,-184.629564,7.656818,3.097698,-2.501931,6.649853,-3.359903,2.488612,-6.608559,3.374942,-0.197847,0.602449,-0.028224,-2.632891,188.420245,1632.972331,873.025202,0
0.063541,175.607044,-136.656294,-62.156629,1.751808,-4.681802,6.137905,-0.751675,4.547032,-6.096562,0.912912,-0.135746,0.597811,-0.043161,-2.994811,188.495841,1633.139611,873.555214,0
0.064583,195.433735,-54.059153,-116.889584,0.711288,-6.098363,4.907644,1.651327,6.079820,-4.900505,-1.513539,-0.077298,0.600228,-0.013287,-2.949571,188.495674,1632.612066,873.476589,0
0.065625,163.379829,14.753676,-166.710607,-0.317922,-6.435639,2.911447,3.860298,6.429016,-2.995206,-3.534396,-0.055380,0.612835,-0.061832,-0.257792,188.344956,1632.695811,873.300120,0
0.066668,116.308452,84.073903,-186.456819,-0.645912,-5.842743,0.244558,5.591654,5.936466,-0.284143,-5.363129,0.021333,0.591605,-0.054364,1.936348,188.495734,1632.359134,873.122830,0
0.067708,34.120693,136.396298,-191.036364,-0.736392,-4.362277,-2.192152,6.330465,4.396327,2.103776,-6.024889,0.028639,0.590037,-0.017021,3.768568,188.495626,1630.794386,873.212503,0
0.068750,-42.384473,170.742308,-161.897160,-0.204822,-2.260512,-4.339156,6.143897,2.363637,4.340613,-6.010657,0.028639,0.592519,-0.050629,5.487688,188.495635,1630.323568,874.006719,0
0.069791,-100.321965,189.407305,-88.710606,1.208928,0.409297,-6.017867,5.013292,-0.297606,5.956340,-4.854357,-0.011544,0.601077,-0.017021,6.618688,188.420229,1629.666875,874.837298,0
0.070833,-146.451915,184.961532,-7.522159,2.735778,2.649523,-6.513940,3.263279,-2.628032,6.594237,-3.235537,-0.069992,0.602514,-0.020755,7.387768,188.495660,1628.666497,875.668567,0
0.071875,-175.704223,136.976182,62.734470,4.036428,4.751288,-5.970244,0.673708,-4.612937,6.090634,-0.812643,-0.110175,0.599313,-0.058098,7.919338,188.495631,1627.455715,876.379014,0
0.072916,-196.188779,54.717306,117.319697,5.088258,6.206902,-4.751889,-1.729294,-6.215564,4.902970,1.628040,-0.143052,0.605780,-0.061832,7.964578,188.495501,1626.353313,876.333609,0
0.073958,-163.533720,-14.880782,166.611364,6.072228,6.533527,-2.775534,-3.915877,-6.516975,3.043835,3.631107,-0.219765,0.609569,-0.028224,5.057908,188.495741,1624.876705,877.375072,0
0.075000,-116.269521,-83.862743,187.010038,6.434148,5.979684,-0.072928,-5.673352,-6.013398,0.324378,5.456283,-0.238030,0.603037,-0.046895,2.897698,188.495671,1623.227068,877.850776,0
0.076041,-33.820885,-136.076411,190.900190,6.535938,4.467265,2.316159,-6.397238,-4.462231,-2.097114,6.160736,-0.252642,0.585660,-0.028224,0.907138,188.495787,1621.498032,878.190538,0
0.077083,42.344006,-170.760686,161.760985,5.981748,2.443607,4.463163,-6.244251,-2.473650,-4.321361,6.132274,-0.234377,0.598137,-0.069301,-0.891152,188.495754,1620.241069,879.317768,0
0.078125,100.451636,-188.737071,89.436175,4.635858,-0.254605,6.137905,-5.091258,0.143484,-5.953875,5.022225,-0.216112,0.604213,-0.046895,-1.750712,188.495758,1619.300498,880.325009,0
0.079166,146.502188,-184.738292,8.001515,3.075078,-2.473529,6.689539,-3.441993,2.429800,-6.583378,3.495909,-0.208806,0.606368,-0.065566,-2.576341,188.571122,1618.801613,882.151716,0
0.080208,175.130659,-136.897912,-62.476705,1.717878,-4.607246,6.145843,-0.747944,4.495572,-6.054595,0.944933,-0.172276,0.594022,-0.058098,-3.017431,188.495678,1617.692024,882.242052,0
0.081250,195.558503,-54.034991,-117.098864,0.666048,-5.995405,4.891770,1.647596,6.072469,-4.908898,-1.431709,-0.051727,0.598725,-0.050629,-2.745991,188.495653,1617.066986,883.190088,0
0.082291,162.858074,16.058414,-166.599811,-0.283992,-6.357533,2.915415,3.796865,6.370204,-3.037173,-3.495260,-0.011544,0.601404,-0.050629,-0.280412,188.571093,1615.564512,883.990384,0
0.083333,115.412394,84.762515,-186.555304,-0.600672,-5.849843,0.288213,5.576728,5.914411,-0.351290,-5.352456,0.010374,0.600946,-0.028224,1.936348,188.571187,1614.625862,884.961268,0
0.084375,33.360746,136.710402,-190.716288,-0.770322,-4.351626,-2.156435,6.356585,4.407354,2.099579,-6.024889,0.068822,0.589123,-0.020755,4.006078,188.495653,1614.322631,885.446407,0
0.085416,-42.100910,170.887279,-161.971023,-0.204822,-2.303115,-4.291533,6.181210,2.389367,4.294449,-5.950174,0.006721,0.606826,-0.054364,5.634718,188.571087,1613.294963,885.395856,0
0.086458,-100.469418,189.165687,-89.067614,1.197618,0.402197,-5.990087,5.002097,-0.293930,5.947946,-4.843684,-0.026156,0.606042,-0.009553,6.709168,188.571192,1613.134864,885.247376,0
0.087500,-146.678765,184.804481,-8.039205,2.724468,2.631772,-6.474254,3.267010,-2.602302,6.585844,-3.207074,-0.102869,0.601338,-0.028224,7.478248,188.571049,1612.839028,884.944362,0
0.088541,-175.874361,136.601674,62.734470,4.013808,4.765489,-5.910715,0.628932,-4.631316,6.078044,-0.777065,-0.117481,0.591540,-0.017021,7.806238,188.495635,1612.981004,884.470567,0
0.089583,-195.916559,53.376326,117.282766,5.076948,6.128796,-4.704266,-1.710637,-6.164103,4.869396,1.628040,-0.132093,0.587424,-0.017021,7.953268,188.570933,1611.728367,884.296647,0
0.090625,-162.921225,-16.306328,166.648296,6.072228,6.505125,-2.747754,-3.900951,-6.454488,2.968294,3.645339,-0.175929,0.591997,-0.024490,5.035288,188.571044,1610.807013,883.458404,0
0.091666,-115.668368,-84.575517,186.480682,6.422838,5.965483,-0.100708,-5.636038,-5.972964,0.332771,5.459841,-0.241683,0.601208,-0.031958,3.010798,188.571377,1610.116066,883.435135,0
0.092708,-34.195187,-136.463000,190.715531,6.524628,4.481467,2.328065,-6.378581,-4.510016,-2.042557,6.125158,-0.234377,0.616102,-0.020755,0.816658,188.495626,1609.427988,884.326745,0
0.093750,41.550031,-170.482825,161.859470,6.015678,2.447157,4.479037,-6.221863,-2.484678,-4.203854,6.125158,-0.230724,0.609504,-0.031958,-0.936392,188.646650,1608.095771,884.477531,0
0.094791,100.281499,-188.845799,89.743940,4.613238,-0.233303,6.106157,-5.068870,0.139808,-5.932891,5.043572,-0.216112,0.603298,-0.054364,-1.671542,188.646533,1608.078221,884.610186,0
0.095833,146.445476,-184.448350,8.075379,3.063768,-2.434475,6.649853,-3.374828,2.437152,-6.554002,3.414079,-0.190541,0.605650,-0.039427,-2.678131,188.571011,1607.625825,883.368902,0
0.096875,175.107974,-136.499242,-62.735227,1.717878,-4.557542,6.082345,-0.800183,4.469842,-6.029415,0.980511,-0.164970,0.595067,-0.024490,-3.006121,188.495720,1606.825499,883.769125,0
0.097916,195.422393,-52.669849,-117.012690,0.733908,-5.981203,4.891770,1.614014,6.021008,-4.900505,-1.431709,-0.069992,0.591017,-0.031958,-2.949571,188.571026,1605.715388,883.884778,0
0.098958,162.733306,16.662459,-166.242804,-0.250062,-6.329131,2.990818,3.699849,6.322420,-3.087533,-3.420545,-0.040768,0.593826,-0.046895,-0.257792,188.721855,1604.165988,884.717366,0
0.100000,115.469107,84.569220,-186.333713,-0.611982,-5.817891,0.339804,5.490907,5.907060,-0.439420,-5.256394,-0.026156,0.604670,-0.028224,1.970278,188.571185,1602.456786,885.574078,0
0.101041,34.642448,136.577512,-190.383902,-0.725082,-4.387129,-2.100875,6.263300,4.473517,1.948498,-5.999984,0.024986,0.612640,-0.035692,3.802498,188.571093,1601.213340,887.013083,0
0.102083,-41.227538,171.104736,-161.798675,-0.204822,-2.352819,-4.208193,6.140165,2.422449,4.227302,-5.950174,0.032292,0.612966,-0.035692,5.442448,188.646484,1600.513931,887.421021,0
0.103125,-100.696268,188.247538,-89.904735,1.163688,0.334742,-5.930558,4.968515,-0.172631,5.897586,-4.879262,-0.029809,0.605127,-0.039427,6.652618,188.721925,1599.277057,888.714226,0
0.104166,-146.542655,185.058180,-7.423674,2.701848,2.582068,-6.438537,3.293130,-2.473650,6.552270,-3.285347,-0.037115,0.597941,-0.005818,7.421698,188.571064,1597.720396,890.521461,0
0.105208,-174.638028,136.770806,63.682387,4.025118,4.641229,-5.930558,0.744604,-4.495313,6.044470,-0.869569,-0.091910,0.595263,-0.073035,7.885408,188.570989,1595.209235,891.639509,0
0.106250,-196.041327,52.856847,117.664394,5.099568,6.103944,-4.771731,-1.583770,-6.061182,4.923953,1.528420,-0.143052,0.593173,-0.046895,7.964578,188.721916,1593.380476,893.277118,0
0.107291,-163.057335,-15.762688,166.168182,6.038298,6.441220,-2.890623,-3.759159,-6.472866,3.073212,3.510141,-0.186888,0.615383,-0.017021,5.069218,188.721916,1592.095431,895.061692,0
0.108333,-116.348918,-83.862743,186.714584,6.422838,5.976134,-0.243577,-5.512903,-6.024425,0.454475,5.395799,-0.212459,0.606368,-0.050629,2.999488,188.571132,1591.398212,896.593982,0
0.109375,-35.544945,-136.269705,190.149243,6.502008,4.524070,2.236788,-6.262908,-4.612937,-1.912459,6.082464,-0.252642,0.614469,-0.013287,0.895828,188.571084,1590.159758,898.170558,0
0.110416,40.892166,-171.123113,161.650190,5.925198,2.493311,4.363948,-6.203206,-2.598626,-4.178673,6.075348,-0.267254,0.606630,-0.035692,-0.925082,188.721920,1589.374879,899.184660,0
0.111458,101.052789,-187.565223,90.260985,4.590618,-0.165848,6.054565,-5.083795,0.040563,-5.811187,5.025783,-0.227071,0.602906,-0.035692,-1.716782,188.797307,1586.897461,899.867780,0
