1-Time,2-VGERA,3-VGERB,4-VGERC,5-VN,6-IGERAN,7-IGERBN,8-IGERCN,9-IGERAT,10-IGERBT,11-IGERCT,12-IN,13-IFD,14-IFAULT,15-VFAULT,16-Speed (rad/s),17-Active Power,18-Reactive Power,19-FAULT 
0.000000,-124.030879,-54.028455,189.753368,3.894726,3.304523,2.105141,-4.969651,-3.080666,-2.013605,5.045635,-0.236703,0.434642,-0.078573,64.010044,187.891998,1378.897378,-98.740679,0
0.001042,-50.479665,-111.285379,190.847019,3.928504,1.385388,3.863071,-4.670641,-1.220015,-3.721509,4.754190,-0.200241,0.427958,-0.086006,-68.905736,187.892050,1382.543789,-101.419271,0
0.002083,15.873497,-163.139598,163.918914,3.466873,-0.555763,4.900933,-3.709267,0.705922,-4.884068,3.868501,-0.236703,0.425753,-0.074856,-182.175740,187.683176,1386.625555,-104.627587,0
0.003125,70.655535,-184.879612,96.051828,2.183313,-2.695065,5.146319,-1.794089,2.649994,-5.057395,1.979789,-0.149195,0.416659,-0.059989,-259.970764,187.832365,1390.750438,-107.088314,0
0.004168,131.528232,-185.196727,23.275466,0.775900,-4.214227,4.760138,-0.106006,4.195096,-4.795291,0.227336,-0.141902,0.411353,-0.045123,-322.488240,187.905781,1394.044313,-109.645225,0
0.005208,170.501675,-138.193197,-39.682345,-0.462623,-5.069214,3.420571,1.937860,4.974901,-3.472087,-1.797636,-0.090856,0.414936,-0.071140,-308.336526,187.897306,1397.820720,-112.911668,0
0.006250,197.519796,-64.963059,-91.873775,-1.487219,-5.351764,1.658619,3.754630,5.323093,-1.764183,-3.746908,-0.036163,0.409493,-0.093440,-256.717108,187.750269,1401.066491,-115.332105,0
0.007292,168.569388,-3.395716,-153.908059,-2.680705,-4.654564,-0.167697,4.723575,4.641217,0.036726,-4.685587,-0.014286,0.403637,-0.063706,-166.898194,187.901674,1405.318041,-118.659598,0
0.008333,122.917689,55.023964,-189.378789,-3.288707,-3.344562,-2.162968,5.208047,3.491458,2.057465,-5.294971,-0.006994,0.417417,-0.063706,-62.488491,187.899530,1408.617932,-121.055096,0
0.009375,49.016178,111.728873,-191.347359,-3.446337,-1.388733,-3.961124,4.962026,1.554640,3.858374,-5.033807,0.000299,0.417072,-0.074856,69.976956,187.910239,1413.588529,-123.393104,0
0.010417,-16.206991,162.408591,-164.006098,-2.860854,0.614799,-4.942669,3.936307,-0.331400,4.940610,-4.049708,-0.025225,0.437880,-0.067423,181.378078,187.768254,1416.469839,-125.378314,0
0.011467,-70.672632,187.495933,-93.441341,-1.566034,2.845838,-5.220237,1.975710,-2.406044,5.194260,-2.066371,-0.079917,0.411284,-0.063706,263.530073,187.910111,1420.192023,-128.491788,0
0.012510,-132.268524,183.502629,-23.301892,-0.226178,4.262255,-4.705328,0.196789,-3.896741,4.779966,-0.287423,-0.112733,0.418519,-0.074856,313.595843,187.905576,1421.737872,-131.208645,0
0.013547,-173.411553,136.581314,38.659482,1.001086,5.168615,-3.385875,-1.858432,-4.701935,3.511720,1.771614,-0.171072,0.417348,-0.045123,310.724970,187.914668,1426.276978,-133.157913,0
0.014589,-197.265695,65.336083,92.783028,2.081979,5.366766,-1.591741,-3.652493,-5.006603,1.689673,3.705747,-0.196595,0.422722,-0.048839,256.133354,187.974636,1428.604054,-135.953101,0
0.015629,-168.484785,4.132835,155.765143,3.286724,4.695253,0.274802,-4.659286,-4.292084,-0.102781,4.640640,-0.225764,0.425340,-0.037689,167.125039,187.974231,1432.313466,-138.564084,0
0.016671,-123.669281,-54.815370,189.024268,3.894726,3.271497,2.282141,-5.011286,-3.033515,-2.161567,5.136475,-0.240349,0.422584,-0.048839,62.197454,187.971764,1433.356618,-140.446174,0
0.017714,-48.660377,-112.859210,191.952821,4.007319,1.330346,4.152707,-4.803114,-1.154729,-3.958248,4.867740,-0.203887,0.430163,-0.059989,-72.440850,187.893488,1436.773618,-142.111477,0
0.018760,17.636285,-162.211743,163.080449,3.433095,-0.713550,5.045751,-3.667633,0.818359,-4.934798,3.857146,-0.196595,0.428854,-0.067423,-182.918790,187.967672,1436.842394,-143.089104,0
0.019805,70.825033,-189.507146,91.227614,2.036942,-2.977615,5.303205,-1.733530,2.911138,-5.196902,1.907874,-0.152841,0.415350,-0.086006,-265.307210,188.118239,1440.170328,-145.166725,0
0.020838,131.573432,-183.857796,22.765096,0.742122,-4.353667,4.772206,-0.000028,4.351057,-4.786836,0.106216,-0.127317,0.414523,-0.052556,-317.928619,187.967630,1440.777834,-147.437214,0
0.021884,174.287150,-135.433120,-39.099065,-0.451364,-5.260027,3.408503,2.081688,5.138116,-3.446723,-1.967961,-0.083563,0.415556,-0.056273,-312.321973,187.967573,1443.265863,-149.398722,0
0.022922,197.067799,-63.459698,-92.214022,-1.453441,-5.373781,1.622414,3.853039,5.431903,-1.696543,-3.841533,-0.028871,0.398125,-0.059989,-254.229018,188.042859,1444.583982,-150.376779,0
0.023961,168.524188,-2.608801,-155.196136,-2.691964,-4.687589,-0.292402,4.878757,4.633963,0.133958,-4.806707,-0.003348,0.420241,-0.067423,-166.211436,188.118230,1446.033467,-151.861369,0
0.025001,122.318793,55.094434,-189.147907,-3.299967,-3.263834,-2.243422,5.230756,3.429799,2.167379,-5.313896,0.000299,0.402190,-0.082290,-61.486501,188.118302,1446.014377,-153.445626,0
0.026042,47.897485,112.116458,-192.258735,-3.412560,-1.363047,-4.037556,4.988520,1.525624,3.900649,-5.045162,-0.006994,0.410044,-0.037689,71.429280,187.967439,1446.637311,-153.765638,0
0.027083,-16.726788,162.103221,-163.447121,-2.894632,0.618468,-4.998987,3.879533,-0.396686,4.978658,-4.026998,-0.032517,0.411147,-0.041406,181.456887,188.118371,1446.650235,-154.597181,0
0.028125,-69.723438,187.695598,-93.477796,-1.566034,2.893542,-5.280577,1.990849,-2.424179,5.164667,-2.081511,-0.076271,0.417968,-0.063706,262.528082,188.118353,1446.419032,-154.900463,0
0.029167,-131.793928,184.125115,-24.006689,-0.214918,4.302619,-4.745555,0.215714,-3.864098,4.830696,-0.276068,-0.079917,0.416796,-0.045123,313.708426,188.193655,1446.725477,-155.000652,0
0.030208,-173.479352,136.769234,38.076202,1.001086,5.142928,-3.341625,-1.858432,-4.662038,3.452535,1.828389,-0.149195,0.416728,-0.078573,310.837553,188.042962,1445.920153,-156.176716,0
0.031250,-197.231795,64.960243,92.199748,2.048201,5.374105,-1.511287,-3.625998,-4.955825,1.723493,3.698177,-0.196595,0.414729,-0.071140,255.998254,188.193660,1445.263391,-155.813027,0
0.032292,-168.529985,4.262030,155.279076,3.297983,4.621863,0.266757,-4.613867,-4.190528,-0.115463,4.606575,-0.233057,0.411560,-0.048839,167.406497,188.196013,1443.728336,-156.369177,0
0.033333,-123.386783,-54.087180,189.425273,3.917245,3.231133,2.278118,-4.981006,-3.022634,-2.140429,5.102410,-0.214826,0.423686,-0.052556,62.872953,188.194014,1443.145292,-156.303237,0
0.034375,-48.999375,-112.072295,191.770546,4.007319,1.334016,4.052139,-4.750125,-1.125713,-3.856789,4.822320,-0.185656,0.428785,-0.071140,-71.303760,188.194175,1441.520594,-156.129690,0
0.035417,16.528892,-162.399663,163.444999,3.399317,-0.709881,4.937137,-3.603289,0.803851,-4.905205,3.800372,-0.211179,0.426098,-0.048839,-181.939316,188.194159,1440.752765,-156.612333,0
0.036458,69.966239,-187.569219,93.135427,2.093238,-2.860192,5.210683,-1.729745,2.820463,-5.095442,1.873809,-0.145548,0.414729,-0.052556,-262.357528,188.194011,1438.403190,-156.734099,0
0.037500,131.370033,-184.104441,22.874461,0.787160,-4.228905,4.687729,0.007542,4.253128,-4.710741,0.151636,-0.123671,0.408735,-0.059989,-318.863060,188.194029,1436.858056,-155.857130,0
0.038542,172.784260,-136.102585,-38.892486,-0.462623,-5.080223,3.340117,2.062763,5.029306,-3.387538,-1.922541,-0.098148,0.408460,-0.074856,-310.194150,188.344976,1434.713512,-155.726336,0
0.039583,197.146899,-63.694598,-91.740107,-1.475960,-5.311400,1.590232,3.747061,5.366617,-1.645813,-3.777188,-0.039809,0.396264,-0.052556,-254.713126,188.269559,1433.227195,-155.855763,0
0.040625,168.196490,-2.820211,-154.600704,-2.680705,-4.555488,-0.244129,4.765209,4.579558,0.108593,-4.704512,-0.006994,0.390339,-0.030256,-166.053820,188.269415,1431.395930,-155.279995,0
0.041668,122.013695,55.211884,-188.965632,-3.333744,-3.238147,-2.199172,5.109638,3.350005,2.116650,-5.207916,-0.010640,0.415901,-0.089723,-61.137492,188.194110,1429.261343,-155.084236,0
0.042708,47.987884,111.834578,-191.687606,-3.468856,-1.319013,-3.977215,4.897682,1.482100,3.887966,-4.920257,-0.025225,0.425133,-0.059989,71.125305,188.420330,1427.327764,-155.777536,0
0.043750,-16.749388,161.950536,-163.289149,-2.928410,0.633146,-4.886351,3.803835,-0.389432,4.915245,-3.917233,-0.039809,0.406117,-0.052556,181.344303,188.344986,1425.521140,-156.086743,0
0.044792,-69.938136,187.202308,-93.307672,-1.543516,2.827491,-5.147828,1.953000,-2.366147,5.046298,-2.020951,-0.094502,0.413145,-0.067423,262.021458,188.269541,1423.343525,-155.893480,0
0.045834,-131.466230,183.866725,-23.581380,-0.169881,4.207213,-4.640965,0.204359,-3.766169,4.703871,-0.283638,-0.123671,0.416865,-0.045123,313.325643,188.269581,1420.989803,-155.429126,0
0.046875,-173.038655,136.581314,38.379994,1.023605,5.018166,-3.289330,-1.824368,-4.538720,3.393350,1.718624,-0.145548,0.415005,-0.041406,310.150795,188.420419,1418.735408,-154.052192,0
0.047917,-197.017097,65.441788,92.345568,2.070720,5.201640,-1.535423,-3.546515,-4.850642,1.647399,3.558132,-0.192949,0.418037,-0.048839,256.471103,188.495769,1416.235470,-153.651020,0
0.048959,-168.315286,4.379480,155.084649,3.252946,4.522788,0.270779,-4.458685,-4.154258,-0.077416,4.458961,-0.214826,0.437329,-0.078573,167.417756,188.344930,1414.307485,-152.482713,0
0.050000,-123.511082,-54.286845,189.097178,3.872208,3.165083,2.189618,-4.844748,-2.913824,-2.064335,4.996430,-0.233057,0.426580,-0.071140,62.737853,188.420226,1411.904719,-152.352104,0
0.051042,-49.281873,-111.931354,191.442451,3.984801,1.275304,3.911343,-4.598727,-1.071308,-3.742647,4.678490,-0.207533,0.425891,-0.041406,-70.797135,188.420338,1409.065200,-152.407628,0
0.052083,16.291594,-162.164763,163.335634,3.455614,-0.647500,4.804388,-3.516235,0.738565,-4.753016,3.698177,-0.182010,0.422171,-0.052556,-181.669116,188.495658,1406.357765,-151.664264,0
0.053125,70.169638,-186.700089,94.046802,2.093238,-2.728091,5.057819,-1.722175,2.718907,-4.964390,1.900304,-0.152841,0.417899,-0.019106,-261.591962,188.420338,1404.398294,-150.469678,0
0.054167,131.211834,-184.245382,22.765096,0.764641,-4.107813,4.567047,-0.034092,4.137064,-4.621964,0.140281,-0.134610,0.407357,-0.063706,-319.144518,188.495776,1402.418608,-150.063817,0
0.055208,171.710767,-136.854266,-39.415008,-0.473882,-4.878402,3.291844,1.968140,4.815313,-3.315670,-1.812776,-0.083563,0.406599,-0.056273,-309.102092,188.495656,1399.105489,-148.650183,0
0.056250,196.864401,-63.847283,-92.043898,-1.520997,-5.142604,1.586210,3.584308,5.134489,-1.607766,-3.603079,-0.065333,0.402810,-0.071140,-254.803193,188.495714,1395.083050,-147.474716,0
0.057292,168.298189,-2.726251,-153.689329,-2.691964,-4.438065,-0.127470,4.492693,4.405462,0.002906,-4.413067,0.003945,0.409700,-0.108307,-165.716070,188.495714,1390.232208,-145.383580,0
0.058333,122.036295,55.188394,-188.953480,-3.378782,-3.153750,-2.022172,4.874972,3.252076,1.939095,-4.969462,0.007591,0.437466,-0.067423,-61.306367,188.571096,1386.048602,-143.817940,0
0.059375,48.146083,111.493973,-190.909899,-3.423819,-1.333691,-3.715738,4.719790,1.518370,3.553995,-4.719652,0.000299,0.409838,-0.048839,70.573647,188.571192,1381.038615,-141.114733,0
0.060417,-16.704188,162.338121,-163.033964,-2.838335,0.486367,-4.616828,3.712996,-0.276995,4.653141,-3.815038,-0.028871,0.437398,-0.071140,181.828411,188.495622,1377.329830,-139.127804,0
0.061458,-70.446633,184.406995,-95.057513,-1.554775,2.592645,-4.878305,1.869731,-2.137646,4.796876,-2.032306,-0.098148,0.404877,-0.059989,259.544626,188.646466,1372.847419,-136.830200,0
0.062500,-131.409730,184.360015,-23.350498,-0.181140,3.924664,-4.455919,0.317907,-3.610208,4.538999,-0.347983,-0.105440,0.413145,-0.056273,313.911076,188.721967,1369.996251,-135.518255,0
0.063542,-170.089375,138.213870,39.692375,1.001086,4.702592,-3.257148,-1.627551,-4.230425,3.304573,1.495310,-0.182010,0.410871,-0.026539,308.191847,188.571116,1364.962726,-132.693581,0
0.064583,-196.847598,66.005548,92.795180,2.070720,5.040183,-1.579673,-3.285354,-4.643903,1.685446,3.346172,-0.196595,0.416314,-0.086006,257.281703,188.495707,1361.468885,-130.440607,0
0.065625,-168.631684,4.849281,153.334808,3.219168,4.335644,0.085734,-4.136965,-3.929384,0.074774,4.125881,-0.203887,0.414454,-0.063706,167.631664,188.721853,1355.538851,-128.123438,0
0.066667,-123.341583,-53.993220,189.218695,3.951023,3.106371,1.964346,-4.576018,-2.823149,-1.852960,4.723910,-0.218472,0.420448,-0.045123,63.368320,188.797329,1350.867146,-126.084629,0
0.067708,-50.174567,-111.261889,189.959947,4.018579,1.293651,3.585503,-4.307287,-1.140221,-3.408675,4.436251,-0.218472,0.421964,-0.041406,-69.130903,188.571085,1345.303580,-123.337238,0
0.068750,15.805697,-162.998658,162.728050,3.489392,-0.486043,4.526820,-3.451891,0.582604,-4.503594,3.630047,-0.185656,0.418863,-0.026539,-182.220774,188.721958,1342.062682,-120.694066,0
0.069792,71.209231,-182.906450,96.379923,2.138276,-2.427194,4.736001,-1.733530,2.428747,-4.634646,1.870024,-0.149195,0.426856,-0.056273,-258.270757,188.721942,1335.965753,-118.129148,0
0.070834,131.324834,-184.679947,22.534214,0.719604,-3.828933,4.410161,-0.170350,3.846904,-4.452864,0.306821,-0.127317,0.405910,-0.037689,-322.443207,188.797289,1332.159414,-114.581981,0
0.071875,168.399889,-138.792193,-40.921816,-0.507660,-4.533471,3.207367,1.631280,4.496137,-3.248031,-1.540256,-0.094502,0.405497,-0.045123,-305.082870,188.646590,1327.069194,-111.028898,0
0.072917,196.514103,-65.010039,-92.505662,-1.453441,-4.896749,1.666664,3.334502,4.924123,-1.700771,-3.357054,-0.043455,0.425753,-0.056273,-256.165450,188.797306,1323.598024,-108.041651,0
0.073958,168.625887,-3.113836,-152.073157,-2.646927,-4.239914,0.057575,4.136909,4.245874,-0.136601,-4.095128,-0.065333,0.423342,-0.071140,-165.817395,188.797378,1318.551977,-105.591956,0
0.075000,122.397893,55.211884,-188.904873,-3.333744,-3.131733,-1.841150,4.689510,3.223060,1.706583,-4.757502,-0.017932,0.381589,-0.048839,-61.779217,188.797335,1315.067564,-102.961974,0
0.076042,49.140477,110.965447,-189.633974,-3.423819,-1.385064,-3.414034,4.466199,1.572775,3.317256,-4.481197,-0.032517,0.427889,-0.056273,68.941190,188.872615,1310.353919,-101.205920,0
0.077083,-16.082692,162.737452,-162.450684,-2.905891,0.379953,-4.351329,3.656222,-0.066629,4.327625,-3.720413,-0.058040,0.393991,-0.041406,182.042319,188.797389,1305.928155,-97.829064,0
0.078125,-71.508826,181.693898,-97.062539,-1.588553,2.284409,-4.604760,1.945430,-1.872875,4.513634,-2.024736,-0.076271,0.413489,-0.048839,257.259186,188.796829,1300.943870,-95.235823,0
0.079167,-131.330631,184.500955,-23.034555,-0.192400,3.642114,-4.315124,0.431455,-3.262016,4.323397,-0.506953,-0.112733,0.412800,-0.074856,314.586575,188.797741,1296.000963,-91.479901,0
0.080208,-167.806790,139.869917,40.992603,1.068642,4.387017,-3.096239,-1.347466,-3.903995,3.220023,1.249285,-0.167425,0.410113,-0.082290,306.717006,189.023932,1290.980618,-88.238791,0
0.081250,-195.898404,66.968639,93.524280,2.081979,4.753964,-1.660127,-3.009054,-4.397267,1.744631,3.062298,-0.171072,0.424169,-0.071140,258.126077,188.873143,1286.537678,-85.120689,0
0.082292,-168.981982,5.178141,152.216854,3.162872,4.130154,-0.151606,-3.784966,-3.766169,0.273465,3.789017,-0.189302,0.420310,-0.045123,168.014447,188.873313,1281.465442,-81.811198,0
0.083333,-124.030879,-54.310335,188.696173,3.872208,3.040321,1.735050,-4.356491,-2.808641,-1.599311,4.477886,-0.225764,0.422171,-0.037689,63.919977,188.873202,1277.581963,-78.756282,0
0.084375,-51.067261,-110.909539,189.145785,3.984801,1.359702,3.227480,-4.057481,-1.190999,-3.146571,4.220506,-0.200241,0.417761,-0.048839,-67.430896,189.023992,1273.100789,-76.743586,0
0.085417,14.845203,-163.374499,162.084012,3.410576,-0.284222,4.196957,-3.338343,0.430270,-4.140030,3.474862,-0.185656,0.416176,-0.071140,-182.277065,188.948556,1267.720002,-74.330355,0
0.086458,72.124525,-180.533958,98.615831,2.194572,-2.159322,4.418206,-1.733530,2.218381,-4.359860,1.896519,-0.134610,0.382209,-0.082290,-256.120417,188.873159,1263.452573,-72.062295,0
0.087500,131.144035,-184.527262,22.607124,0.742122,-3.520697,4.200979,-0.302823,3.524101,-4.220353,0.424156,-0.116379,0.403705,-0.067423,-323.884273,189.023885,1258.370412,-69.140870,0
0.088542,166.411102,-140.906294,-42.367864,-0.496401,-4.173863,3.106799,1.377689,4.180588,-3.180391,-1.267737,-0.112733,0.405704,-0.059989,-303.011339,189.023960,1253.745367,-65.525575,0
0.089583,194.853014,-66.102325,-93.587161,-1.498478,-4.654564,1.714937,3.035492,4.626709,-1.726136,-3.001264,-0.058040,0.405015,-0.059989,-256.570750,188.948505,1247.963234,-62.027720,0
0.090625,169.473382,-3.477931,-150.529894,-2.590631,-3.972042,0.234575,3.743276,4.097167,-0.309928,-3.659853,-0.032517,0.382967,-0.071140,-166.571703,188.873059,1242.091643,-58.424586,0
0.091667,122.883789,55.528999,-188.078560,-3.345004,-3.003301,-1.571627,4.348866,3.143266,1.448707,-4.416852,-0.028871,0.375456,-0.041406,-62.150742,189.023929,1236.488835,-55.640646,0
0.092708,50.100970,110.589607,-188.977783,-3.367522,-1.469462,-2.987626,4.186113,1.681585,2.881825,-4.201108,-0.061686,0.400192,-0.082290,67.196150,189.099443,1230.246801,-51.710304,0
0.093750,-15.122199,163.524367,-161.199062,-2.838335,0.137768,-3.981238,3.474545,0.096586,3.926014,-3.557659,-0.047102,0.411629,-0.071140,182.537686,189.024028,1224.383298,-48.871369,0
0.094792,-72.638819,179.074761,-99.930333,-1.656109,1.921131,-4.266851,1.979495,-1.571834,4.175435,-2.066371,-0.068979,0.410389,-0.059989,254.624738,189.023860,1219.105434,-45.564337,0
0.095833,-130.969033,184.078135,-23.338347,-0.158622,3.260489,-4.089852,0.613132,-2.902943,4.095113,-0.646998,-0.123671,0.404808,-0.059989,315.048166,189.023872,1213.717895,-42.155225,0
0.096875,-165.580704,142.629994,42.596624,1.057383,3.961358,-3.056012,-1.025746,-3.552176,3.139701,0.957840,-0.123671,0.407633,-0.071140,305.850115,189.099304,1208.636464,-38.370181,0
0.097917,-193.604519,68.565961,94.800206,2.048201,4.467745,-1.712423,-2.668409,-4.012805,1.791133,2.698938,-0.156487,0.411491,-0.063706,258.441310,189.099340,1201.847872,-34.711453,0
0.098958,-170.270173,5.659687,150.564227,3.151613,3.876960,-0.348720,-3.296709,-3.530414,0.501750,3.331032,-0.203887,0.414109,-0.052556,169.241604,189.099376,1195.001965,-30.851245,0
0.100000,-124.505476,-54.697920,187.699736,3.838430,2.970601,1.445414,-4.000707,-2.678069,-1.328752,4.091816,-0.200241,0.417003,-0.071140,64.066336,189.099251,1188.414162,-28.246199,0
0.101042,-51.869556,-110.592423,188.659718,3.883467,1.455108,2.825208,-3.815245,-1.270793,-2.766097,3.936631,-0.207533,0.416590,-0.089723,-65.877247,189.099389,1182.494652,-25.054322,0
0.102083,13.681311,-163.750339,160.528598,3.388058,-0.089740,3.826866,-3.213440,0.209023,-3.763784,3.353742,-0.211179,0.422446,-0.041406,-182.412165,189.174682,1177.103196,-21.451473,0
0.103125,73.017219,-178.549052,101.483625,2.239609,-1.777697,4.144661,-1.767594,1.819411,-4.063936,1.972219,-0.141902,0.406599,-0.037689,-254.015110,189.099452,1172.207298,-16.856036,0
0.104167,130.895436,-183.575916,23.117494,0.742122,-3.139072,4.003866,-0.473145,3.183163,-3.979386,0.564201,-0.116379,0.401845,-0.052556,-324.559772,189.099374,1166.750900,-13.615863,0
0.105208,164.942111,-143.431471,-43.607335,-0.541438,-3.814255,3.006231,1.010550,3.836023,-3.100069,-0.942227,-0.083563,0.404188,-0.063706,-301.221265,189.099362,1161.792011,-9.431982,0
0.106250,192.016733,-68.087232,-94.972451,-1.498478,-4.338989,1.722982,2.709988,4.332922,-1.781093,-2.660615,-0.054394,0.397642,-0.045123,-256.773399,189.325481,1156.174695,-5.915832,0
0.107292,170.885872,-3.889007,-149.484850,-2.545593,-3.828933,0.443757,3.330717,3.919444,-0.559349,-3.345699,-0.047102,0.361814,-0.097156,-167.720052,189.099353,1151.547759,-2.342161,0
0.108333,123.821683,56.550815,-186.450236,-3.232411,-2.948259,-1.318196,4.095275,3.110623,1.224650,-4.087558,-0.036163,0.333703,-0.059989,-61.869284,189.099305,1146.520522,0.523566,0
0.109375,50.711166,110.554372,-188.880570,-3.322485,-1.509826,-2.637649,3.940092,1.790395,2.607038,-4.019428,-0.014286,0.373321,-0.056273,66.284226,189.099276,1142.821665,3.460251,0
