1-Time,2-VGERA,3-VGERB,4-VGERC,5-VN,6-IGERAN,7-IGERBN,8-IGERCN,9-IGERAT,10-IGERBT,11-IGERCT,12-IN,13-IFD,14-IFAULT,15-VFAULT,16-Speed (rad/s),17-Active Power,18-Reactive Power,19-FAULT 
0.000000,125.471472,77.315993,-176.412955,-3.063521,-4.962744,1.852144,3.223063,5.133114,-1.757359,-3.498500,-0.075764,0.585601,-0.003573,36.111916,188.646478,1061.472534,989.393890,0
0.001042,45.705299,126.762486,-186.109989,-3.266189,-4.474704,-0.261420,4.634199,4.597610,0.295992,-4.705585,-0.072118,0.589460,0.007577,23.964183,188.570944,1061.414919,989.595148,0
0.002083,-24.037840,168.257606,-151.830123,-2.590631,-3.300473,-2.011141,5.121331,3.393674,2.120713,-5.204413,-0.090349,0.588495,0.003860,5.804506,188.571067,1060.363901,989.735022,0
0.003125,-95.984464,176.455623,-101.825994,-1.633590,-1.432711,-3.822184,4.866167,1.521306,3.811708,-4.907401,-0.112226,0.587737,-0.018440,-12.647888,188.721911,1060.567594,990.550461,0
0.004167,-141.896061,173.672056,-17.335421,-0.046029,0.449729,-4.795159,3.849375,-0.487786,4.825441,-3.848821,-0.090349,0.583052,-0.014723,-23.579722,188.570968,1059.799626,989.757909,0
0.005208,-168.846383,146.282692,61.504625,1.462718,2.354185,-5.224413,2.411176,-2.352558,5.179170,-2.378994,-0.068472,0.580641,0.007577,-32.912873,188.571230,1060.319220,989.986404,0
0.006250,-177.400426,73.123025,119.747588,2.599907,3.921050,-4.746102,0.327334,-4.046424,4.665832,-0.208524,-0.002841,0.577196,0.003860,-37.202294,188.646424,1059.155448,989.815457,0
0.007292,-171.467965,-5.545053,156.956006,3.286724,4.915477,-3.797655,-1.489745,-4.984506,3.699550,1.505005,0.029975,0.582088,0.000144,-39.228793,188.721878,1059.030850,990.230471,0
0.008333,-126.053566,-77.224850,175.633126,3.692059,4.937494,-1.913026,-3.244967,-5.052869,1.719533,3.427965,0.066437,0.579607,-0.007290,-36.234078,188.571060,1058.613629,990.137841,0
0.009375,-45.631997,-126.542147,186.934180,3.939764,4.475140,0.241420,-4.698630,-4.547747,-0.286366,4.635051,0.088314,0.575955,-0.007290,-21.215473,188.571138,1058.450556,990.882737,0
0.010417,23.828644,-167.778877,152.241158,3.264206,3.311917,1.958435,-5.116172,-3.324822,-2.136970,5.114839,0.102898,0.586015,0.015011,-5.420044,188.646527,1057.260874,990.533960,0
0.011458,95.357171,-177.104415,102.492214,2.307165,1.480851,3.712244,-4.942196,-1.494231,-3.823650,4.836866,0.088314,0.585257,0.015011,11.985326,188.721817,1056.938442,991.347015,0
0.012500,141.325268,-173.698362,18.111006,0.697085,-0.452962,4.750630,-3.929271,0.545244,-4.897777,3.774478,0.055498,0.580985,-0.014723,24.673458,188.570803,1056.936003,990.958604,0
0.013542,169.247383,-146.590879,-60.486007,-0.789143,-2.342740,5.233030,-2.479474,2.368239,-5.225623,2.308459,0.044560,0.579538,-0.025873,32.925810,188.495589,1057.079430,991.644102,0
0.014583,176.829633,-73.994972,-119.202885,-1.937591,-3.916944,4.726101,-0.387899,4.088690,-4.712285,0.168452,-0.006487,0.579814,-0.022156,37.845698,188.646511,1056.027721,992.055070,0
0.015625,172.185364,5.295591,-156.131815,-2.658186,-4.896693,3.810359,1.429180,5.045762,-3.750316,-1.617426,-0.032010,0.578643,-0.007290,40.401337,188.721953,1056.909265,992.237748,0
0.016667,126.804864,77.292503,-175.137029,-3.074780,-4.962744,1.913466,3.188268,5.095135,-1.791869,-3.441382,-0.079410,0.586635,0.000144,34.738400,188.571189,1055.978250,991.991589,0
0.017708,46.371995,126.057785,-187.130729,-3.288707,-4.493051,-0.228715,4.618735,4.574822,0.278737,-4.717009,-0.123164,0.590011,-0.025873,23.513850,188.495698,1056.371673,991.731222,0
0.018750,-23.111246,167.447201,-152.316190,-2.624408,-3.300473,-1.970260,5.086536,3.370886,2.120713,-5.215836,-0.093995,0.572166,-0.003573,7.256830,188.646408,1056.743315,991.089763,0
0.019792,-94.764072,177.230794,-102.555094,-1.678627,-1.469406,-3.764950,4.858434,1.551689,3.790139,-4.907401,-0.090349,0.583121,-0.003573,-12.647888,188.721911,1056.847866,991.117914,0
0.020833,-140.732169,173.824741,-18.186038,-0.068547,0.449729,-4.778807,3.833911,-0.468797,4.752108,-3.825974,-0.064826,0.577609,0.029877,-23.512172,188.571103,1056.070705,990.131207,0
0.021875,-168.993282,146.822963,60.325913,1.473977,2.317490,-5.248942,2.391846,-2.295589,5.174856,-2.367570,-0.039302,0.579194,0.007577,-33.295656,188.495626,1055.803848,989.847026,0
0.022917,-176.745031,74.297526,119.042791,2.554870,3.954075,-4.750190,0.304137,-4.019838,4.670146,-0.208524,0.004452,0.574371,-0.022156,-36.447987,188.646453,1055.715973,989.339851,0
0.023958,-172.326760,-5.180958,155.838053,3.343021,4.926486,-3.769038,-1.493611,-4.946527,3.665040,1.501197,0.026329,0.570512,0.015011,-39.983101,188.721886,1055.515668,988.406039,0
0.025000,-127.353057,-76.825519,175.061997,3.669540,4.952172,-1.929378,-3.233368,-5.018687,1.754043,3.313730,0.081021,0.552392,0.029877,-36.605603,188.571118,1054.127788,988.337616,0
0.026042,-46.264793,-125.719996,187.638977,3.917245,4.456793,0.188274,-4.675434,-4.536353,-0.294993,4.608396,0.062790,0.570512,0.015011,-22.622764,188.495685,1054.233473,987.793228,0
0.027083,22.913350,-166.980217,152.958106,3.309243,3.330265,1.868497,-5.081377,-3.343811,-2.089518,5.088184,0.073729,0.588633,-0.022156,-7.333959,188.646456,1053.768345,987.586544,0
0.028125,94.125479,-177.585961,103.148404,2.318424,1.469842,3.704068,-4.926732,-1.498029,-3.767571,4.772133,0.077375,0.581467,-0.018440,12.536984,188.646413,1053.151825,986.629413,0
0.029167,140.082276,-174.320848,19.034533,0.730863,-0.379572,4.734277,-3.917673,0.476882,-4.820129,3.774478,0.059144,0.576024,0.018727,24.358225,188.571087,1052.076000,986.267815,0
0.030208,169.326483,-147.013700,-59.222233,-0.777883,-2.269351,5.175796,-2.525867,2.341654,-5.212682,2.327498,0.011744,0.575749,0.018727,32.847001,188.495736,1051.942007,986.120458,0
0.031250,176.095138,-75.498333,-118.315813,-1.881295,-3.821538,4.754718,-0.476820,4.054509,-4.751109,0.187491,0.026329,0.548533,0.000144,37.316556,188.646502,1051.870028,986.034145,0
0.032292,172.772960,4.590891,-155.171833,-2.635668,-4.922380,3.794007,1.363456,5.011581,-3.763258,-1.491767,-0.039302,0.586773,-0.007290,41.110612,188.721933,1050.480435,986.327405,0
0.033333,128.646751,76.822703,-173.970469,-3.052262,-4.915041,1.991141,3.126410,5.049560,-1.852261,-3.349994,-0.064826,0.582845,0.018727,36.607282,188.571080,1049.223297,986.229385,0
0.034375,47.411588,125.259124,-187.592493,-3.345004,-4.478373,-0.196010,4.614868,4.609003,0.192462,-4.663699,-0.064826,0.568308,0.033594,24.234383,188.495598,1048.456236,986.813325,0
0.035417,-21.823054,166.073034,-153.215414,-2.669446,-3.355515,-1.900761,5.016946,3.427855,2.025810,-5.173950,-0.086703,0.576576,0.011294,6.986630,188.721965,1047.361081,986.898116,0
0.036458,-93.069084,178.323080,-103.101920,-1.689887,-1.528117,-3.703628,4.889363,1.574477,3.716805,-4.911209,-0.108580,0.579194,0.000144,-12.355172,188.646469,1046.993901,986.847996,0
0.037500,-139.308378,173.953936,-19.376902,-0.068547,0.339644,-4.717485,3.872572,-0.320678,4.743480,-3.902131,-0.053887,0.573268,-0.007290,-23.174422,188.571013,1045.978552,988.090188,0
0.038542,-169.919876,147.210548,58.563921,1.395162,2.277126,-5.216237,2.461436,-2.212035,5.174856,-2.424688,-0.064826,0.573337,-0.040740,-32.608898,188.495604,1045.394147,988.775708,0
0.039583,-175.129141,76.728743,118.617482,2.599907,3.851330,-4.750190,0.435586,-3.970466,4.696029,-0.311336,0.015390,0.578367,0.018727,-36.718186,188.721844,1044.541729,989.160238,0
0.040625,-173.174254,-3.982967,155.279076,3.286724,4.864105,-3.805831,-1.400824,-4.897154,3.677981,1.413616,0.033621,0.582225,-0.014723,-39.566542,188.571107,1043.621522,989.187186,0
0.041667,-129.680842,-76.461424,173.202791,3.635763,4.904469,-2.027494,-3.101920,-4.969315,1.818750,3.245188,0.073729,0.551496,0.007577,-36.763220,188.571065,1042.587840,988.928429,0
0.042708,-48.095381,-125.050531,188.343774,3.962282,4.522844,0.122864,-4.629040,-4.574333,-0.269111,4.608396,0.062790,0.562451,-0.003573,-21.598256,188.495857,1043.226769,989.181092,0
0.043750,21.037562,-165.559070,153.687207,3.252946,3.374299,1.803086,-5.062046,-3.412173,-1.990302,5.050105,0.099252,0.609510,-0.003573,-6.151835,188.721831,1042.178950,989.292460,0
0.044792,92.193192,-178.901402,103.792443,2.385980,1.565248,3.667275,-4.919000,-1.592977,-3.797768,4.825443,0.081021,0.584361,0.000144,11.534993,188.571029,1043.024464,990.436689,0
0.045833,138.929683,-173.980243,20.626402,0.775900,-0.317191,4.668867,-3.979531,0.381934,-4.720913,3.835404,0.070083,0.575404,-0.003573,24.358225,188.571100,1041.456349,990.682777,0
0.046875,170.524275,-147.436520,-57.241511,-0.755365,-2.236325,5.224853,-2.564528,2.269493,-5.199740,2.369385,0.070083,0.574026,-0.025873,32.734418,188.495550,1041.023328,991.076003,0
0.047917,174.603548,-78.000020,-117.999869,-1.948850,-3.781174,4.783335,-0.538678,3.948168,-4.725226,0.294111,0.008098,0.551496,0.011294,37.192715,188.721889,1039.305667,990.941089,0
0.048958,173.586554,2.993569,-154.612856,-2.635668,-4.790279,3.789919,1.347992,4.981198,-3.797768,-1.491767,-0.053887,0.558110,-0.025873,40.975512,188.571094,1039.554607,990.718221,0
0.050000,130.850237,75.965317,-172.706695,-2.995965,-4.889354,2.056551,3.041355,5.030571,-1.925595,-3.300492,-0.057533,0.570237,0.003860,35.166216,188.571053,1039.074812,990.803819,0
0.051042,49.479474,124.660129,-188.151470,-3.299967,-4.430670,-0.126512,4.576207,4.631791,0.162265,-4.701778,-0.104934,0.536476,0.000144,23.536367,188.495671,1040.091118,991.014482,0
0.052083,-19.721268,165.239139,-153.871604,-2.658186,-3.366523,-1.798558,5.016946,3.496217,1.939535,-5.086370,-0.086703,0.562520,0.000144,8.461470,188.721770,1038.830566,990.842360,0
0.053125,-91.385395,178.792880,-104.195570,-1.746183,-1.575820,-3.662747,4.858434,1.639041,3.677981,-4.892170,-0.115872,0.578160,0.007577,-12.152522,188.571125,1038.535434,990.806233,0
0.054167,-138.494783,174.153601,-21.236107,-0.158622,0.299280,-4.680692,3.907367,-0.309284,4.674460,-3.917362,-0.061180,0.575542,0.011294,-23.106872,188.571069,1038.205793,990.156185,0
0.055208,-170.496172,147.739074,56.498136,1.361384,2.211076,-5.224413,2.515562,-2.219631,5.170542,-2.447535,-0.039302,0.572648,-0.037023,-33.250622,188.495745,1038.740138,989.930891,0
0.056250,-174.654544,79.101235,117.839775,2.554870,3.759593,-4.795159,0.505176,-3.871720,4.657205,-0.337991,-0.010133,0.573544,-0.011006,-35.941362,188.721819,1037.840176,989.015988,0
0.057292,-173.750550,-2.103765,154.659340,3.275465,4.882452,-3.830360,-1.350565,-4.908548,3.734060,1.402193,0.029975,0.562244,0.011294,-40.264559,188.571069,1038.394640,989.232921,0
0.058333,-131.590529,-75.122493,172.473691,3.703318,4.897130,-2.084727,-3.090322,-4.969315,1.905025,3.165224,0.070083,0.584844,0.000144,-37.359911,188.571102,1037.727910,989.677805,0
0.059375,-50.197167,-124.287105,188.331623,3.951023,4.519174,0.065630,-4.582646,-4.574333,-0.182836,4.566509,0.088314,0.588702,0.007577,-22.791639,188.495644,1037.161306,989.734106,0
0.060417,18.913176,-164.678195,154.379852,3.365539,3.425671,1.774470,-5.058180,-3.499525,-1.973047,5.012027,0.110191,0.573062,-0.011006,-8.392242,188.721915,1037.095079,989.796920,0
0.061458,90.272205,-179.183282,105.080520,2.329684,1.664324,3.601865,-4.926732,-1.638551,-3.702865,4.829251,0.095606,0.580710,-0.014723,11.793934,188.571051,1036.428591,989.688212,0
0.062500,137.980490,-174.391318,22.825854,0.764641,-0.229124,4.632074,-3.975665,0.328764,-4.712285,3.839212,0.073729,0.576093,0.003860,23.896633,188.571013,1036.511745,989.387294,0
0.063542,171.202270,-147.765380,-54.580294,-0.710327,-2.144589,5.192148,-2.599324,2.246706,-5.199740,2.430310,0.022683,0.579194,0.018727,32.633093,188.495653,1036.675782,989.601710,0
0.064583,174.230650,-80.983253,-116.954825,-1.926332,-3.748148,4.771071,-0.616001,3.921582,-4.772678,0.396923,-0.006487,0.567205,0.000144,36.832448,188.721884,1036.696460,990.258580,0
0.065625,174.095051,0.726782,-154.163244,-2.691964,-4.823304,3.875770,1.239740,4.935623,-3.784826,-1.411802,-0.035656,0.580916,0.000144,41.234453,188.571089,1036.041934,989.740407,0
0.066667,133.358820,74.685111,-171.722410,-2.995965,-4.911371,2.121961,2.929237,5.068550,-1.994615,-3.216719,-0.075764,0.579194,0.000144,37.158940,188.571169,1035.829728,990.292151,0
0.067708,52.327056,123.955428,-188.102863,-3.333744,-4.533415,-0.057014,4.541412,4.696355,0.084618,-4.652276,-0.101287,0.580641,-0.007290,24.684716,188.495825,1035.687756,990.881873,0
0.068750,-17.257884,164.005913,-154.928799,-2.703224,-3.480277,-1.712707,4.970552,3.526600,1.840319,-5.086370,-0.101287,0.587531,-0.040740,8.585312,188.721936,1035.316312,990.778507,0
0.069792,-89.181909,179.673756,-105.179855,-1.768702,-1.711591,-3.609601,4.924159,1.745382,3.677981,-4.968326,-0.141395,0.583259,0.018727,-11.555831,188.571138,1035.947485,992.080823,0
0.070833,-137.274391,174.329776,-23.642138,-0.158622,0.189196,-4.652075,3.949895,-0.180156,4.635636,-3.963056,-0.079410,0.578436,-0.003573,-22.814155,188.563455,1035.089905,992.564616,0
0.071875,-171.886063,147.645114,53.277943,1.338865,2.119339,-5.236678,2.589018,-2.109492,5.136032,-2.577002,-0.042949,0.580434,-0.007290,-32.597640,188.570752,1033.861560,993.654789,0
0.072917,-173.614951,82.389838,117.025613,2.532351,3.700882,-4.811512,0.625026,-3.829943,4.708970,-0.490304,-0.021072,0.575955,-0.011006,-36.245337,188.721594,1033.319820,994.710951,0
0.073958,-174.292947,0.421412,154.452762,3.297983,4.787046,-3.899858,-1.308037,-4.900952,3.781511,1.326036,0.029975,0.579194,-0.011006,-39.802967,188.570865,1033.216041,995.101500,0
0.075000,-134.596309,-73.677857,171.185614,3.579466,4.915477,-2.199195,-2.962739,-5.007294,2.017183,3.104298,0.037267,0.581054,0.018727,-37.382428,188.570962,1033.226877,995.963347,0
0.076042,-53.259447,-123.723345,188.428836,3.917245,4.599902,-0.032485,-4.574914,-4.646493,-0.083619,4.570317,0.055498,0.572993,-0.022156,-22.285014,188.570655,1033.665368,997.022884,0
0.077083,16.280294,-163.562419,155.473502,3.331761,3.488052,1.672266,-5.073645,-3.529908,-1.813437,5.004411,0.099252,0.591389,0.018727,-7.345217,188.721567,1032.661753,997.167563,0
0.078125,88.294718,-180.216843,106.295687,2.374721,1.723036,3.556895,-4.957661,-1.714510,-3.676982,4.893984,0.095606,0.589529,-0.011006,10.566777,188.570707,1033.178379,998.142549,0
0.079167,137.008696,-174.544003,25.098217,0.820937,-0.148395,4.611633,-4.072318,0.192039,-4.712285,3.915369,0.099252,0.586911,0.007577,23.997958,188.495193,1032.712142,999.313324,0
0.080208,172.388762,-147.871085,-51.663893,-0.631512,-2.096885,5.253470,-2.688245,2.178344,-5.229937,2.517891,0.037267,0.587462,0.000144,32.801968,188.570729,1032.616945,1000.327617,0
0.081250,173.541355,-83.860780,-116.250028,-1.858776,-3.711454,4.836481,-0.673993,3.853220,-4.802874,0.454040,0.008098,0.576507,-0.011006,36.708607,188.721501,1032.298831,1000.409495,0
0.082292,174.524448,-1.446045,-153.932362,-2.613149,-4.848990,3.924827,1.220409,4.939421,-3.871102,-1.396571,-0.050241,0.583603,0.000144,41.245712,188.570752,1032.835587,1001.010892,0
0.083333,135.675305,73.193495,-170.981158,-2.917150,-4.937057,2.224164,2.902174,5.087539,-2.102459,-3.151986,-0.068472,0.582363,-0.014723,35.616549,188.495513,1032.585535,1001.810429,0
0.084375,54.722640,123.356433,-188.139318,-3.333744,-4.577449,-0.028397,4.553010,4.719143,0.028539,-4.633236,-0.086703,0.585877,-0.018440,23.862858,188.570593,1032.724507,1001.974520,0
0.085417,-15.178698,163.207252,-155.779416,-2.703224,-3.524310,-1.684090,4.997615,3.621548,1.797181,-5.105409,-0.090349,0.590631,-0.040740,10.082669,188.646163,1033.005726,1002.713189,0
0.086458,-87.543420,179.990871,-106.747421,-1.768702,-1.744616,-3.572808,4.935757,1.787159,3.634843,-4.968326,-0.075764,0.586084,-0.003573,-11.128014,188.570723,1033.026018,1002.606406,0
0.087500,-136.618996,174.893537,-25.610709,-0.203659,0.137823,-4.631634,3.988556,-0.123187,4.661519,-3.978288,-0.093995,0.579745,0.026161,-22.701572,188.495294,1033.491324,1002.789779,0
0.088542,-172.258960,148.044444,50.859761,1.248791,2.115669,-5.240766,2.654742,-2.098098,5.170542,-2.611272,-0.072118,0.586566,-0.018440,-33.554597,188.570638,1034.121409,1002.928045,0
0.089583,-173.592351,84.550919,115.992721,2.509832,3.675195,-4.844217,0.675286,-3.799560,4.769363,-0.547422,0.004452,0.576713,0.015011,-35.637387,188.721436,1034.355586,1003.493258,0
0.090625,-174.575445,2.147929,153.990998,3.219168,4.794385,-3.932563,-1.226849,-4.862973,3.816021,1.303189,0.029975,0.582225,0.003860,-40.197009,188.570691,1034.196763,1003.341146,0
0.091667,-136.099199,-72.444631,170.979036,3.590725,4.948502,-2.227812,-2.916346,-4.995900,2.047379,3.050988,0.051852,0.583879,-0.007290,-38.181769,188.495461,1033.975833,1003.233909,0
0.092708,-55.316033,-122.959919,188.246561,3.951023,4.592564,-0.057014,-4.590379,-4.688270,-0.096560,4.585549,0.081021,0.589460,-0.011006,-23.253230,188.570776,1034.964174,1003.070492,0
0.093750,15.026002,-162.787248,156.445636,3.331761,3.565111,1.627297,-5.081377,-3.586877,-1.791869,5.038682,0.091960,0.593869,-0.029590,-9.698207,188.646158,1035.513780,1003.578017,0
0.094792,86.825728,-180.322548,107.510854,2.385980,1.737714,3.520102,-5.015653,-1.752489,-3.659727,4.920639,0.081021,0.587944,0.007577,10.679360,188.570760,1035.847607,1003.722628,0
0.095833,135.923903,-175.154744,26.908816,0.877234,-0.111701,4.583016,-4.068452,0.157858,-4.669148,3.976294,0.066437,0.588702,-0.018440,23.536367,188.495414,1035.815985,1003.887859,0
0.096875,172.592161,-147.953300,-49.282166,-0.608994,-2.027165,5.228941,-2.742370,2.113779,-5.247192,2.586432,0.040913,0.583879,-0.003573,32.678127,188.570676,1035.498523,1004.441827,0
0.097917,173.304056,-85.681257,-115.071316,-1.870035,-3.656411,4.836481,-0.789976,3.788656,-4.837384,0.564468,0.004452,0.583190,-0.003573,36.652315,188.721590,1034.704612,1005.166342,0
0.098958,174.671347,-2.925916,-153.458447,-2.613149,-4.768262,3.957532,1.170150,4.909038,-3.909926,-1.297567,-0.021072,0.581674,0.011294,41.223195,188.570691,1033.773425,1005.611723,0
0.100000,137.471993,72.230404,-170.118389,-2.995965,-4.962744,2.256869,2.824852,5.053358,-2.158538,-3.083445,-0.086703,0.582983,0.011294,37.789406,188.495240,1033.031941,1005.536702,0
0.101042,56.530628,122.804417,-187.774768,-3.288707,-4.610474,0.065630,4.479554,4.734334,0.011284,-4.579927,-0.090349,0.586635,-0.022156,25.168824,188.646141,1032.780765,1005.233176,0
0.102083,-14.014806,161.927046,-156.970280,-2.669446,-3.634395,-1.610504,4.974418,3.648133,1.702278,-5.105409,-0.064826,0.591871,-0.011006,10.262802,188.646067,1032.249774,1005.400862,0
0.103125,-86.040530,180.589867,-107.549431,-1.757442,-1.803328,-3.515574,4.958954,1.828936,3.548568,-4.991174,-0.057533,0.588633,-0.007290,-10.463773,188.570749,1031.730802,1005.733930,0
0.104167,-135.229105,175.445552,-27.275488,-0.237437,0.042417,-4.549871,4.100674,-0.043431,4.575243,-4.046829,-0.050241,0.588289,0.003860,-22.397597,188.495365,1030.797708,1006.101490,0
0.105208,-172.823956,147.527663,48.332213,1.226272,1.987238,-5.248942,2.712734,-2.018342,5.209366,-2.615080,-0.053887,0.587048,0.007577,-32.755256,188.646176,1030.558635,1006.211545,0
0.106250,-173.185554,86.629786,115.020587,2.498573,3.642170,-4.881010,0.756474,-3.670431,4.790931,-0.692120,-0.039302,0.578987,-0.018440,-35.930104,188.646038,1028.760179,1007.092721,0
0.107292,-174.598045,3.298940,153.504932,3.252946,4.750351,-3.957092,-1.203652,-4.832590,3.915238,1.223224,0.000805,0.580089,0.000144,-39.915551,188.570718,1027.945510,1008.185560,0
0.108333,-138.042786,-71.810400,169.776020,3.568207,4.944833,-2.342280,-2.862220,-5.045273,2.163851,2.891059,0.066437,0.581950,-0.007290,-38.046669,188.495479,1026.504822,1009.691571,0
0.109375,-56.818923,-122.701529,187.894163,4.029838,4.603572,-0.106071,-4.555584,-4.684472,-0.005971,4.543662,0.106545,0.585533,-0.011006,-22.904222,188.721454,1025.654100,1009.987828,0
0.110417,13.941209,-161.507042,157.612197,3.376799,3.642170,1.516917,-5.031117,-3.666633,-1.696966,5.004411,0.084667,0.591802,0.000144,-8.335950,188.570703,1024.746150,1010.564744,0
