1-Time,2-VGERA,3-VGERB,4-VGERC,5-VN,6-IGERAN,7-IGERBN,8-IGERCN,9-IGERAT,10-IGERBT,11-IGERCT,12-IN,13-IFD,14-IFAULT,15-VFAULT,16-Speed (rad/s),17-Active Power,18-Reactive Power,19-FAULT 
0.000000,-70.105544,-96.306075,203.900190,6.773448,2.692126,3.582137,-5.617381,-2.591274,-3.385499,5.570134,-0.216112,0.461869,-0.028224,23.018188,188.496067,1630.522617,-18.476614,0
0.001042,-5.283153,-160.443594,173.603788,6.253188,0.615214,5.066388,-4.960660,-0.393176,-4.816571,4.844333,-0.183235,0.433780,-0.050629,109.709336,188.496051,1629.705488,-17.980440,0
0.002083,56.873749,-193.702323,123.413447,5.314458,-1.578858,5.618021,-3.292738,1.760814,-5.504828,3.364269,-0.146705,0.449784,-0.043161,172.909615,188.495942,1628.929047,-17.392647,0
0.003125,113.200607,-197.785668,43.899243,3.787608,-3.847486,5.578335,-1.031528,3.925831,-5.441878,1.176193,-0.154011,0.443774,0.005384,218.997864,188.496054,1628.991944,-16.982683,0
0.004167,163.504596,-164.031622,-26.320455,2.453028,-5.150438,4.689372,0.983412,5.465970,-4.690670,-0.809085,-0.106522,0.443578,-0.017021,228.543503,188.496087,1629.103115,-17.242070,0
0.005208,193.153893,-90.567645,-80.093182,1.480368,-5.700731,2.871761,3.214771,5.873978,-2.856715,-2.940236,-0.033462,0.448021,-0.020755,206.421144,188.496125,1629.126912,-16.763040,0
0.006250,186.291680,-21.609845,-140.809091,0.349368,-5.498366,0.966841,4.606572,5.804139,-0.993384,-4.409626,-0.040768,0.459975,0.001650,153.332005,188.496024,1629.933763,-17.012610,0
0.007292,139.571920,43.325014,-187.626326,-0.600672,-4.511388,-1.200006,5.640162,4.752874,1.100766,-5.380919,-0.007891,0.468794,-0.043161,69.660627,188.496045,1630.803654,-16.976917,0
0.008333,68.919485,97.048794,-203.765531,-0.928662,-2.509031,-3.366853,5.584191,2.804727,3.446717,-5.416497,-0.011544,0.460890,-0.002084,-18.534751,188.496078,1631.262525,-17.548122,0
0.009375,4.596164,161.415851,-173.259849,-0.340542,-0.350462,-4.950318,4.905082,0.694846,4.907166,-4.722717,-0.029809,0.445342,-0.024490,-103.766909,188.496065,1632.639211,-17.227209,0
0.010417,-57.141066,193.490651,-123.229546,0.620808,1.825858,-5.450359,3.177458,-1.525307,5.603817,-3.207074,-0.044421,0.460955,-0.039427,-169.930408,188.496194,1633.678933,-17.843345,0
0.011458,-114.023706,198.141799,-43.112121,2.079798,4.062534,-5.359082,0.912516,-3.723405,5.519884,-0.965631,-0.088257,0.442011,-0.065566,-213.881067,188.496226,1634.767380,-18.036332,0
0.012500,-163.386268,163.530009,27.255303,3.403068,5.361936,-4.497899,-1.106155,-5.156948,4.680545,1.048111,-0.113828,0.441031,-0.017021,-224.139237,188.420605,1634.747256,-18.805504,0
0.013542,-194.317267,90.380135,80.227841,4.477518,5.944181,-2.616790,-3.378559,-5.634795,2.850787,3.197050,-0.168623,0.446649,-0.002084,-203.521107,188.496223,1635.999487,-19.241349,0
0.014583,-186.116639,22.328403,141.214584,5.608518,5.681461,-0.755525,-4.792749,-5.572308,0.983259,4.630862,-0.201500,0.458211,-0.020755,-148.780708,188.496074,1637.661997,-20.133863,0
0.015625,-139.170029,-43.186340,188.425758,6.479388,4.694483,1.462914,-5.740517,-4.557801,-1.169645,5.563018,-0.238030,0.465985,-0.031958,-65.312910,188.496036,1639.609783,-20.417756,0
0.016667,-68.313429,-96.910120,203.493940,6.784758,2.674375,3.637698,-5.647232,-2.503056,-3.414875,5.587923,-0.194194,0.430709,-0.031958,24.545038,188.496107,1639.257016,-20.824055,0
0.017708,-4.682001,-161.941626,173.505304,6.253188,0.540658,5.205288,-5.016631,-0.382149,-4.967652,4.915490,-0.205153,0.461739,-0.002084,109.483136,188.496058,1641.956006,-20.986855,0
0.018750,57.236709,-192.941226,123.167235,5.303148,-1.639213,5.693424,-3.240499,1.808599,-5.580369,3.360711,-0.194194,0.458799,-0.043161,174.142405,188.496092,1642.733617,-21.539651,0
0.019792,114.108007,-198.546765,42.200379,3.776298,-3.929143,5.586272,-0.990483,4.069185,-5.467058,1.108594,-0.139399,0.440312,-0.046895,219.122274,188.496161,1644.256878,-22.722766,0
0.020833,162.903444,-162.787289,-27.416099,2.486958,-5.189491,4.693341,1.061771,5.440240,-4.678080,-0.869569,-0.095563,0.442925,-0.043161,229.470923,188.496152,1643.449568,-22.876329,0
0.021875,194.378883,-90.289784,-80.179356,1.457748,-5.753986,2.847949,3.330444,5.918087,-2.831535,-3.036298,-0.066339,0.449784,-0.035692,208.626594,188.496029,1644.772534,-24.035921,0
0.022917,185.406965,-21.646088,-141.301516,0.315438,-5.477064,0.962872,4.692394,5.818842,-0.984990,-4.455878,-0.004238,0.458995,-0.039427,151.431925,188.496139,1645.184054,-24.248820,0
0.023958,138.267533,44.025706,-188.611175,-0.589362,-4.497187,-1.243660,5.647624,4.752874,1.176307,-5.388034,0.035945,0.457950,-0.013287,68.891547,188.420718,1645.497303,-24.534465,0
0.025000,67.751207,97.592435,-203.211554,-0.906042,-2.498380,-3.347010,5.599117,2.819430,3.392160,-5.420055,0.014027,0.459648,-0.028224,-19.631821,188.496056,1644.951783,-23.265766,0
0.026042,4.902412,162.261514,-173.284470,-0.351852,-0.354012,-4.930475,4.875231,0.705874,4.928150,-4.715601,-0.015197,0.447041,-0.002084,-104.875289,188.496054,1645.371497,-23.272093,0
0.027083,-57.662821,193.200709,-122.614016,0.598188,1.783255,-5.430516,3.162532,-1.536334,5.570244,-3.157264,-0.022503,0.460759,-0.031958,-169.398838,188.496069,1644.466941,-23.450098,0
0.028125,-114.341296,198.407579,-41.474811,2.125038,4.108687,-5.414642,0.946098,-3.712378,5.465327,-0.947841,-0.066339,0.440639,-0.020755,-215.283507,188.420698,1643.725776,-23.079692,0
0.029167,-163.533720,163.131339,27.612311,3.436998,5.322882,-4.501868,-1.106155,-5.167975,4.739299,1.008974,-0.164970,0.449000,0.001650,-222.024267,188.495997,1644.323440,-22.019097,0
0.030208,-194.634857,90.815048,80.621781,4.420968,5.922879,-2.600916,-3.423336,-5.620092,2.834000,3.157914,-0.175929,0.448608,-0.043161,-202.910367,188.495987,1644.092528,-21.769794,0
0.031250,-185.742336,21.398173,141.485417,5.608518,5.645958,-0.711870,-4.762898,-5.535550,0.970669,4.591726,-0.201500,0.458799,-0.031958,-145.534738,188.495948,1643.188173,-21.341532,0
0.032292,-138.081149,-44.309864,188.647349,6.524628,4.698033,1.451008,-5.755442,-4.469583,-1.161251,5.552345,-0.216112,0.465789,-0.013287,-64.204530,188.496112,1642.135596,-21.228146,0
0.033333,-68.245374,-97.381275,203.260038,6.784758,2.685026,3.558326,-5.628575,-2.550841,-3.402285,5.580807,-0.201500,0.457166,-0.024490,24.002158,188.495971,1642.206764,-20.439926,0
0.034375,-5.090331,-162.207406,173.234470,6.219258,0.501605,5.117979,-4.979317,-0.396852,-4.934078,4.876354,-0.223418,0.463764,-0.050629,110.761166,188.496165,1641.469292,-20.332190,0
0.035417,57.951287,-193.291572,122.096212,5.257908,-1.625012,5.594209,-3.199454,1.812274,-5.588762,3.310901,-0.175929,0.447041,0.001650,173.712625,188.496062,1641.192501,-20.277480,0
0.036458,114.584392,-198.450118,41.080114,3.776298,-3.858137,5.621990,-1.016602,4.028752,-5.475452,1.112152,-0.128440,0.441227,-0.043161,220.061004,188.420754,1640.985653,-19.336230,0
0.037500,163.436541,-162.726885,-27.317614,2.498268,-5.178841,4.733027,0.994606,5.465970,-4.703260,-0.855337,-0.088257,0.447759,-0.017021,228.305993,188.496085,1641.635046,-19.046280,0
0.038542,194.594390,-89.975681,-80.733334,1.435128,-5.789488,2.851918,3.334175,5.903384,-2.823142,-3.054087,-0.022503,0.449196,-0.017021,207.020574,188.496163,1641.639980,-19.047097,0
0.039583,184.987292,-20.027247,-141.658523,0.281508,-5.473514,0.962872,4.666274,5.807815,-0.951417,-4.409626,-0.007891,0.444689,-0.031958,150.459265,188.496016,1640.879813,-18.452867,0
0.040625,137.099255,44.738480,-189.128220,-0.623292,-4.507838,-1.231755,5.711058,4.734496,1.218273,-5.366687,-0.022503,0.447563,-0.050629,67.432557,188.496071,1640.492401,-18.454305,0
0.041667,68.341017,98.039428,-202.854546,-0.860802,-2.487730,-3.402570,5.610311,2.793700,3.413144,-5.423613,-0.015197,0.463176,-0.017021,-18.715711,188.496013,1640.626027,-18.967034,0
0.042708,4.346629,162.938044,-172.915152,-0.363162,-0.325610,-5.017784,4.890156,0.639710,4.944937,-4.715601,0.035945,0.458799,-0.035692,-105.633059,188.496022,1640.835868,-19.441087,0
0.043750,-58.479481,193.176547,-121.419887,0.632118,1.864911,-5.446391,3.128950,-1.540010,5.591227,-3.164380,-0.037115,0.456578,-0.024490,-170.631628,188.496049,1640.998231,-18.824423,0
0.044792,-115.362121,198.637116,-40.970076,2.181588,4.126439,-5.414642,0.919979,-3.818975,5.515687,-0.937168,-0.059033,0.439724,-0.028224,-214.695387,188.420629,1642.668874,-19.286443,0
0.045833,-163.726543,162.442727,27.464583,3.414378,5.369036,-4.474088,-1.154663,-5.197381,4.697332,1.073015,-0.135746,0.449915,-0.024490,-224.161857,188.420670,1642.506891,-20.375072,0
0.046875,-195.644339,89.317015,80.892614,4.443588,5.940631,-2.589010,-3.468112,-5.682580,2.846590,3.229071,-0.190541,0.447237,-0.017021,-203.113947,188.496047,1643.872182,-20.472346,0
0.047917,-184.721511,19.670604,141.817803,5.642448,5.670810,-0.652341,-4.818868,-5.469387,0.920308,4.645094,-0.201500,0.432473,-0.035692,-146.111548,188.496112,1643.192551,-20.946940,0
0.048958,-137.366572,-44.032003,189.866099,6.547248,4.680282,1.486725,-5.800218,-4.532070,-1.240989,5.580807,-0.216112,0.460955,-0.017021,-64.272390,188.420708,1644.479523,-21.328165,0
0.050000,-68.823841,-97.949078,202.521402,6.773448,2.645973,3.649603,-5.639770,-2.495705,-3.452646,5.566576,-0.208806,0.467226,-0.031958,24.940888,188.496054,1644.352578,-22.397640,0
0.051042,-3.763258,-163.161797,173.185228,6.219258,0.487404,5.233068,-4.956929,-0.319661,-4.963455,4.865680,-0.190541,0.460498,-0.050629,111.518936,188.495995,1644.730010,-22.865686,0
0.052083,58.790632,-192.723769,121.209849,5.257908,-1.688917,5.673581,-3.177065,1.852708,-5.571975,3.268207,-0.154011,0.469512,-0.017021,174.956725,188.496060,1644.083314,-23.159367,0
0.053125,115.684614,-198.848788,41.363258,3.787608,-3.946894,5.653738,-0.949438,4.105942,-5.475452,1.087247,-0.113828,0.442011,0.005384,220.219344,188.420710,1645.024659,-23.934324,0
0.054167,163.436541,-161.857060,-27.760796,2.430408,-5.185941,4.657624,1.080428,5.436564,-4.665490,-0.898032,-0.080951,0.450307,-0.035692,229.289963,188.496190,1644.181298,-24.234090,0
0.055208,195.637900,-88.115222,-80.844129,1.401198,-5.782388,2.780484,3.360295,5.943817,-2.768585,-3.046971,-0.011544,0.448478,-0.020755,207.586074,188.496063,1644.329491,-24.112506,0
0.056250,183.921097,-19.024532,-142.040152,0.270198,-5.480614,0.883500,4.666274,5.723272,-0.913646,-4.438089,-0.015197,0.433388,-0.043161,149.283025,188.496165,1643.280088,-24.560364,0
0.057292,137.303420,44.158596,-190.039205,-0.634602,-4.490087,-1.263503,5.684938,4.749199,1.222470,-5.423613,0.014027,0.460367,-0.058098,68.586177,188.420638,1644.402599,-24.870690,0
0.058333,68.318332,98.583069,-202.263637,-0.860802,-2.462878,-3.422413,5.528221,2.753266,3.438324,-5.359571,-0.011544,0.471538,-0.028224,-20.841991,188.496168,1643.515723,-25.425125,0
0.059375,2.679282,163.252148,-172.828978,-0.340542,-0.258155,-4.954286,4.886425,0.577222,4.944937,-4.665791,-0.004238,0.446322,-0.039427,-107.408729,188.481062,1642.972429,-25.752754,0
0.060417,-59.114661,192.947010,-121.136743,0.632118,1.850710,-5.414642,3.128950,-1.573092,5.557654,-3.093223,-0.051727,0.464482,-0.054364,-169.986958,188.477054,1642.100161,-26.432259,0
0.061458,-116.156096,198.492145,-41.327083,2.125038,4.080285,-5.386862,0.908785,-3.771190,5.511490,-0.901589,-0.069992,0.443186,-0.035692,-216.346647,188.424536,1641.722304,-26.332378,0
0.062500,-163.919365,162.068219,28.486364,3.425688,5.319332,-4.442339,-1.136006,-5.123866,4.638578,1.037437,-0.150358,0.443578,-0.028224,-221.300427,188.437532,1640.350747,-25.494050,0
0.063542,-195.598969,87.649851,81.409659,4.466208,5.887377,-2.604885,-3.382291,-5.612741,2.808820,3.218397,-0.143052,0.446322,-0.031958,-201.688887,188.498485,1639.014510,-25.074162,0
0.064583,-184.506004,19.827656,142.359470,5.642448,5.649508,-0.703933,-4.718121,-5.484090,0.941292,4.591726,-0.197847,0.455337,-0.024490,-144.245398,188.495669,1638.798506,-24.286948,0
0.065625,-137.695504,-44.007841,190.026137,6.558558,4.666081,1.447039,-5.684546,-4.458555,-1.215808,5.520324,-0.238030,0.469447,-0.002084,-63.865230,188.493624,1637.534135,-24.440901,0
0.066667,-67.644221,-98.456476,202.595266,6.728208,2.578517,3.594043,-5.576336,-2.469975,-3.440056,5.470514,-0.219765,0.455860,-0.013287,26.139748,188.495774,1636.093969,-24.191318,0
0.067708,-2.163966,-163.173878,172.729735,6.253188,0.480303,5.217194,-4.938272,-0.352743,-4.955062,4.830102,-0.212459,0.474020,-0.002084,112.796966,188.495691,1635.471862,-23.284915,0
0.068750,59.028824,-192.953307,121.320644,5.269218,-1.632113,5.633895,-3.132289,1.793896,-5.504828,3.271765,-0.183235,0.464744,-0.050629,174.210265,188.495613,1634.595341,-22.418780,0
0.069792,116.319794,-198.377633,41.117046,3.731058,-3.843936,5.550555,-0.945706,4.050806,-5.475452,1.087247,-0.135746,0.442468,-0.050629,221.044974,188.422438,1634.133786,-21.642295,0
0.070833,163.618021,-161.446309,-28.831818,2.407788,-5.114936,4.610001,1.058039,5.447591,-4.657096,-0.883800,-0.066339,0.441945,-0.035692,227.276783,188.495645,1634.160956,-21.102156,0
0.071875,195.456420,-86.943374,-81.521212,1.469058,-5.739785,2.776515,3.352832,5.881330,-2.768585,-3.036298,-0.055380,0.446061,-0.005818,206.330664,188.495673,1633.218029,-20.409332,0
0.072917,183.943782,-19.725224,-142.766478,0.292818,-5.462863,0.899375,4.662543,5.693866,-0.905253,-4.420300,0.003068,0.458538,-0.039427,149.905075,188.495626,1632.966117,-20.597499,0
0.073958,136.781665,44.762641,-190.494698,-0.645912,-4.436832,-1.275409,5.658819,4.712441,1.243454,-5.402266,-0.007891,0.468859,-0.031958,66.131907,188.495624,1632.520925,-20.696002,0
0.075000,66.514875,99.187114,-202.460607,-0.917352,-2.448677,-3.414476,5.517027,2.756942,3.413144,-5.363129,-0.007891,0.442860,-0.061832,-21.373561,188.495593,1632.294098,-19.658179,0
0.076042,1.726512,163.807870,-172.558144,-0.351852,-0.279457,-5.005878,4.886425,0.595601,4.965920,-4.665791,-0.000585,0.455990,-0.002084,-107.352179,188.495542,1632.580573,-19.072788,0
0.077083,-59.375538,192.802039,-121.136743,0.632118,1.879113,-5.418611,3.050591,-1.573092,5.532474,-3.078992,-0.059033,0.456709,-0.013287,-171.072718,188.497730,1632.151816,-19.078168,0
0.078125,-117.052153,198.552549,-40.132955,2.181588,4.144190,-5.378925,0.897591,-3.793245,5.477917,-0.922937,-0.051727,0.440116,-0.039427,-215.419227,188.421327,1632.153270,-18.462146,0
0.079167,-163.579090,160.896372,29.680493,3.493548,5.347734,-4.378842,-1.165857,-5.153272,4.634381,1.094363,-0.110175,0.440051,-0.039427,-223.200507,188.421059,1632.133498,-18.725700,0
0.080209,-196.381602,87.118291,81.877462,4.466208,5.944181,-2.557262,-3.430799,-5.638471,2.775247,3.225513,-0.164970,0.446910,-0.046895,-202.831197,188.495595,1632.544399,-18.839016,0
0.081250,-183.678001,20.033031,143.332008,5.585898,5.628206,-0.688059,-4.725584,-5.506144,0.878341,4.623747,-0.194194,0.458930,-0.020755,-145.116268,188.487910,1632.975891,-19.529423,0
0.082291,-136.220979,-44.974313,190.998675,6.524628,4.623478,1.510537,-5.721860,-4.407095,-1.261972,5.552345,-0.208806,0.465658,-0.013287,-61.795500,188.483618,1633.041643,-19.828953,0
0.083334,-66.169696,-99.145087,202.028978,6.762138,2.589168,3.633729,-5.576336,-2.400135,-3.448449,5.523882,-0.201500,0.447367,-0.043161,27.508258,188.495935,1633.107695,-19.857142,0
0.084375,-2.039198,-164.116189,172.742046,6.287118,0.459001,5.205288,-4.930809,-0.323337,-4.950865,4.904816,-0.197847,0.450438,-0.017021,112.457666,188.496149,1634.128740,-19.516227,0
0.085417,59.493867,-192.252614,120.914394,5.257908,-1.706668,5.618021,-3.113632,1.834329,-5.504828,3.193492,-0.201500,0.456251,-0.050629,175.533535,188.496091,1633.429109,-20.459382,0
0.086459,116.989002,-198.752141,39.553599,3.493548,-3.918492,5.534681,-0.941975,4.061833,-5.441878,1.037437,-0.128440,0.440835,-0.043161,220.524714,188.421437,1633.137263,-20.542919,0
0.087500,163.175664,-160.322785,-29.693561,2.441718,-5.146888,4.621906,1.114010,5.414509,-4.636113,-0.908705,-0.084604,0.441749,-0.043161,228.645293,188.496675,1632.212063,-20.373636,0
0.088542,196.136970,-87.148749,-81.939773,1.423818,-5.722033,2.744766,3.326712,5.896033,-2.739208,-3.064760,-0.037115,0.447498,-0.058098,207.902754,188.495238,1632.736141,-20.905573,0
0.089584,183.251890,-19.326554,-143.185038,0.224958,-5.374106,0.903343,4.647617,5.671812,-0.901056,-4.388279,0.003068,0.459583,-0.031958,147.891895,188.495238,1632.040910,-20.503644,0
0.090625,135.772183,45.668709,-190.728599,-0.657222,-4.415531,-1.295252,5.606579,4.668332,1.230864,-5.348898,0.010374,0.445865,-0.031958,65.860467,188.419829,1630.879854,-19.960492,0
0.091666,65.743585,99.766997,-201.832766,-0.838182,-2.356369,-3.386696,5.468519,2.727536,3.404750,-5.309762,0.021333,0.449654,-0.035692,-22.425391,188.495293,1629.812723,-19.807070,0
0.092708,2.225582,164.339429,-172.422728,-0.363162,-0.286557,-4.942381,4.864037,0.577222,4.936543,-4.655118,0.003068,0.461543,-0.031958,-107.849819,188.495130,1629.524039,-19.961391,0
0.093750,-59.954006,192.596664,-120.508902,0.643428,1.857811,-5.355113,2.975964,-1.562064,5.465327,-3.032740,-0.029809,0.454488,-0.013287,-170.744728,188.495253,1628.204704,-19.789398,0
0.094791,-117.369743,198.552549,-38.778788,2.181588,4.048333,-5.307490,0.882665,-3.741784,5.419163,-0.862453,-0.080951,0.435543,-0.009553,-216.482367,188.495108,1626.895150,-19.677069,0
0.095843,-163.919365,159.748686,30.800758,3.550098,5.283829,-4.370905,-1.184514,-5.112839,4.588218,1.083689,-0.132093,0.447367,-0.043161,-220.757547,188.495148,1625.866619,-19.002945,0
0.096891,-197.289002,85.414883,83.465531,4.500138,5.869625,-2.493764,-3.441993,-5.653174,2.678723,3.268207,-0.175929,0.445669,-0.002084,-201.225177,188.495182,1626.022613,-19.456541,0
0.097918,-183.428466,18.981992,143.381250,5.642448,5.535899,-0.688059,-4.703196,-5.414250,0.920308,4.538358,-0.179582,0.452267,-0.017021,-142.073878,188.495369,1624.151578,-18.285161,0
0.098958,-135.789964,-45.868300,190.506251,6.569868,4.573774,1.458945,-5.650964,-4.337256,-1.190628,5.463398,-0.212459,0.429730,-0.024490,-61.569300,188.419869,1622.096255,-17.341058,0
0.100000,-66.373861,-99.628323,201.856629,6.762138,2.560766,3.586106,-5.535291,-2.455272,-3.360318,5.459841,-0.208806,0.461412,-0.013287,26.829658,188.495278,1621.037103,-15.918912,0
0.101042,-2.322761,-164.164512,172.311175,6.207948,0.430599,5.145759,-4.848719,-0.338040,-4.875324,4.815870,-0.190541,0.450503,-0.028224,113.588666,188.495255,1619.222349,-15.823280,0
0.102083,60.174417,-192.639203,120.200379,5.190048,-1.664065,5.534681,-3.076318,1.838005,-5.458665,3.214839,-0.172276,0.461281,-0.046895,175.126375,188.495144,1618.920741,-15.116864,0
0.103125,117.317934,-198.401794,38.753409,3.731058,-3.872338,5.538649,-0.968094,4.025076,-5.383124,1.055226,-0.150358,0.437307,-0.061832,221.508684,188.419898,1617.906390,-14.375850,0
0.104167,163.742789,-160.636888,-29.619697,2.430408,-5.068782,4.617938,1.043114,5.326291,-4.598343,-0.848222,-0.088257,0.450176,-0.058098,227.412503,188.495316,1616.787572,-13.486412,0
0.105208,195.898778,-87.003779,-82.579924,1.389888,-5.682980,2.776515,3.315518,5.848248,-2.768585,-3.029182,-0.022503,0.449392,-0.031958,206.093154,188.495242,1616.209965,-12.565394,0
0.106250,182.786847,-17.828522,-143.332766,0.270198,-5.342153,0.891438,4.655080,5.675488,-0.888466,-4.413184,-0.033462,0.441619,-0.031958,147.349015,188.495376,1616.268459,-12.287552,0
0.107292,135.137003,46.393564,-190.827084,-0.668532,-4.419081,-1.287315,5.614042,4.616872,1.218273,-5.356014,-0.000585,0.491200,-0.005818,64.808637,188.495265,1615.793420,-12.167686,0
0.108333,66.492190,100.213991,-201.672728,-0.872112,-2.423825,-3.394633,5.487176,2.709157,3.417341,-5.313319,-0.015197,0.462523,-0.017021,-21.373561,188.495332,1615.999745,-12.585019,0
0.109375,1.488319,164.641452,-172.114963,-0.340542,-0.268806,-4.974129,4.819260,0.569871,4.932347,-4.591077,-0.022503,0.462196,-0.024490,-108.912959,188.495294,1615.258166,-12.645862,0
0.110417,-60.793351,192.705392,-119.413258,0.688668,1.879113,-5.359082,3.035666,-1.569416,5.482113,-3.036298,-0.029809,0.452920,-0.017021,-171.943588,188.495218,1615.435426,-12.111364,0
