1-Time,2-VGERA,3-VGERB,4-VGERC,5-VN,6-IGERAN,7-IGERBN,8-IGERCN,9-IGERAT,10-IGERBT,11-IGERCT,12-IN,13-IFD,14-IFAULT,15-VFAULT,16-Speed (rad/s),17-Active Power,18-Reactive Power,19-FAULT 
0.000000,-161.655720,161.972185,15.305647,3.199488,1.726537,-5.995948,3.270893,-1.550402,5.475525,-3.532825,-0.044421,0.551038,-0.035692,-110.179679,188.364040,1027.268288,971.003520,0
0.001042,-182.358220,112.126814,86.659047,4.522758,3.852440,-5.838644,1.197762,-3.539402,5.341462,-1.389108,-0.121134,0.538104,-0.043161,-121.795049,188.440016,1031.820847,968.518756,0
0.002083,-181.220720,30.624037,139.305517,5.529348,4.934237,-4.950090,-0.536130,-4.596059,4.650837,0.458261,-0.157664,0.538953,-0.046895,-123.751679,188.288810,1035.921748,965.932341,0
0.003125,-152.658095,-42.693555,175.816796,6.219258,5.541099,-3.436573,-2.409487,-5.181059,3.326462,2.401846,-0.172276,0.523863,-0.058098,-114.036389,188.289988,1040.480760,964.341102,0
0.004167,-94.156470,-111.738000,178.165981,6.298428,5.216937,-1.268331,-3.954913,-4.936090,1.315525,3.979806,-0.186888,0.555937,-0.058098,-71.793540,188.360188,1044.991295,961.852264,0
0.005208,-9.685720,-153.025036,179.884595,6.343668,4.282143,0.734103,-4.674855,-4.003746,-0.524788,4.841912,-0.241683,0.561033,-0.035692,-13.230361,188.420696,1048.728325,958.946801,0
0.006250,66.538155,-170.635222,141.543425,5.563278,2.514327,2.523965,-4.516543,-2.442527,-2.076663,4.676418,-0.238030,0.557113,-0.020755,41.193358,188.420497,1051.412675,955.661437,0
0.007292,121.035780,-192.819481,56.762579,3.968568,0.407272,4.041734,-3.890834,-0.446215,-3.583850,4.056780,-0.219765,0.551822,-0.069301,81.185517,188.345089,1054.940214,952.976289,0
0.008333,161.382905,-161.378740,-16.445441,2.543508,-1.398237,4.492388,-2.526336,1.257598,-3.981975,2.752076,-0.183235,0.548425,-0.054364,114.855386,188.419970,1058.480677,949.929971,0
0.009375,182.449405,-110.979666,-87.044629,1.242858,-3.467599,4.330833,-0.483360,3.246598,-3.864163,0.585267,-0.157664,0.526933,-0.084238,126.063596,188.396607,1062.869684,947.351270,0
0.010417,181.050280,-28.610222,-138.973979,0.270198,-4.500396,3.352998,1.291995,4.266691,-3.039475,-1.219766,-0.095563,0.541239,-0.073035,130.576286,188.399585,1065.847633,945.094632,0
0.011458,152.419405,44.490704,-175.237975,-0.397092,-5.122335,1.805469,3.180429,4.826098,-1.690725,-3.197989,-0.073645,0.512235,-0.046895,118.248386,188.484800,1068.688850,943.878014,0
0.012500,92.461780,112.235148,-178.230095,-0.521502,-4.741633,-0.405286,4.669315,4.566504,0.332400,-4.752858,-0.011544,0.493029,-0.065566,72.872667,188.469984,1071.747596,942.644364,0
0.013542,8.036530,153.221259,-179.862160,-0.566742,-3.761607,-2.369458,5.393026,3.590285,2.091462,-5.599568,-0.000585,0.536863,-0.073035,18.403708,188.398996,1074.320120,941.943158,0
0.014583,-67.391095,171.048110,-140.828598,0.258888,-2.012638,-4.129560,5.166866,2.010785,3.659587,-5.391739,-0.044421,0.536928,-0.020755,-36.789091,188.407174,1075.878542,940.371172,0
0.015625,-120.876345,193.545333,-55.516095,1.876218,0.052955,-5.689843,4.556235,-0.014777,5.109900,-4.787496,-0.051727,0.544310,-0.031958,-73.942440,188.558903,1077.415180,939.131534,0
0.016667,-161.098345,161.659222,17.036626,3.222108,1.858464,-6.106485,3.244508,-1.678371,5.540525,-3.432759,-0.066339,0.543003,-0.046895,-110.326709,188.493926,1078.986143,937.971836,0
0.017708,-182.471970,110.646259,87.326710,4.590618,3.984366,-5.906667,1.148760,-3.608871,5.398337,-1.223614,-0.106522,0.509622,-0.061832,-121.320029,188.420455,1080.570712,937.052432,0
0.018750,-181.084220,28.060148,139.095327,5.574588,4.975700,-4.984102,-0.615286,-4.683809,4.581775,0.504445,-0.168623,0.551234,-0.046895,-123.163559,188.420112,1081.150904,936.590744,0
0.019792,-152.453345,-44.800037,175.334595,6.275808,5.627794,-3.394058,-2.477335,-5.232246,3.253337,2.540399,-0.172276,0.526280,-0.050629,-113.900669,188.646377,1082.879013,936.008596,0
0.020833,-92.268220,-112.183370,178.437992,6.377598,5.247092,-1.174799,-4.037838,-4.914152,1.287087,4.045234,-0.205153,0.511451,-0.061832,-69.271410,188.420227,1083.222514,935.919684,0
0.021875,-7.911220,-152.988925,180.292611,6.366288,4.263297,0.785121,-4.787934,-4.011059,-0.593850,4.865004,-0.248989,0.551365,-0.024490,-13.716691,188.420314,1083.870752,936.063478,0
0.022917,67.061405,-170.960222,141.048859,5.608518,2.525635,2.574983,-4.591929,-2.427902,-2.101038,4.707208,-0.208806,0.546661,-0.050629,41.363008,188.420106,1084.279500,936.373798,0
0.023958,120.796905,-193.469481,55.921818,4.047738,0.380887,4.228798,-3.928527,-0.369434,-3.681350,4.099116,-0.208806,0.558224,-0.050629,81.027177,188.646293,1086.106421,936.568089,0
0.025000,161.610405,-161.198185,-16.420713,2.679228,-1.398237,4.615680,-2.567799,1.334379,-4.046975,2.725135,-0.183235,0.555480,-0.043161,115.183376,188.495497,1087.539283,936.323549,0
0.026042,182.915780,-110.871333,-86.920987,1.265478,-3.550525,4.318078,-0.430589,3.334348,-3.884475,0.492899,-0.139399,0.505572,-0.061832,126.719576,188.420175,1089.253587,935.530881,0
0.027083,180.959280,-29.115778,-139.307810,0.292818,-4.598398,3.357250,1.307072,4.288629,-3.063850,-1.292891,-0.106522,0.549470,-0.084238,128.280356,188.647992,1090.317011,935.314944,0
0.028125,152.931280,44.057370,-175.398709,-0.442332,-5.186414,1.779961,3.248277,4.848035,-1.666350,-3.309601,-0.059033,0.543722,-0.028224,117.422756,188.571284,1092.080270,934.700878,0
0.029167,93.030530,111.922185,-178.551562,-0.476262,-4.805712,-0.430795,4.756009,4.555535,0.299900,-4.814437,-0.048074,0.529415,-0.054364,74.365587,188.499795,1092.803533,934.849984,0
0.030208,9.333280,153.185148,-180.047622,-0.544122,-3.803070,-2.420475,5.472182,3.561035,2.144275,-5.653450,-0.007891,0.552736,-0.031958,19.738288,188.406138,1094.237314,934.171513,0
0.031250,-65.946470,171.782370,-140.544223,0.202338,-1.997561,-4.218840,5.242253,1.974223,3.688025,-5.480259,-0.029809,0.556003,-0.050629,-36.053941,188.423601,1095.644818,934.266468,0
0.032292,-120.660220,193.605518,-56.183758,1.842288,0.150957,-5.728106,4.605236,-0.091559,5.183025,-4.791345,-0.026156,0.556329,-0.039427,-75.243090,188.650401,1097.296869,933.613340,0
0.033333,-162.360970,161.358296,15.590022,3.199488,1.945159,-6.106485,3.127659,-1.806340,5.605525,-3.375029,-0.066339,0.555284,-0.054364,-110.338019,188.506180,1099.622511,932.635761,0
0.034375,-182.881470,111.994407,86.906330,4.579308,4.037137,-5.910919,1.043219,-3.747809,5.422712,-1.192825,-0.102869,0.541958,-0.073035,-121.772429,188.427002,1102.085709,932.257457,0
0.035417,-180.913595,29.925889,139.750626,5.551968,5.032240,-4.916078,-0.766059,-4.764246,4.561462,0.669938,-0.146705,0.537254,-0.054364,-124.362419,188.502028,1104.852410,930.833445,0
0.036458,-153.750095,-43.704666,175.223317,6.230568,5.635333,-3.313280,-2.564030,-5.305371,3.176150,2.594280,-0.183235,0.554043,-0.061832,-114.895949,188.653076,1106.854171,929.981235,0
0.037500,-93.189595,-111.629666,178.944921,6.298428,5.250861,-1.060010,-4.083070,-4.947059,1.173337,4.141451,-0.219765,0.555154,-0.065566,-70.730400,188.509330,1109.365716,929.102077,0
0.038542,-9.503720,-152.832444,180.465709,6.332358,4.255758,0.874401,-4.765318,-4.000090,-0.642600,4.949675,-0.256295,0.560184,-0.065566,-13.196431,188.504730,1111.161903,928.717140,0
0.039583,65.776030,-171.694481,140.492474,5.518038,2.367324,2.689772,-4.542928,-2.321871,-2.226975,4.734149,-0.230724,0.541501,-0.046895,40.605238,188.501679,1113.352214,927.323046,0
0.040625,120.285030,-193.650036,55.785812,3.968568,0.275345,4.165026,-3.830525,-0.332871,-3.681350,4.068326,-0.197847,0.556133,-0.054364,80.970627,188.638143,1113.527712,926.536438,0
0.041667,162.076780,-160.909296,-16.494897,2.532198,-1.579165,4.573166,-2.432103,1.396535,-4.087600,2.682800,-0.168623,0.552214,-0.031958,114.945866,188.499938,1114.555124,926.115354,0
0.042708,182.790655,-111.148185,-86.970444,1.288098,-3.603295,4.322330,-0.366510,3.338004,-3.888538,0.431320,-0.150358,0.539933,-0.084238,126.097526,188.502794,1114.993284,925.454729,0
0.043750,180.993405,-28.393555,-139.258354,0.258888,-4.564474,3.318987,1.412613,4.347129,-3.076038,-1.389108,-0.121134,0.545028,-0.002084,130.926896,188.504386,1116.367047,925.169681,0
0.044792,153.170155,45.128667,-175.015421,-0.408402,-5.178875,1.741698,3.248277,4.902879,-1.629788,-3.301904,-0.062686,0.548686,-0.058098,118.542446,188.588238,1116.712053,925.379728,0
0.045833,92.177405,112.199037,-178.823573,-0.487572,-4.760480,-0.494567,4.771086,4.493379,0.316150,-4.887562,-0.029809,0.548752,-0.061832,72.318477,188.518870,1117.162428,924.842592,0
0.046875,7.991030,153.161074,-180.331997,-0.532812,-3.795531,-2.428978,5.483490,3.582973,2.140212,-5.684239,-0.037115,0.548882,-0.043161,18.234058,188.441019,1117.251717,925.584640,0
0.047917,-67.140845,171.661999,-140.185664,0.247578,-1.990022,-4.227343,5.253561,1.948629,3.724587,-5.468713,-0.018850,0.551757,-0.050629,-36.777781,188.591202,1117.377551,925.452706,0
0.048958,-120.660220,194.135147,-54.848432,1.819668,0.139649,-5.728106,4.560004,-0.095215,5.174900,-4.814437,-0.029809,0.552867,-0.039427,-74.157330,188.668160,1117.177094,925.987981,0
0.050000,-161.621595,161.514777,17.197359,3.244728,1.945159,-6.089480,3.150275,-1.762465,5.605525,-3.401970,-0.051727,0.545747,-0.028224,-110.439809,188.520175,1116.371844,926.779488,0
0.051042,-182.756345,110.562000,87.487444,4.613238,4.022059,-5.936427,1.080912,-3.744152,5.447087,-1.208220,-0.121134,0.535099,-0.035692,-121.184309,188.504386,1115.923916,927.475383,0
0.052083,-181.061470,27.735148,139.157147,5.563278,5.096318,-4.975599,-0.664287,-4.683809,4.593962,0.566024,-0.161317,0.511582,-0.043161,-123.457619,188.659145,1113.646868,928.635302,0
0.053125,-152.805970,-45.594481,175.099676,6.241878,5.665487,-3.394058,-2.552722,-5.294402,3.192400,2.590431,-0.190541,0.530461,-0.024490,-114.013769,188.597767,1112.866264,929.216926,0
0.054167,-91.676720,-112.351888,178.747095,6.332358,5.235784,-1.166296,-4.049146,-4.961684,1.258650,4.091418,-0.238030,0.527978,-0.050629,-68.457090,188.519676,1111.251535,930.517659,0
0.055208,-7.171845,-152.892629,180.440981,6.354978,4.304759,0.836138,-4.754010,-4.025684,-0.601975,4.911188,-0.230724,0.545551,-0.039427,-13.015471,188.446265,1109.913396,931.397343,0
0.056250,67.550530,-171.164851,140.579022,5.608518,2.491711,2.647257,-4.591929,-2.416934,-2.170100,4.772635,-0.219765,0.582394,-0.043161,41.871958,188.670890,1108.898938,933.307897,0
0.057292,120.717280,-193.818555,55.019236,4.047738,0.384656,4.156523,-3.951143,-0.409652,-3.656975,4.095267,-0.234377,0.556068,-0.050629,81.128967,188.669570,1107.960860,934.546469,0
0.058333,161.587655,-161.162073,-17.162560,2.600058,-1.413314,4.645440,-2.594184,1.319754,-4.095725,2.802109,-0.205153,0.554043,-0.017021,115.058966,188.521747,1107.052311,936.477843,0
0.059375,182.790655,-110.486148,-87.526830,1.276788,-3.542986,4.415862,-0.479590,3.275848,-3.977913,0.585267,-0.132093,0.546204,-0.046895,126.538616,188.441650,1105.869267,939.309496,0
0.060417,181.084405,-28.116704,-139.270718,0.258888,-4.602168,3.425273,1.276918,4.306910,-3.161350,-1.227463,-0.117481,0.535229,-0.024490,128.302976,188.652975,1104.126560,941.503068,0
0.061459,152.806155,44.972185,-175.225611,-0.419712,-5.212799,1.877744,3.176660,4.913848,-1.739475,-3.251871,-0.110175,0.536928,-0.024490,117.400136,188.721121,1103.341173,943.063281,0
0.062500,92.632405,112.355518,-178.650475,-0.498882,-4.881098,-0.354269,4.759778,4.592098,0.243025,-4.825983,-0.022503,0.528762,-0.028224,74.195937,188.551974,1102.734065,944.740279,0
0.063542,8.298155,153.245333,-179.973437,-0.498882,-3.893534,-2.373709,5.491029,3.645129,2.103650,-5.657299,-0.037115,0.555676,-0.024490,19.376368,188.571422,1102.104402,945.504631,0
0.064584,-66.799595,171.686073,-140.581316,0.304128,-2.099333,-4.159320,5.313870,2.018098,3.696150,-5.584174,-0.004238,0.564691,-0.031958,-36.302761,188.646641,1102.614152,947.255763,0
0.065625,-121.069720,193.557370,-56.072481,1.876218,-0.014893,-5.770621,4.669315,0.021785,5.178962,-4.914502,-0.051727,0.564691,-0.069301,-75.378810,188.722190,1102.335393,949.260330,0
0.066667,-162.201720,161.514777,16.109316,3.233418,1.877311,-6.153251,3.259585,-1.696652,5.613650,-3.513581,-0.051727,0.559988,-0.058098,-110.462429,188.571478,1101.911639,950.866869,0
0.067708,-182.722220,111.621259,87.042335,4.556688,3.973058,-5.966187,1.175146,-3.634465,5.451150,-1.308285,-0.077298,0.545289,-0.043161,-121.862909,188.646839,1100.465918,951.840028,0
0.068750,-181.027345,29.949963,139.701169,5.585898,5.028471,-4.984102,-0.630363,-4.698434,4.622400,0.504445,-0.143052,0.548360,-0.031958,-124.113599,188.647022,1100.705671,952.464051,0
0.069792,-153.226845,-43.235222,175.445872,6.309738,5.654179,-3.470584,-2.439642,-5.316340,3.277712,2.482668,-0.179582,0.555480,-0.005818,-114.556649,188.732700,1100.038979,953.514937,0
0.070834,-93.564970,-111.858370,178.437992,6.343668,5.299862,-1.247074,-3.992606,-5.020184,1.331775,4.068326,-0.190541,0.563972,-0.046895,-71.420310,188.512418,1100.093240,954.425804,0
0.071876,-9.879095,-152.976888,179.995872,6.366288,4.331144,0.729852,-4.761549,-4.128059,-0.476038,4.895793,-0.234377,0.566912,-0.046895,-13.614901,188.593708,1099.288156,955.794984,0
0.072917,66.026280,-170.984296,141.147772,5.585898,2.567098,2.549474,-4.580621,-2.497371,-2.048225,4.764938,-0.234377,0.561882,-0.043161,40.627858,188.666613,1097.887497,956.388467,0
0.073958,120.899280,-192.891703,56.836763,3.968568,0.501505,4.054488,-3.977528,-0.504715,-3.620413,4.156846,-0.245336,0.565932,-0.017021,81.185517,188.668124,1097.240006,957.437192,0
0.075000,161.997155,-161.162073,-16.049789,2.554818,-1.311543,4.568914,-2.624339,1.162535,-4.051038,2.844445,-0.194194,0.558746,-0.035692,115.149446,188.518456,1095.376288,958.313438,0
0.076042,182.722405,-111.545407,-87.032265,1.186308,-3.429906,4.415862,-0.611517,3.191754,-3.957600,0.727668,-0.154011,0.549340,-0.031958,126.176696,188.595480,1093.855164,959.459527,0
0.077083,180.993405,-29.669481,-139.307810,0.247578,-4.500396,3.497548,1.193992,4.252066,-3.161350,-1.119700,-0.121134,0.555480,-0.058098,130.508426,188.666718,1092.636132,959.825893,0
0.078125,152.635530,43.551815,-175.584171,-0.431022,-5.171337,1.984030,3.086196,4.848035,-1.808538,-3.078680,-0.069992,0.556656,-0.043161,118.316246,188.646580,1090.160322,960.526610,0
0.079167,93.587905,112.331444,-178.131182,-0.555432,-4.843405,-0.260737,4.620313,4.544566,0.157712,-4.691279,-0.026156,0.564691,-0.046895,73.438167,188.522659,1087.882834,960.572775,0
0.080208,9.128530,153.317555,-179.478872,-0.611982,-3.885995,-2.246166,5.366641,3.648785,1.945212,-5.611114,-0.044421,0.568806,-0.009553,18.618598,188.669091,1085.869341,961.223005,0
0.081250,-67.106720,170.747185,-141.236615,0.168408,-2.167180,-4.010519,5.279946,2.131441,3.525525,-5.495654,-0.007891,0.559988,-0.031958,-37.060531,188.667338,1082.775394,961.919673,0
0.082292,-121.376845,192.883296,-56.381584,1.785738,-0.124204,-5.609065,4.718316,0.179004,5.077400,-4.902956,-0.048074,0.557113,-0.002084,-74.191260,188.732171,1080.255592,962.908592,0
0.083333,-161.359970,161.960148,16.715158,3.244728,1.685075,-6.089480,3.380204,-1.510184,5.556775,-3.636739,-0.048074,0.553194,-0.024490,-110.439809,188.512219,1077.595418,964.937364,0
0.084375,-182.324095,110.983296,87.363803,4.534068,3.807208,-5.961936,1.333458,-3.517465,5.467400,-1.469930,-0.113828,0.540651,-0.039427,-121.467059,188.731343,1075.196304,967.004973,0
0.085417,-181.357220,28.914778,138.984050,5.484108,4.881467,-5.124400,-0.441897,-4.548527,4.732087,0.308162,-0.143052,0.514652,-0.054364,-122.892119,188.652152,1071.813466,969.301537,0
0.086458,-151.941470,-43.981518,175.792067,6.230568,5.593870,-3.623637,-2.281330,-5.221277,3.456462,2.267142,-0.161317,0.511451,-0.050629,-113.357789,188.729843,1067.648499,971.755458,0
0.087500,-93.166845,-112.664851,178.029975,6.309738,5.337556,-1.472401,-3.860679,-5.060402,1.551150,3.933622,-0.197847,0.548882,-0.017021,-69.508920,188.502714,1064.543652,974.437801,0
0.088542,-8.150095,-153.193555,179.637312,6.287118,4.474379,0.504525,-4.674855,-4.171934,-0.313538,4.795727,-0.238030,0.556003,-0.024490,-12.924991,188.730320,1061.390784,975.879898,0
0.089583,67.937280,-170.153740,141.803071,5.631138,2.740487,2.328398,-4.588160,-2.665559,-1.897913,4.726451,-0.227071,0.543003,-0.035692,42.482698,188.803513,1058.516969,978.059870,0
0.090625,122.002655,-192.205592,56.428747,4.013808,0.686202,3.969459,-4.079300,-0.705809,-3.441663,4.245366,-0.252642,0.555088,-0.039427,81.762327,188.784652,1054.931596,980.743116,0
0.091667,160.962030,-161.884296,-17.187289,2.622678,-1.055228,4.522148,-2.820344,0.983379,-3.965725,3.006089,-0.197847,0.558354,-0.031958,114.832766,188.728390,1052.005644,983.088074,0
0.092708,181.926155,-110.425963,-87.638107,1.288098,-3.264056,4.454125,-0.811291,2.987004,-3.957600,0.873918,-0.157664,0.548490,-0.039427,126.583856,188.803377,1048.301624,984.930878,0
0.093750,181.266405,-28.369481,-138.986343,0.270198,-4.394855,3.637846,0.967832,4.157004,-3.266975,-0.888779,-0.102869,0.535360,-0.035692,127.737476,188.805255,1045.156673,987.809971,0
0.094792,151.372905,43.924963,-175.732540,-0.431022,-5.126105,2.154089,2.882652,4.826098,-1.962913,-2.905489,-0.066339,0.513672,-0.061832,116.472716,188.806350,1042.213660,990.205254,0
0.095833,93.326280,112.800888,-177.772622,-0.487572,-4.873559,0.007105,4.477079,4.573816,-0.049475,-4.556575,-0.051727,0.566128,-0.039427,74.987637,188.652797,1039.194938,992.538209,0
0.096875,8.605280,153.486074,-178.971943,-0.453642,-4.055615,-2.020839,5.351563,3.780410,1.786775,-5.484108,-0.029809,0.543852,-0.039427,19.218028,188.731398,1036.114842,994.567800,0
0.097917,-67.823345,170.386073,-141.891914,0.258888,-2.385802,-3.831958,5.310101,2.303285,3.387400,-5.499502,-0.044421,0.550385,-0.024490,-37.241491,188.804170,1033.959918,996.914484,0
0.098958,-122.502970,191.607370,-57.506720,1.819668,-0.327747,-5.519785,4.816318,0.332566,4.943337,-5.060752,-0.018850,0.561359,-0.035692,-75.921690,188.726440,1031.809054,999.698176,0
0.100000,-161.337220,162.297185,16.430783,3.244728,1.492839,-6.051216,3.602594,-1.356621,5.528337,-3.782989,-0.022503,0.562339,-0.069301,-110.338019,188.648974,1029.976761,1002.008032,0
0.101042,-181.869095,111.368481,87.227797,4.669788,3.637588,-6.008702,1.521924,-3.338309,5.467400,-1.608483,-0.099216,0.545485,-0.050629,-121.817669,188.736016,1027.192197,1003.481305,0
0.102083,-181.288970,30.347185,139.330245,5.608518,4.798541,-5.222183,-0.249661,-4.490027,4.833650,0.092636,-0.124787,0.534445,-0.035692,-123.321899,188.800195,1025.202712,1006.013635,0
0.103125,-151.531970,-41.911148,176.138263,6.275808,5.548638,-3.742677,-2.134326,-5.151809,3.578337,2.082405,-0.168623,0.545028,-0.058098,-113.233379,188.652909,1022.484810,1007.174601,0
0.104167,-94.782095,-112.231518,177.523046,6.298428,5.386557,-1.642459,-3.683521,-5.067715,1.640525,3.768129,-0.205153,0.554435,-0.020755,-73.116810,188.722409,1020.347413,1007.649187,0
0.105208,-10.459220,-153.325962,178.672910,6.287118,4.508303,0.342969,-4.637161,-4.245059,-0.106350,4.703359,-0.241683,0.566977,-0.039427,-14.474461,188.722096,1017.658723,1008.887672,0
0.106250,66.708780,-169.708370,142.520191,5.608518,2.917646,2.137083,-4.565544,-2.826434,-1.739475,4.768787,-0.219765,0.562993,-0.024490,40.967158,188.797532,1015.927264,1010.950666,0
0.107292,122.639655,-190.508370,58.963394,4.036428,0.893515,3.837664,-4.124532,-0.870340,-3.348225,4.322339,-0.201500,0.568153,-0.065566,81.615297,188.721686,1014.170843,1012.583411,0
0.108333,161.212280,-162.040777,-15.406854,2.566128,-0.911994,4.420113,-2.918347,0.811535,-3.896663,3.133096,-0.194194,0.560184,-0.009553,115.273856,188.718998,1012.044952,1014.190676,0
0.109375,181.573530,-111.906518,-87.044629,1.242858,-3.064281,4.432868,-0.931910,2.804191,-3.933225,1.062504,-0.161317,0.553063,-0.039427,126.097526,188.717047,1009.197331,1015.789839,0
0.110417,181.220905,-31.017629,-139.419088,0.236268,-4.221465,3.676109,0.752981,3.985160,-3.372600,-0.696345,-0.117481,0.555676,-0.050629,129.829826,188.797355,1006.469776,1017.616748,0
