1-Time,2-VGERA,3-VGERB,4-VGERC,5-VN,6-IGERAN,7-IGERBN,8-IGERCN,9-IGERAT,10-IGERBT,11-IGERCT,12-IN,13-IFD,14-IFAULT,15-VFAULT,16-Speed (rad/s),17-Active Power,18-Reactive Power,19-FAULT 
0.000000,128.161365,56.191177,-189.756061,-0.770322,-3.052224,-1.184132,4.158808,3.311980,1.104963,-3.939991,-0.037115,0.418494,-0.046895,91.285346,188.797684,1189.640188,17.690563,0
0.001042,55.002237,112.790212,-194.015531,-0.804252,-1.582409,-2.704099,3.990896,1.871086,2.737476,-3.900854,-0.044421,0.414901,-0.054364,32.993608,188.797547,1190.320867,17.588245,0
0.002083,-12.168051,169.401328,-163.829925,-0.250062,0.015216,-3.755774,3.453579,0.316244,3.778256,-3.328041,-0.051727,0.408042,-0.043161,-21.260461,188.797559,1191.554928,17.713605,0
0.003125,-71.568726,185.118584,-106.917993,0.869628,1.801006,-4.112947,1.987151,-1.495901,4.189532,-1.933365,-0.099216,0.406082,-0.024490,-67.009410,188.571580,1192.431680,17.226041,0
0.004167,-130.062001,190.385858,-26.025000,2.385168,3.331176,-4.041512,0.483408,-3.025013,4.118188,-0.485321,-0.106522,0.396283,-0.043161,-113.425649,188.722337,1193.147962,16.014362,0
0.005208,-166.085783,150.108124,43.296023,3.708438,3.991528,-3.120801,-1.031528,-3.749136,3.304030,0.959164,-0.150358,0.401836,-0.054364,-137.380229,188.722288,1193.476487,15.083456,0
0.006250,-192.865427,74.252128,95.012879,4.669788,4.609277,-1.727828,-2.878556,-4.282119,1.944301,2.702509,-0.186888,0.404710,-0.039427,-155.702428,188.722255,1194.829904,15.387701,0
0.007292,-173.605861,7.299758,151.850947,5.732928,4.105137,-0.374541,-3.594979,-3.907193,0.576179,3.449657,-0.205153,0.408956,-0.028224,-130.254929,188.571648,1195.227693,14.457088,0
0.008333,-128.349284,-55.653833,190.075379,6.490698,3.210467,1.411322,-4.303939,-2.991931,-1.199022,4.161226,-0.234377,0.414574,-0.020755,-87.978150,188.722429,1196.299119,13.669210,0
0.009375,-55.326266,-112.820670,193.694698,6.569868,1.683847,2.947164,-4.109908,-1.510604,-2.772781,4.068722,-0.256295,0.416403,-0.020755,-27.039871,188.722346,1196.856486,13.118354,0
0.010417,11.968790,-169.359301,164.050758,6.026988,0.089772,3.955184,-3.539008,0.051590,-3.779988,3.492351,-0.227071,0.411373,-0.031958,26.286778,188.722300,1197.377898,13.601190,0
0.011458,71.573630,-184.641645,107.028031,4.952538,-1.678266,4.276640,-2.024072,1.889465,-4.157690,2.111907,-0.194194,0.400072,-0.061832,71.368437,188.571558,1198.061505,12.762199,0
0.012500,129.828712,-190.476721,26.159659,3.403068,-3.169383,4.185362,-0.561375,3.385495,-4.094740,0.624727,-0.143052,0.398896,-0.024490,118.576376,188.722295,1198.503032,11.732481,0
0.013542,165.750412,-149.425810,-43.296780,2.079798,-3.819084,3.312274,0.934904,4.098591,-3.297368,-0.745044,-0.121134,0.400464,-0.028224,141.660085,188.722261,1198.133532,11.640474,0
0.014583,192.824960,-73.207386,-94.865909,1.095828,-4.454584,1.895489,2.793126,4.642602,-1.883082,-2.559546,-0.059033,0.399549,-0.046895,161.011495,188.646938,1198.798911,10.794475,0
0.015625,172.975584,-6.339582,-151.728599,-0.012552,-3.989497,0.566014,3.494624,4.282378,-0.598895,-3.253326,-0.044421,0.406931,-0.076769,134.421686,188.571596,1198.796657,10.880841,0
0.016667,127.616925,56.348228,-190.260796,-0.679842,-3.077076,-1.235723,4.181196,3.311980,1.209880,-3.968453,-0.037115,0.415031,-0.035692,91.262726,188.722406,1199.547838,9.802824,0
0.017708,55.149689,113.152639,-193.498485,-0.781632,-1.550456,-2.712036,4.005822,1.893141,2.771050,-3.890181,-0.018850,0.416338,-0.043161,32.020948,188.722384,1199.717911,9.785026,0
0.018750,-12.338189,169.679189,-163.866857,-0.238752,0.036518,-3.767680,3.434922,0.250081,3.824420,-3.313810,-0.062686,0.417971,-0.050629,-22.165261,188.646993,1200.161307,8.759141,0
0.019792,-71.784234,184.792400,-106.794887,0.801768,1.825858,-4.065324,1.949837,-1.495901,4.147565,-1.919134,-0.077298,0.394977,-0.028224,-66.715350,188.571545,1199.492809,8.728661,0
0.020833,-130.356906,190.434182,-25.828030,2.339928,3.306324,-4.025638,0.446095,-3.013986,4.101401,-0.421280,-0.102869,0.394781,-0.061832,-113.335169,188.722259,1199.123997,8.107507,0
0.021875,-166.063098,149.612807,43.850000,3.674508,3.987978,-3.096989,-1.057647,-3.756487,3.253669,0.952049,-0.128440,0.401770,-0.050629,-136.927829,188.722300,1198.663019,7.992507,0
0.022917,-193.183017,72.983633,95.160606,4.658478,4.602176,-1.707985,-2.830048,-4.271092,1.914924,2.741646,-0.179582,0.401640,-0.020755,-155.838148,188.571400,1198.590121,7.617964,0
0.023958,-173.084106,6.103749,151.863258,5.744238,4.119338,-0.394384,-3.587516,-3.969681,0.592966,3.506583,-0.216112,0.425418,-0.009553,-129.078689,188.571538,1199.663029,8.108133,0
0.025000,-127.475911,-56.088745,190.469319,6.547248,3.214017,1.439102,-4.303939,-2.991931,-1.190628,4.193247,-0.263601,0.419473,-0.024490,-87.175140,188.722409,1199.968455,8.421823,0
0.026042,-54.997333,-113.086450,193.436175,6.592488,1.680297,2.963038,-4.098714,-1.521631,-2.743405,4.068722,-0.197847,0.413856,-0.017021,-27.311311,188.722322,1199.731429,8.957834,0
0.027083,12.059530,-169.685486,163.927652,6.004368,0.079122,3.951216,-3.553934,0.095699,-3.788381,3.513698,-0.227071,0.411634,-0.017021,25.811758,188.571518,1200.100945,8.632277,0
0.028125,71.528260,-184.786616,106.954167,4.918608,-1.703118,4.320294,-1.964370,1.874762,-4.199657,2.115465,-0.175929,0.406082,-0.035692,71.798217,188.495991,1200.571592,8.793847,0
0.029167,130.441207,-190.392155,26.011932,3.403068,-3.187134,4.232985,-0.553912,3.403874,-4.115723,0.592706,-0.143052,0.395695,-0.046895,119.141876,188.722190,1200.978810,8.516661,0
0.030208,166.068002,-149.087544,-43.456818,2.057178,-3.872338,3.300368,1.009532,4.139024,-3.267991,-0.812643,-0.113828,0.398243,-0.046895,141.807115,188.722299,1201.332378,7.466610,0
0.031250,193.255975,-72.023458,-95.013637,1.107138,-4.440383,1.879615,2.819246,4.694062,-1.891476,-2.620029,-0.077298,0.390796,-0.024490,161.780575,188.571533,1202.364360,7.284235,0
0.032292,172.465172,-5.107330,-152.073296,0.043998,-3.964645,0.562045,3.517012,4.256648,-0.548534,-3.303136,-0.055380,0.417187,-0.017021,134.376446,188.496177,1202.459382,6.662544,0
0.033333,126.686840,56.964355,-190.728599,-0.725082,-3.045123,-1.271441,4.211047,3.319332,1.205683,-4.032495,-0.059033,0.411112,-0.046895,90.697226,188.722377,1203.235588,6.977069,0
0.034375,54.174234,113.720442,-193.486175,-0.792942,-1.500752,-2.811251,4.061792,1.808599,2.829804,-3.943548,-0.073645,0.415489,-0.043161,32.982298,188.722373,1203.963791,6.031923,0
0.035417,-12.587724,170.150344,-163.977652,-0.238752,0.032968,-3.831177,3.449848,0.209647,3.870583,-3.328041,-0.059033,0.422478,-0.024490,-21.565831,188.571484,1204.742833,5.528535,0
0.036458,-71.931686,185.154827,-106.068561,0.824388,1.921716,-4.204224,1.878941,-1.554713,4.239892,-1.890671,-0.099216,0.404122,-0.069301,-67.405260,188.496022,1205.939438,4.761487,0
0.037500,-131.150881,190.639557,-25.544886,2.385168,3.398632,-4.093104,0.375199,-3.091176,4.172745,-0.428396,-0.132093,0.395891,-0.058098,-113.911979,188.722282,1207.604555,4.718790,0
0.038542,-166.596195,148.561769,43.640720,3.708438,4.076735,-3.093021,-1.169588,-3.826326,3.287243,1.065900,-0.146705,0.400268,-0.024490,-138.013589,188.571487,1208.830860,3.547472,0
0.039583,-194.169814,71.775543,95.209849,4.681098,4.630578,-1.672268,-2.983034,-4.351959,1.818401,2.816360,-0.201500,0.402881,-0.046895,-156.256618,188.571618,1209.881141,2.118555,0
0.040625,-172.199391,4.992305,152.367993,5.778168,4.140640,-0.307075,-3.669606,-3.936599,0.517426,3.595529,-0.245336,0.398504,-0.035692,-128.999519,188.496056,1210.214702,0.937188,0
0.041667,-126.477771,-56.668629,190.986364,6.502008,3.196266,1.482757,-4.382298,-2.980904,-1.278759,4.296425,-0.227071,0.394454,-0.028224,-86.960250,188.722440,1211.651874,-0.017714,0
0.042708,-53.795028,-113.726738,193.140720,6.581178,1.619942,3.038441,-4.188267,-1.444440,-2.852519,4.082954,-0.223418,0.410001,-0.013287,-26.745811,188.571399,1212.264272,-1.328052,0
0.043750,12.842162,-169.999589,164.173864,6.015678,0.032968,4.034556,-3.535277,0.180241,-3.905888,3.513698,-0.168623,0.400921,-0.035692,26.558218,188.571561,1213.670919,-2.700248,0
0.044792,71.721082,-184.750373,106.080114,4.884678,-1.798976,4.344106,-1.956907,1.996062,-4.229034,2.022961,-0.190541,0.400921,-0.046895,71.639877,188.496174,1213.887226,-4.667244,0
0.045833,131.042360,-190.585449,25.938068,3.391758,-3.282992,4.288545,-0.460628,3.528850,-4.136707,0.535781,-0.135746,0.398178,-0.035692,118.972226,188.722393,1215.215762,-6.111337,0
0.046875,166.396934,-147.927777,-43.444508,2.091108,-3.929143,3.248776,1.084159,4.194160,-3.242811,-0.883800,-0.088257,0.399353,-0.035692,142.542265,188.496165,1215.600956,-7.127612,0
0.047917,194.322170,-71.274441,-95.013637,1.095828,-4.490087,1.839929,2.882679,4.771253,-1.769772,-2.694744,-0.048074,0.378776,-0.043161,161.712715,188.571581,1216.555791,-8.942579,0
0.048958,171.580457,-4.237505,-152.405682,0.043998,-3.961095,0.486642,3.554326,4.300757,-0.460404,-3.363619,-0.099216,0.388052,-0.043161,133.347236,188.496120,1217.377556,-9.792533,0
0.050000,125.597960,57.423429,-191.184091,-0.736392,-3.034473,-1.291283,4.274480,3.289926,1.302207,-4.046726,-0.033462,0.404579,-0.058098,89.860286,188.646897,1217.621734,-10.802168,0
0.051042,52.949244,114.215759,-193.092235,-0.770322,-1.483001,-2.835063,4.076718,1.797571,2.842394,-3.925759,-0.055380,0.411504,-0.035692,31.240558,188.496087,1217.326975,-10.627805,0
0.052083,-13.665261,170.246991,-164.076137,-0.250062,0.100423,-3.866894,3.461042,0.187593,3.895763,-3.356504,-0.055380,0.411047,-0.031958,-22.606351,188.571504,1217.933668,-10.525702,0
0.053125,-72.067796,184.876966,-105.686932,0.858318,1.957219,-4.184381,1.867747,-1.624552,4.244089,-1.855092,-0.066339,0.405625,-0.024490,-67.099890,188.496069,1217.978379,-11.496653,0
0.054167,-131.752034,190.603315,-25.594129,2.396478,3.395081,-4.081198,0.367736,-3.131610,4.151762,-0.403491,-0.146705,0.399811,-0.035692,-113.934599,188.646859,1218.143266,-12.075167,0
0.055208,-166.823045,148.138937,43.837690,3.708438,4.066084,-3.108895,-1.165857,-3.841029,3.249473,1.105036,-0.164970,0.401182,-0.035692,-137.957039,188.496215,1218.046312,-12.738107,0
0.056250,-194.804994,71.461439,95.382197,4.715028,4.673182,-1.680205,-3.027811,-4.392392,1.789024,2.901749,-0.190541,0.397916,-0.020755,-156.482818,188.571500,1219.095718,-13.767747,0
0.057292,-171.757033,4.448665,152.564963,5.789478,4.129989,-0.299138,-3.699457,-3.962329,0.475459,3.567066,-0.190541,0.423132,-0.054364,-127.823279,188.496082,1218.968229,-13.727135,0
0.058333,-125.581714,-57.200188,191.491099,6.502008,3.203366,1.522442,-4.374835,-2.955174,-1.341709,4.278635,-0.223418,0.388705,-0.039427,-85.512570,188.647056,1218.797742,-14.274957,0
0.059375,-52.433928,-114.040842,193.239205,6.535938,1.587990,3.046379,-4.184535,-1.426062,-2.869305,4.097185,-0.201500,0.385504,-0.017021,-26.157691,188.496065,1218.961944,-14.176432,0
0.060417,14.157892,-170.204964,164.149243,6.026988,0.036518,4.070273,-3.576322,0.169214,-3.922675,3.510141,-0.179582,0.406147,-0.024490,26.467738,188.496118,1219.148394,-13.762232,0
0.061458,72.015987,-184.822858,105.698485,4.873368,-1.816727,4.379823,-1.997953,1.977683,-4.241624,2.058539,-0.186888,0.404187,-0.020755,72.341097,188.496056,1219.445493,-13.061389,0
0.062500,131.756938,-190.512964,25.864205,3.391758,-3.304294,4.284577,-0.471822,3.521498,-4.199657,0.596264,-0.146705,0.400333,-0.031958,119.831786,188.571482,1220.347904,-11.890536,0
0.063542,166.850634,-147.589512,-43.395265,2.068488,-3.985947,3.252745,1.173712,4.241945,-3.330942,-0.947841,-0.113828,0.402293,-0.031958,142.870255,188.496145,1221.844009,-12.048917,0
0.064583,194.798555,-70.827448,-95.198296,1.095828,-4.525589,1.800243,2.942381,4.767577,-1.807542,-2.716091,-0.077298,0.398374,-0.028224,162.504415,188.496101,1222.249944,-11.719716,0
0.065625,171.115414,-4.056292,-152.910417,-0.012552,-4.017900,0.435050,3.625222,4.293406,-0.456207,-3.452566,-0.059033,0.413856,-0.050629,133.121036,188.496118,1223.047931,-12.228241,0
0.066667,125.030835,57.858341,-191.701137,-0.747702,-3.069975,-1.386529,4.293137,3.319332,1.381944,-4.117883,-0.084604,0.417318,-0.020755,89.012036,188.496018,1224.475200,-12.788447,0
0.067708,51.849022,114.554024,-193.289205,-0.736392,-1.451048,-2.898560,4.106569,1.731408,2.922131,-3.964896,-0.007891,0.409544,-0.046895,31.444138,188.496235,1225.292492,-13.775914,0
0.068750,-15.083074,170.259072,-164.285417,-0.227442,0.143027,-3.950235,3.449848,0.106726,3.996484,-3.363619,-0.048074,0.412484,-0.043161,-22.527181,188.496154,1226.526644,-14.816791,0
0.069792,-72.476126,185.481011,-104.615909,0.869628,2.042425,-4.259784,1.871478,-1.687040,4.323826,-1.872882,-0.080951,0.403991,-0.017021,-67.665390,188.496111,1227.961846,-14.988125,0
0.070833,-132.364529,190.651638,-25.483333,2.373858,3.494489,-4.108978,0.349079,-3.212476,4.277663,-0.346565,-0.113828,0.399745,-0.017021,-114.556649,188.420725,1230.060518,-15.659551,0
0.071875,-167.548966,147.075818,43.394508,3.663198,4.176143,-3.069209,-1.292724,-3.962329,3.253669,1.129941,-0.175929,0.401770,-0.020755,-139.223758,188.496065,1231.413484,-16.238075,0
0.072917,-195.621654,70.917799,95.505303,4.669788,4.701584,-1.628613,-3.094975,-4.425474,1.801614,2.994253,-0.201500,0.401444,-0.058098,-156.822118,188.496078,1232.662480,-16.851583,0
0.073958,-170.838291,4.231209,153.426705,5.789478,4.183243,-0.199923,-3.833787,-3.947626,0.429295,3.670244,-0.230724,0.378711,-0.028224,-127.891139,188.496078,1233.460892,-17.874843,0
0.075000,-125.218754,-57.526373,191.737311,6.535938,3.171414,1.605783,-4.479314,-2.955174,-1.417250,4.335561,-0.227071,0.387922,-0.031958,-85.399470,188.345268,1234.440122,-18.681433,0
0.076042,-51.311020,-114.777777,193.116099,6.547248,1.534736,3.177342,-4.229312,-1.374601,-2.974223,4.168342,-0.212459,0.401444,-0.028224,-24.721321,188.496024,1235.880415,-19.541424,0
0.077083,15.541677,-169.999589,164.444697,6.004368,-0.052239,4.185362,-3.561397,0.242729,-4.073756,3.552835,-0.190541,0.419408,-0.028224,27.677908,188.496091,1237.967857,-20.568102,0
0.078125,72.424317,-185.354418,104.208902,4.907298,-1.930336,4.459194,-1.938251,2.124713,-4.308771,2.026518,-0.183235,0.400268,-0.028224,72.092277,188.496100,1239.275763,-22.007294,0
0.079167,132.029158,-190.512964,25.617993,3.380448,-3.403701,4.296483,-0.427046,3.606040,-4.245821,0.542896,-0.143052,0.400268,-0.009553,119.481176,188.345455,1240.441716,-22.992960,0
0.080208,167.395074,-146.574716,-43.062879,2.102418,-4.056953,3.228934,1.188637,4.322812,-3.297368,-0.965631,-0.102869,0.407584,-0.043161,143.978635,188.495951,1240.976403,-23.620864,0
0.081250,195.581188,-70.561668,-95.198296,1.084518,-4.582394,1.788338,2.983426,4.863147,-1.794952,-2.812153,-0.062686,0.403600,-0.024490,162.006775,188.420781,1242.845682,-24.591703,0
0.082292,170.412179,-3.959644,-153.464394,-0.023862,-4.071154,0.383459,3.729700,4.330163,-0.410043,-3.520165,-0.055380,0.415423,-0.024490,132.385886,188.496091,1243.814566,-25.218547,0
0.083333,124.769957,57.882503,-192.070455,-0.770322,-3.002520,-1.450027,4.352839,3.337711,1.453288,-4.174808,-0.015197,0.401248,-0.031958,88.401297,188.345315,1244.947697,-25.914843,0
0.084375,51.055047,115.085584,-193.153788,-0.849492,-1.451048,-2.977932,4.158808,1.705678,2.993475,-3.964896,-0.026156,0.401313,-0.054364,29.261308,188.496107,1245.388016,-26.492866,0
0.085417,-16.444174,170.319477,-164.322349,-0.227442,0.185630,-4.021669,3.494624,0.103051,4.084615,-3.384967,-0.073645,0.391384,-0.020755,-24.008791,188.420739,1246.570870,-26.458942,0
0.086458,-72.759689,185.650144,-103.569508,0.926178,2.067277,-4.315344,1.834164,-1.778934,4.361596,-1.780378,-0.102869,0.404318,-0.028224,-67.337400,188.496038,1246.808311,-28.044867,0
0.087500,-132.534667,190.784528,-25.003220,2.396478,3.547743,-4.172475,0.315497,-3.263937,4.244089,-0.346565,-0.121134,0.403208,-0.039427,-114.443549,188.345176,1246.932437,-28.421743,0
0.088542,-167.809843,146.628824,43.492993,3.674508,4.208095,-3.132706,-1.322575,-3.954978,3.308226,1.144172,-0.132093,0.405233,-0.013287,-139.449958,188.496100,1247.353259,-28.000978,0
0.089583,-196.132067,70.531210,95.665341,4.681098,4.761938,-1.596864,-3.083781,-4.447528,1.789024,3.004926,-0.216112,0.389620,-0.039427,-156.810808,188.420757,1247.739795,-28.102050,0
0.090625,-170.566071,4.412422,153.783713,5.800788,4.176143,-0.172143,-3.844981,-4.032168,0.429295,3.688033,-0.216112,0.409283,-0.028224,-126.952409,188.496147,1248.813223,-27.770186,0
0.091667,-124.980561,-57.369321,192.254357,6.524628,3.185615,1.625626,-4.497970,-3.013986,-1.484397,4.396044,-0.230724,0.423262,-0.065566,-84.426810,188.269886,1250.311363,-28.127271,0
0.092708,-51.004773,-115.055638,192.980682,6.558558,1.520534,3.153530,-4.244237,-1.304762,-3.003599,4.171900,-0.216112,0.398047,-0.043161,-24.144511,188.420743,1250.300623,-28.988209,0
0.093750,16.709955,-170.180803,164.272349,6.026988,-0.059339,4.197268,-3.594979,0.323596,-4.077953,3.517256,-0.190541,0.384002,-0.039427,28.175548,188.420652,1250.064929,-29.794762,0
0.094792,72.696537,-185.644360,103.174811,4.862058,-1.937437,4.486975,-1.919594,2.139416,-4.371721,1.987382,-0.179582,0.402293,-0.017021,72.793497,188.496677,1250.602510,-30.066095,0
0.095833,132.414803,-190.645854,24.903977,3.380448,-3.435654,4.300451,-0.400926,3.620743,-4.271001,0.507318,-0.146705,0.404057,-0.058098,120.205016,188.269556,1251.025738,-30.248259,0
0.096875,167.814747,-145.958590,-43.272159,2.091108,-4.124408,3.260682,1.248339,4.330163,-3.255401,-1.040345,-0.121134,0.408630,-0.024490,144.363175,188.420336,1250.917009,-31.270411,0
0.097917,196.091600,-70.271726,-95.493750,1.061898,-4.653399,1.768495,3.039397,4.859471,-1.757182,-2.837058,-0.051727,0.413006,-0.024490,162.888955,188.420303,1251.008286,-31.791446,0
0.098958,169.981164,-4.032130,-154.289205,-0.046482,-4.035651,0.319962,3.815522,4.326487,-0.393257,-3.530838,-0.077298,0.412026,-0.024490,132.114446,188.495655,1251.147731,-31.941684,0
0.100000,124.690560,57.954989,-192.304357,-0.747702,-3.048674,-1.497650,4.434929,3.352414,1.465878,-4.210387,-0.040768,0.415881,-0.035692,88.061997,188.269487,1251.781212,-31.993513,0
0.101042,50.703429,115.653386,-193.166099,-0.804252,-1.376493,-3.089052,4.162539,1.698326,3.064818,-4.004032,-0.037115,0.406278,-0.046895,29.566678,188.344892,1252.843346,-32.397382,0
0.102083,-17.374259,170.162425,-164.568561,-0.238752,0.274387,-4.097072,3.487161,0.069969,4.093008,-3.370735,-0.029809,0.376098,-0.054364,-24.348091,188.420338,1252.834666,-32.711641,0
0.103125,-73.054594,186.604535,-101.649053,0.994038,2.173786,-4.402653,1.819239,-1.819367,4.390973,-1.805283,-0.066339,0.404645,-0.039427,-67.959450,188.495767,1253.604215,-32.360031,0
0.104167,-132.761517,190.784528,-23.870644,2.419098,3.615199,-4.180412,0.274452,-3.370533,4.307039,-0.271851,-0.113828,0.396871,-0.050629,-114.839399,188.269425,1255.075543,-33.470099,0
0.105208,-168.581133,145.106630,43.492993,3.708438,4.311053,-3.116832,-1.404665,-4.054223,3.266260,1.314949,-0.164970,0.403469,-0.020755,-140.807158,188.269684,1256.097890,-35.816786,0
0.106250,-196.676507,70.084216,95.776137,4.669788,4.829394,-1.565116,-3.191991,-4.546773,1.793220,3.061852,-0.205153,0.396544,-0.061832,-157.104868,188.420269,1257.770670,-36.141452,0
0.107292,-169.624643,4.315775,154.891667,5.778168,4.243598,-0.088803,-3.983041,-4.043196,0.320181,3.794768,-0.219765,0.415097,-0.046895,-126.997649,188.495662,1258.893342,-37.789140,0
0.108333,-125.230096,-57.502211,192.180493,6.490698,3.196266,1.752620,-4.535284,-3.010310,-1.534757,4.442296,-0.216112,0.416403,-0.024490,-85.003620,188.269552,1259.644951,-38.504686,0
0.109375,-50.743895,-115.756330,192.992993,6.547248,1.499233,3.324180,-4.318865,-1.330492,-3.129500,4.207478,-0.197847,0.409021,-0.050629,-23.364121,188.269514,1261.254239,-39.032253,0
0.110417,17.594670,-169.745890,164.543182,6.038298,-0.140996,4.292514,-3.561397,0.341974,-4.166083,3.517256,-0.197847,0.412614,-0.046895,29.283928,188.420282,1262.157835,-39.540429,0
