1-Time,2-VGERA,3-VGERB,4-VGERC,5-VN,6-IGERAN,7-IGERBN,8-IGERCN,9-IGERAT,10-IGERBT,11-IGERCT,12-IN,13-IFD,14-IFAULT,15-VFAULT,16-Speed (rad/s),17-Active Power,18-Reactive Power,19-FAULT 
0.000000,-145.363035,179.452640,-14.046780,2.679228,0.636515,-4.624894,3.558057,-0.496097,4.617595,-3.463239,-0.033462,0.550842,-0.031958,-225.032727,188.495931,1000.432170,989.424574,0
0.001042,-170.169083,149.878587,65.849053,4.138218,2.312247,-4.847135,2.072972,-2.275160,4.953330,-2.121931,-0.091910,0.550973,-0.024490,-215.939487,188.646815,1000.038192,989.274789,0
0.002083,-180.955801,70.869475,123.216478,5.223978,4.066084,-4.418528,-0.016595,-3.888814,4.550448,-0.079727,-0.132093,0.554827,-0.043161,-177.689068,188.571246,999.945394,988.985809,0
0.003125,-170.271166,-9.830964,161.797917,5.981748,4.925251,-3.529565,-1.606159,-4.822455,3.648159,1.514188,-0.164970,0.548164,-0.058098,-115.529309,188.571386,999.437756,988.875215,0
0.004167,-123.585434,-81.869394,181.347160,6.411528,4.982056,-1.640519,-3.400948,-4.895970,1.826794,3.204166,-0.201500,0.556852,-0.024490,-30.873961,188.495872,999.516734,989.656702,0
0.005208,-43.314558,-133.092427,188.795076,6.524628,4.421112,0.327899,-4.546478,-4.432825,-0.191815,4.417391,-0.230724,0.587881,-0.017021,64.525887,188.720485,999.838115,990.157149,0
0.006250,29.050596,-175.931313,153.906819,5.868648,3.320526,2.149479,-5.083795,-3.245558,-1.920853,4.855007,-0.259948,0.543787,-0.017021,146.003125,188.615664,998.861972,989.554196,0
0.007292,99.600949,-181.379801,102.657765,4.941228,1.428227,3.713101,-4.669613,-1.440765,-3.544973,4.605957,-0.216112,0.560771,-0.061832,199.352394,188.563269,997.925770,990.170862,0
0.008333,145.243171,-179.193157,14.661553,3.244728,-0.574130,4.800493,-3.665875,0.500032,-4.631916,3.627549,-0.216112,0.552475,-0.054364,229.550093,188.518407,997.181945,990.655446,0
0.009375,169.618204,-149.449971,-66.403788,1.706568,-2.232110,5.038608,-2.218103,2.308501,-4.984438,2.239989,-0.208806,0.548556,-0.020755,221.825364,188.665311,997.469732,990.395915,0
0.010417,180.541032,-71.056985,-123.131061,0.666048,-3.985947,4.570315,-0.102417,3.914803,-4.564769,0.240479,-0.154011,0.547184,-0.050629,182.738004,188.570984,996.848448,990.774916,0
0.011458,170.242042,8.544091,-161.897160,-0.148272,-4.767008,3.641666,1.528192,4.877850,-3.670874,-1.374783,-0.080951,0.555611,-0.028224,121.946756,188.571075,997.621788,991.079682,0
0.012500,122.773677,82.853732,-181.360228,-0.555432,-4.887718,1.720872,3.352832,4.910932,-1.807542,-3.039855,-0.062686,0.546465,-0.046895,32.269768,188.495857,997.224242,991.131426,0
0.013542,42.241924,133.484801,-188.882008,-0.679842,-4.330324,-0.184049,4.464780,4.440436,0.194280,-4.310007,-0.015197,0.564626,-0.050629,-58.945380,188.721809,997.916275,991.808930,0
0.014583,-27.752647,176.408252,-153.919887,-0.001242,-3.176484,-2.009597,4.968515,3.275223,1.927515,-4.793874,-0.011544,0.564234,-0.039427,-139.167209,188.495591,998.477078,992.443631,0
0.015625,-99.584703,181.627203,-102.461553,0.960108,-1.277085,-3.612905,4.502094,1.396915,3.618782,-4.406069,-0.059033,0.556068,-0.024490,-196.927377,188.571111,999.616956,992.022857,0
0.016667,-145.124842,179.694258,-13.529735,2.656608,0.632965,-4.668548,3.561789,-0.518151,4.609201,-3.441892,-0.044421,0.549536,-0.009553,-224.308887,188.495660,999.648096,991.627410,0
0.017708,-169.908206,149.914830,65.935227,4.194768,2.379702,-4.926506,2.087898,-2.326620,5.049854,-2.118373,-0.077298,0.555284,-0.035692,-217.952667,188.721862,1001.013150,992.208511,0
0.018750,-181.296076,71.739300,123.105682,5.212668,4.115788,-4.422496,-0.046446,-3.962329,4.504284,-0.090400,-0.121134,0.547510,-0.054364,-179.521288,188.571084,1001.908395,991.831702,0
0.019792,-170.248481,-9.855126,161.637879,5.959128,4.935902,-3.477973,-1.624816,-4.870239,3.631372,1.546209,-0.183235,0.540325,-0.024490,-116.671619,188.571165,1002.703583,991.682180,0
0.020833,-123.018309,-82.135174,181.778031,6.422838,4.982056,-1.549241,-3.464381,-4.884942,1.814204,3.225513,-0.194194,0.554435,-0.024490,-30.466801,188.495526,1002.817068,991.605945,0
0.021875,-44.017793,-132.850809,188.733523,6.592488,4.438863,0.391396,-4.542747,-4.458555,-0.208602,4.452970,-0.205153,0.562993,0.016587,63.779427,188.722056,1003.626530,991.687834,0
0.022917,27.939031,-176.185012,154.226894,5.913888,3.238869,2.201070,-5.035288,-3.252909,-2.017377,4.869238,-0.238030,0.538692,-0.043161,145.222735,188.571136,1005.172810,991.254239,0
0.023958,99.873169,-181.138183,102.546970,4.941228,1.410476,3.752787,-4.624837,-1.396656,-3.658284,4.545474,-0.201500,0.559334,-0.024490,200.234574,188.571122,1006.332718,990.220649,0
0.025000,144.970951,-179.736798,15.043182,3.256038,-0.584781,4.836210,-3.609904,0.547816,-4.665490,3.616876,-0.190541,0.558158,-0.039427,229.832843,188.495734,1007.367343,989.812043,0
0.026042,169.550149,-149.691589,-65.702084,1.717878,-2.271163,5.042576,-2.191984,2.323204,-5.009619,2.232874,-0.146705,0.550189,-0.028224,223.487934,188.721815,1007.926743,989.691910,0
0.027083,180.903992,-70.465021,-122.614016,0.654738,-3.932693,4.586189,-0.065103,3.991994,-4.547982,0.226248,-0.128440,0.536993,-0.039427,183.721974,188.571029,1008.777811,989.479254,0
0.028125,170.128617,9.039408,-161.687879,-0.069102,-4.798961,3.629760,1.494610,4.881526,-3.645693,-1.378341,-0.099216,0.554500,-0.039427,121.991996,188.571180,1008.692647,989.220209,0
0.029167,123.590337,81.838936,-181.594129,-0.510192,-4.855765,1.704997,3.337906,4.903580,-1.811739,-3.096781,-0.077298,0.554239,-0.020755,34.000198,188.495664,1009.720267,988.856494,0
0.030208,42.672939,133.219021,-188.955872,-0.657222,-4.291271,-0.211829,4.449855,4.466166,0.185887,-4.295775,-0.007891,0.525823,-0.031958,-59.601360,188.721918,1009.700423,989.029703,0
0.031250,-28.467224,176.130392,-154.190720,-0.001242,-3.158732,-2.025471,5.002097,3.249493,1.952695,-4.761853,-0.044421,0.576253,-0.043161,-139.676158,188.571118,1009.623497,988.475921,0
0.032292,-99.187715,181.639284,-103.212500,0.926178,-1.298386,-3.608936,4.554333,1.441024,3.576815,-4.466552,-0.026156,0.559596,-0.031958,-195.355287,188.571147,1009.462239,989.366110,0
0.033333,-144.943362,179.766744,-14.391477,2.611368,0.654267,-4.668548,3.584177,-0.510800,4.592414,-3.466797,-0.084604,0.550189,-0.020755,-224.806527,188.495573,1009.448883,989.417711,0
0.034375,-169.749411,150.083963,66.058334,4.217388,2.358400,-4.906663,2.099092,-2.282511,5.016280,-2.132604,-0.088257,0.551691,-0.028224,-216.075207,188.721849,1008.634806,989.417039,0
0.035417,-180.717609,72.379588,123.081061,5.246598,4.094486,-4.466151,-0.005401,-3.940275,4.563038,-0.090400,-0.128440,0.550319,-0.054364,-178.763518,188.571002,1008.688496,989.835539,0
0.036458,-170.826948,-8.429579,161.699432,6.004368,4.886198,-3.553376,-1.553920,-4.826130,3.639765,1.499957,-0.164970,0.547445,-0.028224,-116.128739,188.571006,1008.244046,989.694942,0
0.037500,-123.483351,-82.594249,181.039394,6.354978,4.967855,-1.640519,-3.427067,-4.822455,1.839384,3.175703,-0.216112,0.521446,-0.054364,-30.342391,188.495636,1007.031422,989.414744,0
0.038542,-43.462010,-132.838728,189.213637,6.524628,4.449514,0.319962,-4.561404,-4.462231,-0.170832,4.428065,-0.263601,0.562535,-0.050629,63.191307,188.721864,1006.407259,989.831846,0
0.039583,26.838808,-175.798423,154.189963,5.891268,3.313425,2.105824,-5.068870,-3.300694,-1.941836,4.911932,-0.245336,0.565475,-0.050629,144.860815,188.571026,1006.054919,990.668782,0
0.040625,99.158591,-181.899279,102.608523,4.895988,1.460180,3.780567,-4.639762,-1.411359,-3.620513,4.581052,-0.230724,0.554958,-0.024490,199.397634,188.571024,1005.974601,991.135609,0
0.041667,144.551278,-179.422694,14.723106,3.278658,-0.496024,4.808430,-3.691994,0.503707,-4.665490,3.616876,-0.212459,0.553716,-0.028224,229.391753,188.571075,1005.392040,991.345817,0
0.042708,170.037877,-150.186906,-64.840341,1.717878,-2.256962,5.046545,-2.240492,2.297473,-5.009619,2.254221,-0.168623,0.557832,-0.061832,222.684924,188.721925,1005.371337,991.571866,0
0.043750,180.121360,-71.890568,-122.798675,0.654738,-3.975296,4.598095,-0.124805,4.021400,-4.573163,0.244037,-0.143052,0.508054,-0.076769,182.421324,188.570980,1005.907728,991.784253,0
0.044792,170.514262,9.667615,-161.306250,-0.091722,-4.834464,3.665478,1.516998,4.888877,-3.696054,-1.392572,-0.080951,0.538561,-0.058098,122.093786,188.571060,1006.070098,992.418616,0
0.045833,123.828530,82.044311,-181.064773,-0.510192,-4.873517,1.764526,3.330444,4.940338,-1.887279,-3.046971,-0.059033,0.557636,-0.046895,34.260328,188.571008,1005.329066,993.591222,0
0.046875,44.136121,132.953241,-189.115910,-0.645912,-4.305472,-0.168174,4.442392,4.444111,0.198477,-4.331354,-0.048074,0.551299,-0.031958,-58.368570,188.721866,1006.227942,993.078854,0
0.047917,-28.353799,176.045825,-154.153788,-0.012552,-3.165833,-2.037377,4.964784,3.308305,1.956891,-4.765411,-0.051727,0.537450,-0.020755,-139.348168,188.570953,1006.223323,993.713630,0
0.048958,-99.380538,181.832578,-103.138637,0.982728,-1.344540,-3.660528,4.561796,1.418969,3.635569,-4.484341,-0.059033,0.561033,-0.028224,-196.576767,188.495680,1007.164262,993.790463,0
0.050000,-145.011417,179.609692,-15.524053,2.622678,0.718172,-4.692360,3.531938,-0.529179,4.613398,-3.449008,-0.069992,0.550973,-0.035692,-224.263647,188.571026,1007.754356,993.322943,0
0.051042,-169.783438,150.228933,65.873674,4.172148,2.383252,-4.906663,2.065509,-2.286187,4.995297,-2.054332,-0.091910,0.547968,-0.054364,-217.805637,188.646487,1007.958463,992.187856,0
0.052083,-181.057884,71.666815,122.748675,5.269218,4.119338,-4.482025,-0.046446,-3.951302,4.508481,-0.054822,-0.121134,0.547772,-0.035692,-179.849278,188.571123,1007.990262,991.320124,0
0.053125,-170.883661,-7.813453,161.625569,6.004368,4.946553,-3.481942,-1.594965,-4.888618,3.635569,1.578230,-0.175929,0.559530,-0.039427,-118.379429,188.571067,1009.593823,991.024541,0
0.054167,-124.016449,-81.603614,181.581061,6.400218,4.978505,-1.557179,-3.490500,-4.925376,1.805810,3.221955,-0.205153,0.548948,-0.061832,-30.500731,188.571042,1011.429393,991.356411,0
0.055208,-42.985625,-132.597110,189.164395,6.569868,4.460165,0.391396,-4.628568,-4.388716,-0.229586,4.467201,-0.212459,0.531245,-0.054364,63.915147,188.721835,1012.009957,990.154715,0
0.056250,27.020288,-176.003798,154.473107,5.891268,3.281472,2.185196,-5.076333,-3.267612,-1.988000,4.951068,-0.267254,0.567500,-0.020755,143.763745,188.555002,1013.013166,989.966436,0
0.057292,98.648179,-181.416043,103.347159,4.895988,1.406926,3.752787,-4.617374,-1.400331,-3.645693,4.566821,-0.212459,0.556721,-0.020755,199.951824,188.495387,1013.444342,989.373496,0
0.058333,144.381141,-179.954254,14.341477,3.244728,-0.567029,4.832241,-3.628561,0.555168,-4.673883,3.570624,-0.223418,0.550450,-0.035692,229.584023,188.571075,1014.015609,988.575908,0
0.059376,169.470752,-149.981531,-65.271212,1.763118,-2.249861,5.102105,-2.165864,2.370988,-5.064176,2.207969,-0.183235,0.550711,-0.046895,223.985574,188.721936,1015.253517,988.241987,0
0.060430,181.834077,-69.836814,-122.909470,0.666048,-4.039201,4.526660,0.013256,4.036103,-4.547982,0.162207,-0.117481,0.549144,-0.024490,183.733284,188.571069,1015.752307,987.848465,0
0.061465,169.924452,10.235418,-161.724811,-0.103032,-4.767008,3.594043,1.520729,4.874174,-3.620513,-1.424593,-0.088257,0.535099,-0.054364,120.465146,188.495700,1015.687560,986.865125,0
0.062500,123.476912,82.165120,-181.212501,-0.476262,-4.873517,1.728809,3.360295,4.907256,-1.874689,-3.089665,-0.077298,0.560184,-0.031958,34.678798,188.571120,1015.926582,986.445832,0
0.063542,44.453711,132.832432,-189.029735,-0.611982,-4.312573,-0.191986,4.483437,4.451463,0.164904,-4.327796,-0.055380,0.561751,-0.043161,-57.803070,188.721942,1015.684929,986.702799,0
0.064583,-27.162837,175.852531,-154.424622,0.032688,-3.148081,-2.009597,4.972246,3.319332,1.919121,-4.765411,-0.033462,0.539410,-0.028224,-139.540438,188.571006,1015.542757,986.657873,0
0.065625,-99.165030,182.062116,-102.806250,1.039278,-1.294836,-3.624811,4.558064,1.411618,3.631372,-4.427416,-0.055380,0.554892,-0.039427,-195.264807,188.495676,1015.183421,985.999901,0
0.066667,-144.569060,179.633854,-15.634849,2.611368,0.636515,-4.656643,3.565520,-0.440961,4.642775,-3.470355,-0.051727,0.553716,-0.039427,-224.919627,188.646446,1014.742235,986.865446,0
0.067708,-170.327878,150.675927,64.765720,4.138218,2.404554,-4.918569,2.106554,-2.286187,5.037264,-2.082795,-0.088257,0.550973,-0.035692,-216.482367,188.721875,1015.364658,987.401752,0
0.068750,-180.400019,72.029242,122.687122,5.235288,4.087386,-4.466151,-0.012864,-3.855732,4.533661,-0.097516,-0.117481,0.518441,-0.031958,-178.243258,188.571060,1013.996555,987.748994,0
0.069792,-171.167223,-8.332932,161.367046,5.936508,4.932352,-3.529565,-1.587502,-4.862888,3.673339,1.507073,-0.168623,0.554435,-0.009553,-117.248429,188.495665,1012.927602,988.536066,0
0.070833,-125.048616,-81.072055,180.953220,6.343668,4.989156,-1.584959,-3.427067,-4.921700,1.835187,3.197050,-0.190541,0.559922,-0.039427,-32.004961,188.646415,1012.725160,988.531683,0
0.071875,-43.836313,-132.391735,189.779925,6.535938,4.421112,0.315993,-4.572598,-4.348283,-0.221192,4.424507,-0.216112,0.514717,-0.054364,63.587157,188.646469,1012.436203,987.892954,0
0.072917,27.451303,-175.351430,154.571591,5.868648,3.320526,2.109793,-5.109915,-3.297018,-1.954426,4.872796,-0.227071,0.556917,-0.039427,144.521515,188.571109,1011.148214,987.712689,0
0.073958,98.228506,-182.080493,103.802652,4.941228,1.449529,3.796441,-4.669613,-1.462819,-3.620513,4.630862,-0.212459,0.557962,-0.035692,198.854754,188.495691,1011.173771,988.994594,0
0.075000,144.199661,-179.519341,15.326326,3.244728,-0.520876,4.796524,-3.688263,0.507383,-4.631916,3.620434,-0.194194,0.550907,-0.024490,229.142933,188.721780,1010.422746,989.433206,0
0.076042,169.799684,-150.186906,-65.246591,1.785738,-2.253411,5.058451,-2.247954,2.271743,-5.034799,2.264894,-0.205153,0.552541,-0.076769,222.696234,188.646431,1008.984328,990.231706,0
0.077083,179.917195,-73.050334,-122.687879,0.666048,-3.936243,4.645718,-0.121073,3.962588,-4.631916,0.261826,-0.143052,0.544636,-0.028224,183.416604,188.571002,1008.233531,991.144961,0
0.078125,171.172127,7.807156,-161.257008,-0.069102,-4.830913,3.685321,1.516998,4.899904,-3.696054,-1.389014,-0.080951,0.558746,-0.031958,123.055136,188.495720,1008.977920,991.842081,0
0.079167,123.953297,82.442981,-180.793940,-0.442332,-4.852215,1.764526,3.360295,4.947689,-1.857902,-3.029182,-0.062686,0.545877,-0.031958,33.853168,188.646496,1008.655720,992.080195,0
0.080208,43.852559,132.772027,-189.546781,-0.645912,-4.376478,-0.180080,4.490900,4.425733,0.198477,-4.349143,-0.040768,0.556983,-0.050629,-57.361980,188.646453,1009.080536,991.715854,0
0.081250,-26.244094,175.900854,-154.486175,-0.023862,-3.176484,-2.005629,4.972246,3.304629,1.935908,-4.744064,-0.000585,0.567631,-0.028224,-138.058829,188.571008,1009.296492,991.101463,0
0.082292,-98.631933,182.279572,-103.224811,0.960108,-1.316138,-3.660528,4.610304,1.448375,3.652355,-4.480783,-0.040768,0.561882,-0.054364,-196.644627,188.495557,1009.864498,991.885042,0
0.083333,-144.432950,179.766744,-15.019318,2.622678,0.668468,-4.680454,3.584177,-0.521827,4.651168,-3.491702,-0.059033,0.550319,-0.050629,-224.173167,188.721828,1010.624340,991.694344,0
0.084375,-170.259823,151.026273,64.396402,4.115598,2.443607,-4.910632,2.106554,-2.311917,5.020477,-2.111257,-0.077298,0.556199,-0.039427,-218.721747,188.571033,1010.824532,991.679984,0
0.085417,-180.694924,72.886986,122.477841,5.235288,4.062534,-4.422496,-0.035252,-3.951302,4.542054,-0.079727,-0.146705,0.539671,-0.084238,-179.792728,188.571069,1012.425819,991.631263,0
0.086458,-171.212593,-8.961139,160.997728,5.959128,4.943003,-3.489879,-1.680786,-4.921700,3.610388,1.542651,-0.154011,0.565148,-0.020755,-118.311569,188.495702,1013.239296,991.046516,0
0.087500,-124.662971,-81.156621,181.371781,6.366288,5.017559,-1.588927,-3.483038,-4.910673,1.818401,3.218397,-0.190541,0.552279,-0.024490,-32.208541,188.721907,1013.445616,990.861650,0
0.088542,-45.254125,-132.162198,189.484470,6.547248,4.392710,0.383459,-4.617374,-4.436501,-0.250569,4.474317,-0.223418,0.562993,-0.050629,62.919867,188.571071,1014.860770,991.448529,0
0.089583,27.269823,-175.593048,154.694697,5.879958,3.249520,2.169322,-5.065139,-3.285991,-1.946033,4.894143,-0.241683,0.583178,-0.069301,144.080425,188.572365,1015.087080,991.547877,0
0.090625,98.523411,-181.790551,103.741099,4.918608,1.414026,3.808347,-4.695733,-1.396656,-3.679267,4.595284,-0.208806,0.559530,-0.080503,199.657764,188.496018,1015.856377,990.535039,0
0.091667,144.245031,-179.881769,16.212689,3.256038,-0.563479,4.800493,-3.639755,0.540465,-4.682277,3.606202,-0.219765,0.555872,-0.080503,229.708433,188.647550,1017.007705,990.240411,0
0.092709,169.697602,-150.428525,-64.938826,2.272068,-2.274713,5.086231,-2.191984,2.356285,-5.013815,2.222200,-0.179582,0.549732,-0.058098,223.748064,188.571482,1018.023444,989.191179,0
0.093750,180.336867,-72.192590,-122.084659,0.654738,-3.996598,4.610001,-0.098685,3.984643,-4.552179,0.226248,-0.117481,0.529611,-0.046895,184.502364,188.571446,1018.047265,988.011724,0
0.094796,170.911249,7.807156,-161.367804,-0.103032,-4.791860,3.633729,1.487147,4.914607,-3.641497,-1.381899,-0.128440,0.557309,-0.080503,123.100376,188.496105,1018.055460,987.488757,0
0.095834,124.758615,81.440266,-181.015531,-0.476262,-4.869966,1.752620,3.356563,4.947689,-1.857902,-3.078992,-0.037115,0.551691,-0.050629,34.984168,188.722364,1019.063702,987.152915,0
0.096876,43.387516,132.554571,-189.522160,-0.668532,-4.355176,-0.211829,4.442392,4.433084,0.164904,-4.313565,-0.073645,0.573314,-0.043161,-58.221540,188.646929,1018.251760,987.399187,0
0.097917,-26.618397,175.671317,-154.670834,0.010068,-3.197785,-2.013566,4.975978,3.304629,1.923318,-4.740506,-0.018850,0.564495,-0.024490,-138.228479,188.571473,1018.029947,987.458856,0
0.098959,-98.076150,184.719914,-103.458712,0.971418,-1.284185,-3.624811,4.576721,1.452051,3.589405,-4.434531,-0.026156,0.558093,-0.046895,-195.106467,188.496063,1017.651929,987.348228,0
0.100001,-143.956564,179.839229,-15.031629,2.656608,0.707521,-4.664580,3.554326,-0.503448,4.596611,-3.424103,-0.084604,0.547576,-0.043161,-224.648187,188.723232,1016.795613,986.274830,0
0.101042,-170.169083,150.893383,64.544129,4.183458,2.369051,-4.946349,2.125211,-2.308242,4.991100,-2.125489,-0.088257,0.553978,-0.065566,-216.889527,188.571781,1016.382659,986.215333,0
0.102085,-180.037059,74.119238,122.502462,5.246598,4.076735,-4.470119,-0.046446,-3.943950,4.571431,-0.101074,-0.124787,0.550254,-0.054364,-179.046268,188.570910,1016.465028,986.454565,0
0.103125,-171.677636,-7.922181,160.960796,5.947818,4.903950,-3.537502,-1.576308,-4.807752,3.631372,1.521304,-0.157664,0.506878,-0.058098,-117.203189,188.495450,1015.447577,985.976662,0
0.104167,-124.855794,-81.700262,180.497728,6.332358,4.971405,-1.664330,-3.397216,-4.877591,1.839384,3.168587,-0.212459,0.554239,-0.073035,-32.163301,188.721704,1014.341303,985.929843,0
0.105208,-45.027275,-132.029308,189.767614,6.569868,4.474366,0.323930,-4.546478,-4.440177,-0.212799,4.463643,-0.227071,0.561751,-0.054364,61.766247,188.570872,1013.919852,986.285862,0
0.106250,25.829325,-175.146054,154.583902,5.879958,3.238869,2.109793,-5.072601,-3.289667,-1.925049,4.855007,-0.230724,0.556329,-0.058098,143.978635,188.571002,1013.512410,985.648733,0
0.107292,98.126424,-182.491244,103.384091,4.907298,1.481481,3.740881,-4.714390,-1.437089,-3.607923,4.613073,-0.223418,0.559269,-0.035692,198.820824,188.696018,1012.618121,986.313824,0
0.108333,143.779988,-179.507260,16.385038,3.312588,-0.492473,4.812398,-3.703189,0.485329,-4.652900,3.623992,-0.241683,0.554239,-0.043161,229.109003,188.706935,1011.725319,986.563504,0
0.109375,170.355467,-150.923842,-63.769318,1.729188,-2.225009,5.062419,-2.247954,2.253364,-5.047389,2.257778,-0.168623,0.557767,-0.050629,223.273044,188.572974,1011.143894,987.450470,0
0.110417,179.429467,-73.086577,-122.318561,0.666048,-3.922042,4.594126,-0.135999,3.951561,-4.564769,0.276058,-0.146705,0.507270,-0.054364,182.658834,188.527012,1010.478788,987.789960,0
