1-Time,2-VGERA,3-VGERB,4-VGERC,5-VN,6-IGERAN,7-IGERBN,8-IGERCN,9-IGERAT,10-IGERBT,11-IGERCT,12-IN,13-IFD,14-IFAULT,15-VFAULT,16-Speed (rad/s),17-Active Power,18-Reactive Power,19-FAULT 
0.000000,-85.565933,-60.676130,204.517649,4.142431,0.578104,5.327342,-5.045350,-0.320519,-5.137717,5.393854,-0.200241,0.341006,-0.071140,18.346279,188.420280,1461.612321,-870.536930,0
0.001042,-31.303692,-137.465006,177.954095,3.680800,-1.858426,6.268659,-3.565439,2.047912,-6.042399,3.800372,-0.189302,0.335150,-0.056273,-113.837710,188.420274,1461.799483,-870.288090,0
0.002083,19.591172,-186.641364,126.030002,2.768796,-3.909661,5.918682,-1.302047,4.053643,-5.932485,1.646709,-0.116379,0.333772,-0.071140,-206.932796,188.269554,1462.778321,-870.459613,0
0.003125,81.153165,-194.592735,60.459581,1.485236,-5.869160,4.993456,1.426894,5.878024,-4.892523,-1.207177,-0.058040,0.302285,-0.089723,-280.832439,188.269608,1462.993812,-870.861595,0
0.004167,152.048897,-163.562419,6.348187,0.393084,-6.492970,3.235526,3.429126,6.596170,-3.341035,-3.269999,-0.006994,0.318063,-0.052556,-312.412040,188.420350,1464.477363,-870.640644,0
0.005208,193.915120,-97.978282,-41.893949,-0.563957,-6.023277,0.805802,5.253466,6.026731,-0.867956,-5.075442,0.018530,0.326331,-0.056273,-291.899372,188.495651,1464.371493,-870.229943,0
0.006250,189.892347,-41.343844,-115.107771,-1.915073,-4.962800,-1.454968,6.184561,5.167132,1.381067,-6.180660,0.065930,0.365948,-0.071140,-225.081216,188.269543,1464.605452,-870.136773,0
0.007292,144.037250,9.476815,-178.685318,-3.187373,-3.190444,-3.442193,6.267829,3.389902,3.393350,-6.226080,0.076868,0.340180,-0.056273,-129.149032,188.269541,1464.724757,-870.601636,0
0.008333,84.407544,60.708549,-204.398255,-3.671523,-0.533746,-5.292646,5.302670,0.959812,5.228079,-5.374456,0.014883,0.320336,-0.052556,-18.040626,188.420370,1465.504702,-871.333818,0
0.009375,31.365694,137.520915,-177.652425,-3.209892,1.917462,-6.242008,3.822759,-1.379603,6.200401,-3.803683,-0.003348,0.300149,-0.078573,113.253956,188.495617,1466.190081,-872.460514,0
0.010417,-19.382270,186.274452,-126.542494,-2.219074,4.005392,-5.888008,1.513947,-3.457874,6.073577,-1.615956,-0.061686,0.316478,-0.026539,206.833150,188.269559,1466.756286,-873.204933,0
0.011458,-81.475360,194.319784,-61.482444,-0.980551,5.968560,-4.926578,-1.196068,-5.267747,4.991340,1.260640,-0.134610,0.318407,-0.030256,281.025509,188.269516,1467.614754,-873.772053,0
0.012500,-152.065994,163.700542,-7.164472,0.100342,6.577692,-3.168648,-3.273999,-5.971385,3.397578,3.376452,-0.163779,0.323092,-0.048839,312.154777,188.420376,1468.032486,-874.551413,0
0.013542,-194.350314,98.821107,42.013344,1.034864,6.148364,-0.694674,-5.143759,-5.445470,0.945636,5.178110,-0.200241,0.328536,-0.071140,293.004367,188.495740,1468.838194,-875.470283,0
0.014583,-189.886844,42.304118,115.591716,2.509832,5.084217,1.529892,-5.995370,-4.604006,-1.332979,6.275758,-0.225764,0.324815,-0.067423,225.792169,188.269384,1469.118243,-876.083702,0
0.015625,-144.630643,-8.645736,179.266476,3.714578,3.242142,3.525162,-6.131627,-2.812268,-3.260713,6.328748,-0.243995,0.345140,-0.048839,129.927535,188.269494,1470.310620,-876.929381,0
0.016667,-84.944437,-60.535190,204.505498,4.221246,0.600121,5.323319,-5.086984,-0.342281,-5.125035,5.374929,-0.207533,0.343556,-0.048839,18.154888,188.420412,1470.087102,-876.375638,0
0.017708,-30.885594,-137.817357,178.063460,3.748356,-1.909798,6.328999,-3.557870,2.037031,-6.080447,3.853361,-0.167425,0.331498,-0.041406,-114.119168,188.495785,1471.226021,-876.177400,0
0.018750,19.557272,-186.335993,126.030002,2.780056,-3.942686,5.983045,-1.313401,4.053643,-5.945167,1.623999,-0.123671,0.333634,-0.030256,-206.437430,188.269707,1471.046352,-876.384484,0
0.019792,80.893267,-195.168241,60.544643,1.462718,-5.924202,5.029660,1.392829,5.946937,-4.968618,-1.195822,-0.079917,0.310001,-0.041406,-280.888731,188.269628,1472.475299,-877.053498,0
0.020833,151.642099,-163.433224,6.506159,0.415603,-6.503978,3.336094,3.440481,6.643321,-3.328353,-3.307849,-0.028871,0.322266,-0.052556,-311.578924,188.420305,1472.552240,-877.892230,0
0.021875,194.344517,-97.978282,-41.602309,-0.518919,-6.045294,0.785688,5.283745,6.106525,-0.906003,-5.105722,0.018530,0.328536,-0.056273,-293.137788,188.495631,1473.901598,-878.194705,0
0.022917,189.734148,-41.989819,-114.986254,-1.892554,-5.058206,-1.434855,6.237550,5.210656,1.389522,-6.229865,0.054991,0.320474,-0.056273,-226.308373,188.269541,1474.595792,-878.832749,0
0.023958,144.613546,8.631174,-178.891896,-3.187373,-3.241817,-3.462307,6.332173,3.455188,3.355303,-6.316920,0.029468,0.342522,-0.033973,-130.691422,188.269554,1476.142702,-878.920524,0
0.025000,85.627936,60.532374,-204.240283,-3.637746,-0.574110,-5.288623,5.314025,1.025098,5.257672,-5.400951,0.014883,0.311379,-0.037689,-18.896258,188.420327,1476.968716,-879.098312,0
0.026042,32.574786,137.497425,-177.992672,-3.198633,1.928470,-6.258099,3.822759,-1.444889,6.153899,-3.841533,-0.028871,0.330878,-0.030256,112.938723,188.420245,1476.765685,-879.896936,0
0.027083,-18.749475,186.450627,-126.615404,-2.230333,3.990714,-5.948349,1.517732,-3.443366,6.115852,-1.661376,-0.065333,0.333152,-0.059989,206.653017,188.269523,1477.502421,-879.759141,0
0.028125,-80.932964,194.719114,-61.288017,-0.958032,5.972229,-4.958760,-1.230133,-5.231477,5.025160,1.222790,-0.094502,0.316754,-0.041406,280.924185,188.269561,1477.800670,-879.094918,0
0.029167,-152.190293,163.911953,-7.213078,0.100342,6.577692,-3.196807,-3.255075,-5.993147,3.414488,3.346172,-0.134610,0.321714,-0.059989,312.301135,188.420226,1478.271031,-878.873854,0
0.030208,-194.169515,98.515736,41.673097,1.079901,6.137356,-0.702719,-5.139974,-5.481740,0.958318,5.181895,-0.222118,0.327915,-0.071140,292.576551,188.420381,1478.582301,-878.836878,0
0.031250,-190.067643,42.069218,115.287924,2.476055,5.069539,1.554028,-6.006724,-4.607633,-1.286477,6.294683,-0.207533,0.325435,-0.033973,225.972302,188.344945,1478.887520,-878.472483,0
0.032292,-144.483744,-8.939361,178.756105,3.658281,3.311862,3.549298,-6.097563,-2.794133,-3.277623,6.328748,-0.229410,0.321025,-0.045123,129.713627,188.269559,1478.565674,-878.600949,0
0.033333,-84.526340,-60.347270,204.760683,4.209987,0.647824,5.343432,-5.124834,-0.382178,-5.167310,5.465769,-0.207533,0.343831,-0.041406,18.289988,188.420383,1480.107810,-878.631021,0
0.034375,-30.693496,-137.171381,178.197129,3.759615,-1.858426,6.328999,-3.573009,2.066047,-6.067764,3.891211,-0.178364,0.331085,-0.045123,-113.477444,188.420155,1480.150636,-878.723868,0
0.035417,19.410373,-186.770559,125.957092,2.791315,-3.880305,6.003159,-1.373960,4.082659,-5.974759,1.688344,-0.138256,0.328329,-0.045123,-206.426172,188.344844,1481.202806,-878.695101,0
0.036458,80.486470,-194.851126,60.969952,1.541533,-5.916863,5.049774,1.396614,5.849008,-4.960163,-1.169327,-0.068979,0.335081,-0.071140,-280.573498,188.269534,1480.369835,-877.668135,0
0.037500,151.890698,-163.832554,7.381079,0.460640,-6.503978,3.336094,3.444266,6.621559,-3.366400,-3.277569,-0.028871,0.322748,-0.074856,-313.582905,188.344892,1480.562281,-877.395256,0
0.038542,194.141119,-99.164528,-41.274214,-0.518919,-6.052633,0.809824,5.279960,6.070255,-0.927141,-5.075442,0.036760,0.329362,-0.041406,-293.993421,188.420262,1480.092622,-877.298659,0
0.039583,190.197445,-43.281770,-115.119923,-1.926332,-5.036189,-1.450946,6.229980,5.228791,1.343020,-6.237435,0.065930,0.339077,-0.071140,-227.220297,188.344880,1480.602573,-877.407049,0
0.040625,145.235042,7.949964,-178.867593,-3.221151,-3.238147,-3.474375,6.373807,3.462442,3.342621,-6.320705,0.040407,0.350652,-0.048839,-130.871555,188.269505,1480.658548,-877.662302,0
0.041667,86.147732,60.144788,-204.580530,-3.649005,-0.577780,-5.304714,5.336734,0.974320,5.304174,-5.484221,0.018530,0.352168,-0.059989,-18.986325,188.345006,1481.556896,-879.001539,0
0.042708,32.597386,137.462190,-177.992672,-3.209892,1.913792,-6.258099,3.860609,-1.423127,6.187719,-3.864243,0.011237,0.335977,-0.041406,113.062564,188.420334,1482.135171,-878.929059,0
0.043750,-18.918974,186.368412,-126.275157,-2.252852,4.016400,-5.952372,1.548012,-3.476009,6.107397,-1.600816,-0.065333,0.338044,-0.048839,206.765600,188.420325,1481.567658,-879.548682,0
0.044792,-80.786065,194.695624,-60.959922,-0.924254,6.016263,-5.011055,-1.192283,-5.293136,5.088572,1.203865,-0.123671,0.314756,-0.033973,280.789085,188.269496,1482.721162,-879.768869,0
0.045833,-151.591397,163.806247,-6.982196,0.100342,6.647412,-3.224966,-3.300494,-6.014909,3.465218,3.384022,-0.163779,0.319992,-0.048839,311.704444,188.344981,1483.211325,-879.998102,0
0.046875,-194.474613,98.198621,41.430064,1.046123,6.203406,-0.686628,-5.162683,-5.521637,0.987911,5.250025,-0.178364,0.326469,-0.048839,292.689134,188.420265,1484.155542,-880.552235,0
0.047917,-189.932043,41.799083,114.911222,2.498573,5.146598,1.517823,-6.071068,-4.647530,-1.328752,6.324963,-0.218472,0.322266,-0.030256,225.612036,188.420323,1484.525575,-881.089780,0
0.048958,-144.314245,-8.751441,178.999139,3.759615,3.330209,3.557344,-6.184616,-2.848538,-3.328353,6.374168,-0.233057,0.316823,-0.074856,130.186476,188.269584,1485.594393,-881.569879,0
0.050000,-84.661939,-60.041900,204.748531,4.221246,0.658833,5.375614,-5.196748,-0.353162,-5.171537,5.484694,-0.200241,0.330878,-0.063706,19.291979,188.344921,1485.552256,-882.006704,0
0.051042,-30.953394,-137.617691,178.270039,3.725837,-1.829070,6.328999,-3.652493,2.055166,-6.122721,3.932846,-0.171072,0.295119,-0.052556,-112.959561,188.420265,1486.669532,-882.214678,0
0.052083,19.037476,-186.289013,126.795557,2.791315,-3.931678,6.031318,-1.396670,4.068151,-6.050854,1.699699,-0.127317,0.338733,-0.052556,-205.570539,188.495709,1487.369294,-882.630122,0
0.053125,80.622069,-195.191731,62.014995,1.575311,-5.946218,5.077933,1.351195,5.939683,-5.027802,-1.142832,-0.061686,0.310690,-0.071140,-280.798664,188.269590,1488.913623,-883.616836,0
0.054167,151.879398,-164.008729,8.231697,0.438121,-6.559020,3.356208,3.455620,6.657829,-3.425585,-3.300279,-0.036163,0.325159,-0.045123,-313.053764,188.420358,1489.692078,-884.158170,0
0.055208,194.570516,-99.528624,-41.031181,-0.518919,-6.126023,0.817870,5.332950,6.113779,-0.982098,-5.128431,0.033114,0.332532,-0.052556,-294.218587,188.420280,1490.895927,-884.608693,0
0.056250,190.039246,-43.516671,-114.803979,-1.926332,-5.080223,-1.471059,6.237550,5.254180,1.338792,-6.294210,0.069576,0.341627,-0.056273,-226.781223,188.495801,1491.447744,-885.080468,0
0.057292,145.099443,7.856003,-178.867593,-3.209892,-3.256495,-3.486443,6.377592,3.469696,3.401805,-6.358555,0.040407,0.353822,-0.048839,-130.578839,188.269541,1491.925211,-885.877020,0
0.058333,85.684435,60.027338,-204.459013,-3.682783,-0.607135,-5.304714,5.389724,1.010590,5.253444,-5.453941,0.036760,0.331223,-0.078573,-18.693609,188.420406,1491.441648,-884.828422,0
0.059375,32.054990,137.168565,-178.332919,-3.153596,1.979843,-6.286258,3.856824,-1.430381,6.238449,-3.890738,-0.003348,0.348517,-0.056273,113.265214,188.420329,1492.182211,-885.103431,0
0.060417,-18.772074,186.497607,-126.153641,-2.196555,4.020070,-6.024781,1.608571,-3.472382,6.166581,-1.657591,-0.050748,0.335426,-0.071140,206.585467,188.495705,1493.305599,-884.830462,0
0.061458,-80.130669,194.965759,-60.741192,-0.958032,5.986907,-5.067373,-1.173359,-5.282255,5.063208,1.241715,-0.130964,0.318821,-0.033973,280.417560,188.269471,1492.639252,-885.247001,0
0.062500,-151.557497,163.817992,-7.140168,0.111601,6.610718,-3.281284,-3.243720,-6.033044,3.511720,3.384022,-0.160133,0.321232,-0.071140,311.828286,188.420301,1493.234395,-885.181914,0
0.063542,-194.259915,97.975466,41.187030,1.091161,6.196067,-0.807310,-5.143759,-5.514383,1.004821,5.200820,-0.211179,0.329638,-0.074856,292.655359,188.420262,1492.907518,-884.428874,0
0.064583,-190.078942,42.092708,114.789706,2.521092,5.157606,1.465528,-6.082423,-4.701935,-1.290704,6.317393,-0.222118,0.351755,-0.041406,226.872968,188.495702,1493.560366,-884.000078,0
0.065625,-144.574143,-8.175935,178.646740,3.759615,3.366904,3.557344,-6.211111,-2.881181,-3.298761,6.461223,-0.269518,0.315720,-0.059989,131.852708,188.269507,1494.543397,-884.146405,0
0.066667,-85.588533,-59.760020,204.894351,4.266283,0.666172,5.367569,-5.230812,-0.432956,-5.205357,5.556609,-0.218472,0.358714,-0.059989,20.879402,188.420424,1496.072156,-884.234738,0
0.067708,-32.264185,-137.159636,178.367252,3.804652,-1.843748,6.369227,-3.716837,2.011642,-6.126949,3.978266,-0.203887,0.340249,-0.022822,-111.698628,188.420367,1496.420220,-884.163720,0
0.068750,18.223881,-186.629619,127.075046,2.802574,-3.931678,6.075568,-1.434519,4.042762,-6.076219,1.756474,-0.141902,0.333496,-0.048839,-205.424181,188.495682,1497.091414,-883.912094,0
0.069792,80.384770,-195.015556,62.355242,1.485236,-5.979244,5.094024,1.366335,5.954191,-5.065850,-1.142832,-0.087210,0.321577,-0.048839,-280.460914,188.269489,1497.453073,-884.158599,0
0.070833,151.935897,-164.290609,8.256000,0.381825,-6.617732,3.380344,3.527534,6.697726,-3.467860,-3.341914,-0.006994,0.325504,-0.037689,-313.447806,188.420385,1498.306066,-884.779178,0
0.071875,194.401017,-99.070568,-40.788147,-0.530179,-6.129692,0.846029,5.363229,6.182692,-0.939823,-5.173851,0.011237,0.331498,-0.067423,-293.554346,188.420332,1498.762059,-885.675189,0
0.072917,190.253944,-42.952910,-114.512339,-1.915073,-5.153612,-1.434855,6.279184,5.323093,1.321882,-6.282855,0.025822,0.340386,-0.056273,-226.544798,188.495750,1499.497870,-885.122115,0
0.073958,144.670045,7.914729,-178.867593,-3.187373,-3.260164,-3.506557,6.487356,3.549490,3.439853,-6.400190,0.062284,0.345485,-0.041406,-130.297381,188.344804,1500.663319,-885.104153,0
0.075000,85.243738,59.721968,-204.932928,-3.694042,-0.651169,-5.352986,5.454068,1.017844,5.333767,-5.514501,0.062284,0.338871,-0.045123,-18.873742,188.344985,1501.876515,-885.873078,0
0.076042,31.964590,137.180310,-178.199251,-3.187373,1.935809,-6.350622,3.906028,-1.397738,6.293406,-3.905878,-0.006994,0.292776,-0.048839,113.040048,188.420443,1502.579198,-885.776387,0
0.077083,-18.489576,186.427137,-126.141489,-2.252852,4.049426,-6.069031,1.604786,-3.512279,6.166581,-1.691656,-0.072625,0.352237,-0.045123,206.191426,188.495723,1502.856327,-886.031697,0
0.078125,-80.153269,195.165424,-60.923467,-0.924254,6.049288,-5.103578,-1.165789,-5.358422,5.139302,1.241715,-0.138256,0.316823,-0.052556,280.687760,188.344941,1504.245644,-886.800092,0
0.079167,-151.218499,163.817992,-7.516870,0.145379,6.687777,-3.321512,-3.277784,-6.123719,3.511720,3.406732,-0.192949,0.322335,-0.048839,311.873319,188.344502,1504.865184,-887.798281,0
0.080208,-194.824911,98.351306,40.907542,1.079901,6.280465,-0.791219,-5.185393,-5.586923,1.030186,5.265165,-0.203887,0.333841,-0.041406,294.085166,188.420242,1506.259381,-888.730251,0
0.081250,-190.011143,43.208484,114.814009,2.509832,5.223657,1.477596,-6.124057,-4.734578,-1.273795,6.404448,-0.273164,0.323713,-0.056273,227.773634,188.495658,1507.262596,-889.638815,0
0.082292,-145.003540,-7.071904,179.460902,3.748356,3.425615,3.589525,-6.298165,-2.982737,-3.311443,6.491503,-0.240349,0.359954,-0.026539,132.471916,188.344979,1508.731162,-889.863692,0
0.083333,-86.763725,-59.478139,204.748531,4.187468,0.702866,5.395728,-5.253522,-0.414821,-5.222267,5.598244,-0.233057,0.347690,-0.041406,21.025761,188.344882,1509.100264,-890.718488,0
0.084375,-32.772682,-137.805612,178.513072,3.759615,-1.873104,6.453704,-3.728192,2.018896,-6.228409,4.008546,-0.203887,0.341489,-0.026539,-112.419161,188.420280,1510.523317,-891.623126,0
0.085417,17.873583,-186.253778,126.880619,2.780056,-3.994059,6.107750,-1.343681,4.086286,-6.114266,1.741334,-0.112733,0.340524,-0.063706,-204.973848,188.495655,1510.643043,-892.362557,0
0.086458,80.136172,-195.708511,62.075754,1.485236,-6.074650,5.134251,1.423109,6.044866,-5.103897,-1.135262,-0.036163,0.320543,-0.041406,-280.753631,188.420198,1511.821406,-893.203578,0
0.087500,151.348301,-163.867789,8.110180,0.438121,-6.647088,3.372298,3.531319,6.741250,-3.450950,-3.360839,0.000299,0.324746,-0.067423,-311.387532,188.344900,1511.753550,-893.632283,0
0.088542,195.180712,-98.518553,-40.447900,-0.530179,-6.247115,0.870165,5.442713,6.240724,-0.973643,-5.207916,0.011237,0.331016,-0.030256,-293.655671,188.420341,1512.927687,-893.806825,0
0.089583,189.813247,-42.694520,-114.184244,-1.926332,-5.127926,-1.479105,6.366238,5.337601,1.410659,-6.354770,0.044053,0.327778,-0.041406,-225.970623,188.495700,1513.096527,-895.183135,0
0.090625,144.285848,7.773788,-179.329356,-3.243670,-3.307867,-3.510580,6.502495,3.524101,3.452535,-6.468320,0.022176,0.356440,-0.048839,-130.387447,188.420343,1513.664317,-895.760841,0
0.091667,85.130739,59.545793,-204.726350,-3.626486,-0.592458,-5.397236,5.480562,1.017844,5.342222,-5.544781,0.018530,0.335770,-0.086006,-19.245267,188.344950,1513.924570,-895.811978,0
0.092708,31.795091,137.297760,-178.357222,-3.164855,1.983512,-6.398894,3.977942,-1.470278,6.348363,-3.955083,0.018530,0.338182,-0.048839,112.837398,188.420289,1514.865851,-896.804696,0
0.093750,-18.127979,186.380157,-126.226551,-2.207814,4.060434,-6.077076,1.612356,-3.501398,6.191946,-1.737076,-0.094502,0.313791,-0.022822,205.493410,188.495741,1515.411478,-896.558929,0
0.094792,-79.938570,195.353345,-61.774084,-0.935513,6.096991,-5.127714,-1.180929,-5.362049,5.219625,1.192510,-0.116379,0.321301,-0.041406,280.766568,188.420479,1516.522500,-896.430273,0
0.095833,-151.546197,163.982423,-8.646975,0.100342,6.731810,-3.313466,-3.338343,-6.167243,3.520175,3.421872,-0.178364,0.324953,-0.067423,312.154777,188.344898,1516.930340,-897.281326,0
0.096875,-195.163909,99.138222,40.421475,1.046123,6.280465,-0.771106,-5.238382,-5.655836,1.055550,5.280305,-0.207533,0.333496,-0.078573,294.366624,188.420383,1517.966299,-897.854419,0
0.097917,-189.977243,44.065870,114.777554,2.476055,5.271360,1.525869,-6.150552,-4.752713,-1.282250,6.483933,-0.233057,0.324264,-0.059989,227.661051,188.495723,1518.666200,-898.920909,0
0.098958,-145.082640,-6.484654,179.570267,3.759615,3.414607,3.601594,-6.313304,-2.986364,-3.353718,6.510428,-0.196595,0.353202,-0.059989,132.426883,188.420292,1518.867789,-899.696750,0
0.100000,-86.436027,-59.278474,204.845745,4.209987,0.680850,5.452046,-5.280016,-0.429329,-5.264542,5.575534,-0.207533,0.346312,-0.059989,20.721786,188.269469,1518.868772,-899.910355,0
0.101042,-32.625783,-137.429771,178.537375,3.759615,-1.862095,6.457727,-3.705482,2.051539,-6.262228,4.016116,-0.149195,0.341971,-0.067423,-112.340353,188.420265,1519.041464,-900.470075,0
0.102083,17.704084,-186.606129,126.431007,2.746278,-4.045432,6.164068,-1.389100,4.118929,-6.118494,1.718624,-0.112733,0.337630,-0.026539,-204.996365,188.495803,1519.005726,-900.929975,0
0.103125,79.831074,-195.626296,61.723355,1.485236,-6.096667,5.190569,1.400399,6.077509,-5.086987,-1.176897,-0.061686,0.302836,-0.067423,-280.528464,188.420323,1518.695206,-901.593792,0
0.104167,151.337001,-163.820809,8.195241,0.426862,-6.691121,3.372298,3.550244,6.763012,-3.412903,-3.360839,-0.054394,0.320474,-0.052556,-311.106074,188.269539,1518.479739,-901.946697,0
0.105208,195.248511,-98.013517,-40.046895,-0.496401,-6.265463,0.858097,5.423788,6.262486,-0.931368,-5.230626,0.051345,0.331085,-0.071140,-293.633154,188.420338,1518.355842,-902.524198,0
0.106251,189.914946,-42.577070,-114.050576,-1.870035,-5.201315,-1.442900,6.354883,5.359363,1.431797,-6.407760,0.069576,0.351824,-0.082290,-226.252081,188.420256,1518.927943,-903.159849,0
0.107292,144.037250,7.221773,-179.718210,-3.164855,-3.377587,-3.554830,6.544130,3.571252,3.477900,-6.483460,0.014883,0.355682,-0.045123,-131.490763,188.420251,1519.546523,-903.350257,0
0.108333,85.368037,59.134718,-204.896473,-3.694042,-0.662178,-5.433441,5.476777,1.006963,5.380269,-5.544781,0.011237,0.327640,-0.041406,-20.708849,188.269442,1519.608030,-904.055024,0
0.109375,32.586086,137.650110,-178.405829,-3.153596,1.954157,-6.431076,4.004436,-1.444889,6.386411,-3.970223,0.000299,0.301665,-0.045123,112.004282,188.420321,1520.228608,-904.291582,0
