1-Time,2-VGERA,3-VGERB,4-VGERC,5-VN,6-IGERAN,7-IGERBN,8-IGERCN,9-IGERAT,10-IGERBT,11-IGERCT,12-IN,13-IFD,14-IFAULT,15-VFAULT,16-Speed (rad/s),17-Active Power,18-Reactive Power,19-FAULT 
0.000000,-163.264220,161.093150,24.259751,0.753382,4.999819,-4.540396,-0.575339,-4.589498,4.674279,0.567986,-0.090856,0.455518,-0.071140,319.022355,188.495758,1534.330186,36.065145,0
0.001042,-184.880977,92.572761,78.565572,1.777978,5.630968,-2.786490,-2.766818,-5.079143,2.945237,2.804918,-0.163779,0.453382,-0.086006,275.283764,188.420390,1533.900794,35.558107,0
0.002083,-187.683358,20.939945,137.343208,2.960204,5.535562,-1.145219,-4.163460,-5.195207,1.233105,4.277281,-0.200241,0.468196,-0.074856,203.140420,188.495702,1534.080980,35.412993,0
0.003125,-142.969554,-42.565325,176.447288,3.748356,4.519118,1.039119,-5.155113,-4.186901,-0.791861,5.219745,-0.225764,0.448559,-0.071140,94.981695,188.495573,1534.215898,35.627152,0
0.004167,-68.932443,-92.657793,200.228109,4.209987,2.845838,3.279776,-5.420059,-2.554751,-3.116979,5.651234,-0.203887,0.451660,-0.056273,-28.736034,188.495783,1534.838521,36.186884,0
0.005208,-8.116245,-151.559018,171.222069,3.658281,0.809281,4.623365,-4.704706,-0.672338,-4.406362,4.833675,-0.185656,0.466956,-0.067423,-149.571632,188.420251,1534.819782,36.445063,0
0.006250,53.965545,-187.205124,122.785506,2.768796,-1.473131,5.456069,-3.224795,1.521997,-5.370229,3.467292,-0.174718,0.472468,-0.082290,-241.833603,188.495712,1535.722523,36.604334,0
0.007292,110.792869,-188.532310,44.577347,1.203754,-3.520697,5.407796,-1.207423,3.455188,-5.281452,1.461245,-0.134610,0.467438,-0.063706,-305.285520,188.495696,1536.087235,37.088689,0
0.008333,163.789519,-161.424827,-22.852280,-0.147362,-4.977478,4.723933,0.760745,4.913242,-4.681149,-0.597793,-0.109087,0.465095,-0.097156,-330.065093,188.495702,1536.378864,37.526326,0
0.009375,185.055979,-94.149409,-78.203144,-1.239515,-5.656330,2.925776,3.008998,5.471800,-3.002836,-2.789305,-0.017932,0.464613,-0.086006,-276.554276,188.344936,1536.849146,37.581953,0
0.010417,188.118258,-22.821963,-137.369634,-2.387963,-5.505882,1.216119,4.424564,5.518951,-1.248430,-4.375218,-0.006994,0.472743,-0.097156,-204.197023,188.495712,1537.395504,37.351990,0
0.011458,143.653052,41.399752,-177.081297,-3.086040,-4.537141,-1.004424,5.438928,4.561423,0.886451,-5.370671,-0.006994,0.477428,-0.104590,-94.867433,188.495674,1538.814305,37.234404,0
0.012500,70.463436,92.384841,-200.254535,-3.525153,-2.775794,-3.273239,5.677379,2.918392,3.236933,-5.771881,0.007591,0.469712,-0.100873,29.300629,188.495734,1540.438780,36.866118,0
0.013542,8.720644,151.838082,-171.029764,-3.074780,-0.669516,-4.636942,4.916606,0.890899,4.538999,-4.935397,0.007591,0.472605,-0.056273,151.239543,188.344856,1541.511467,36.119412,0
0.014583,-54.027842,186.896937,-122.107134,-2.117740,1.594548,-5.429418,3.478330,-1.256285,5.473274,-3.508454,-0.028871,0.456069,-0.059989,242.690914,188.495720,1542.265479,35.619136,0
0.015625,-110.651767,188.928824,-42.744566,-0.563957,3.649453,-5.377123,1.464743,-3.218492,5.401406,-1.472126,-0.076271,0.453796,-0.071140,303.722292,188.495745,1543.805537,35.533888,0
0.016667,-162.755723,161.140130,24.563543,0.753382,5.106234,-4.604760,-0.594263,-4.654784,4.725009,0.564201,-0.105440,0.459790,-0.100873,318.898514,188.495694,1544.834581,35.584560,0
0.017708,-185.615472,92.032491,78.346842,1.766719,5.737383,-2.834762,-2.838731,-5.202461,2.949464,2.816273,-0.160133,0.463511,-0.059989,276.229463,188.344892,1546.448968,35.520691,0
0.018750,-187.909357,21.245315,137.282450,2.948945,5.627299,-1.088901,-4.246728,-5.253239,1.245787,4.326486,-0.185656,0.451935,-0.067423,204.052344,188.495723,1547.637978,35.367910,0
0.019792,-142.754855,-41.566999,177.540938,3.793393,4.621863,1.107506,-5.261092,-4.273949,-0.842591,5.284090,-0.196595,0.480391,-0.067423,96.343952,188.420359,1549.498757,35.032532,0
0.020833,-70.118935,-92.246718,200.106593,4.119912,2.853177,3.344139,-5.495758,-2.609156,-3.176163,5.708009,-0.207533,0.467025,-0.078573,-27.261194,188.495727,1550.929227,34.622676,0
0.021875,-9.370537,-152.275464,171.307131,3.647022,0.779925,4.715888,-4.761480,-0.650576,-4.465547,4.909375,-0.211179,0.469229,-0.104590,-149.661699,188.344885,1552.569444,34.112956,0
0.022917,53.468348,-186.688344,123.332331,2.712500,-1.473131,5.536523,-3.221010,1.511116,-5.454779,3.501357,-0.156487,0.477773,-0.074856,-241.304461,188.495707,1553.657988,34.013018,0
0.023958,110.758970,-189.072581,44.553043,1.124939,-3.583078,5.500319,-1.192283,3.542236,-5.366001,1.359050,-0.130964,0.463855,-0.082290,-305.938503,188.420325,1555.088399,32.270888,0
0.025000,163.371422,-161.377847,-23.241133,-0.136103,-5.028850,4.683706,0.836443,4.971274,-4.719196,-0.650783,-0.054394,0.463786,-0.074856,-329.310785,188.495743,1555.984347,31.668773,0
0.026042,185.813074,-93.256788,-77.704926,-1.194477,-5.648991,2.905663,3.058202,5.522578,-2.956334,-2.891499,-0.039809,0.461995,-0.082290,-276.452951,188.344957,1556.835318,30.237290,0
0.027083,187.960059,-21.976322,-136.871415,-2.342926,-5.568263,1.167847,4.428349,5.515324,-1.227292,-4.409282,0.014883,0.467369,-0.063706,-203.240066,188.495736,1556.809309,29.916452,0
0.028125,143.234955,41.528947,-177.105600,-3.164855,-4.500446,-0.992355,5.438928,4.525153,0.949863,-5.389596,0.022176,0.453038,-0.097156,-94.664783,188.420430,1556.763296,28.990350,0
0.029167,69.683741,92.290881,-200.084411,-3.570190,-2.790472,-3.261171,5.662239,2.874868,3.194659,-5.790806,0.025822,0.463855,-0.086006,29.582087,188.495754,1556.265097,29.178196,0
0.030208,8.178247,151.603182,-171.236343,-3.007225,-0.636491,-4.640965,4.943101,0.887272,4.534772,-4.973247,-0.021578,0.478186,-0.086006,151.228285,188.344909,1556.587616,29.474148,0
0.031250,-53.880942,187.002642,-121.924859,-2.106481,1.594548,-5.437464,3.478330,-1.252658,5.464819,-3.569014,-0.017932,0.443599,-0.078573,242.341906,188.495817,1556.918670,30.089581,0
0.032292,-110.211070,189.104999,-42.926841,-0.485141,3.656792,-5.377123,1.453388,-3.225746,5.405634,-1.464556,-0.079917,0.456965,-0.059989,303.519642,188.420307,1556.979920,29.757077,0
0.033333,-163.038221,161.363285,23.761533,0.775900,5.091556,-4.624874,-0.594263,-4.680173,4.779966,0.579341,-0.076271,0.459583,-0.108307,319.022355,188.495702,1557.897550,29.536746,0
0.034375,-185.491173,92.983837,78.067354,1.811756,5.704358,-2.870967,-2.834946,-5.220596,3.025559,2.770853,-0.167425,0.465784,-0.074856,277.186421,188.269528,1558.431783,30.376965,0
0.035417,-188.044956,22.854381,137.561938,2.903908,5.634638,-1.133151,-4.242943,-5.242358,1.292290,4.318916,-0.163779,0.464337,-0.071140,205.752351,188.495727,1558.579456,30.431384,0
0.036458,-143.602350,-40.686123,177.358663,3.692059,4.621863,1.131642,-5.227027,-4.252187,-0.851046,5.299229,-0.178364,0.479564,-0.056273,97.199585,188.420242,1558.695284,29.623341,0
0.037500,-71.169828,-92.141012,200.301019,4.108653,2.816483,3.380344,-5.465478,-2.598275,-3.176163,5.738289,-0.211179,0.486799,-0.089723,-27.328744,188.495741,1559.224848,29.191110,0
0.038542,-9.641735,-151.970094,171.562316,3.590725,0.735892,4.748069,-4.727415,-0.621560,-4.490912,4.882880,-0.207533,0.456896,-0.071140,-149.841832,188.269530,1559.173764,28.354952,0
0.039583,53.151950,-187.205124,122.955629,2.689981,-1.542851,5.528478,-3.202085,1.576402,-5.442096,3.512712,-0.163779,0.472261,-0.086006,-241.732278,188.495725,1559.413077,27.803866,0
0.040625,110.476471,-189.049091,44.030521,1.147457,-3.638120,5.492273,-1.192283,3.596641,-5.378684,1.374190,-0.120025,0.459790,-0.082290,-305.600753,188.420338,1559.901757,27.629971,0
0.041667,163.201923,-161.448317,-23.557077,-0.158622,-5.047198,4.731979,0.866723,5.036560,-4.702286,-0.658352,-0.112733,0.460479,-0.082290,-329.524693,188.495770,1560.402991,27.155651,0
0.042708,185.835673,-92.317188,-77.619864,-1.183218,-5.685686,2.869458,3.145255,5.576983,-2.939424,-2.963414,-0.039809,0.448973,-0.056273,-275.754935,188.269599,1561.125402,26.432830,0
0.043750,188.061759,-21.588737,-136.834960,-2.331667,-5.571932,1.155778,4.496478,5.558848,-1.172335,-4.484982,-0.006994,0.451867,-0.067423,-203.082449,188.420245,1562.171162,25.501479,0
0.044792,142.500460,41.763848,-177.603819,-3.176114,-4.529802,-1.092923,5.552476,4.597693,0.945636,-5.453941,0.029468,0.456345,-0.059989,-94.169417,188.420329,1563.505500,26.150471,0
0.045833,69.276944,92.138196,-200.376051,-3.603968,-2.783133,-3.285307,5.787142,2.874868,3.262298,-5.847581,0.047699,0.466267,-0.086006,29.041688,188.495644,1564.624583,25.629482,0
0.046875,8.223447,152.096472,-171.212039,-3.029743,-0.640161,-4.729464,4.984735,0.934423,4.615094,-5.018667,0.022176,0.431541,-0.033973,150.958085,188.269492,1566.063109,26.000591,0
0.047917,-53.654944,186.814722,-122.593201,-2.027666,1.634912,-5.525963,3.463190,-1.314317,5.557823,-3.550089,-0.039809,0.460066,-0.119457,241.767732,188.420305,1567.267904,24.683065,0
0.048958,-110.719567,189.210704,-43.862520,-0.586475,3.744859,-5.401259,1.419324,-3.330929,5.447909,-1.400211,-0.076271,0.457447,-0.059989,304.262691,188.420294,1568.544628,22.952064,0
0.050000,-162.891322,161.515970,23.129646,0.730863,5.139259,-4.620851,-0.654822,-4.781729,4.784193,0.643686,-0.112733,0.466404,-0.074856,318.797189,188.495797,1569.670991,21.414619,0
0.051042,-186.553366,93.160012,77.581287,1.744200,5.821781,-2.802580,-2.937140,-5.275001,2.987512,2.865478,-0.123671,0.460272,-0.071140,277.895695,188.269462,1570.891630,19.849449,0
0.052083,-187.954556,23.312437,137.501180,2.903908,5.704358,-1.044651,-4.284578,-5.282255,1.245787,4.424896,-0.182010,0.472950,-0.063706,204.851685,188.420273,1572.178085,18.495623,0
0.053125,-142.890454,-40.204578,178.573830,3.748356,4.632872,1.204051,-5.355715,-4.266695,-0.935596,5.427919,-0.178364,0.466680,-0.093440,96.208852,188.420300,1574.154224,17.288895,0
0.054167,-70.559632,-91.847387,200.179503,4.176209,2.787127,3.440685,-5.491973,-2.580140,-3.256486,5.768569,-0.229410,0.479427,-0.074856,-28.049276,188.495729,1574.742329,16.470062,0
0.055208,-9.155838,-152.475129,171.550164,3.635763,0.710205,4.824501,-4.772835,-0.596171,-4.626191,4.898020,-0.196595,0.476050,-0.100873,-150.900115,188.344872,1576.322330,15.675978,0
0.056250,53.490948,-186.688344,122.615382,2.689981,-1.627249,5.568705,-3.171806,1.667077,-5.505508,3.429442,-0.171072,0.466749,-0.033973,-241.315720,188.344986,1576.522755,13.968385,0
0.057292,110.397372,-189.918221,43.277118,1.158716,-3.744535,5.548591,-1.135509,3.669181,-5.395594,1.328770,-0.112733,0.457310,-0.074856,-306.715327,188.420329,1577.311851,13.041685,0
0.058333,162.557827,-161.283887,-23.848717,-0.113585,-5.124257,4.687729,0.893217,5.098219,-4.698059,-0.768117,-0.090856,0.459928,-0.093440,-328.443894,188.495636,1577.792324,11.424312,0
0.059375,186.592768,-91.776917,-77.085190,-1.171959,-5.755406,2.913708,3.194460,5.627761,-2.943652,-3.012619,-0.028871,0.456827,-0.082290,-276.430434,188.345006,1578.734917,10.930150,0
0.060417,187.767961,-21.318602,-136.640533,-2.331667,-5.601288,1.155778,4.568392,5.602372,-1.189245,-4.530402,-0.006994,0.463648,-0.089723,-203.375166,188.345044,1579.486288,11.014127,0
0.061458,142.342261,41.176597,-178.126341,-3.164855,-4.588513,-1.096946,5.575186,4.565050,1.004821,-5.495576,0.007591,0.484456,-0.071140,-95.610482,188.420300,1579.912665,9.828746,0
0.062500,69.864540,91.915041,-200.120866,-3.581449,-2.775794,-3.341625,5.783357,2.900257,3.329938,-5.862721,0.040407,0.447044,-0.078573,27.690689,188.495714,1580.638675,9.226893,0
0.063542,9.330840,152.084727,-171.467225,-3.063521,-0.618144,-4.745555,4.988520,0.890899,4.636231,-5.018667,0.036760,0.453796,-0.078573,149.832253,188.344921,1580.930020,8.159058,0
0.064583,-52.920449,186.720762,-122.811931,-2.162777,1.649590,-5.542054,3.489685,-1.325198,5.604326,-3.591724,-0.028871,0.468678,-0.063706,241.182299,188.420240,1581.763263,8.003352,0
0.065625,-110.538768,189.210704,-44.409345,-0.608994,3.770546,-5.461600,1.392829,-3.327302,5.490184,-1.472126,-0.065333,0.462477,-0.100873,304.228917,188.420276,1582.482461,8.710562,0
0.066667,-163.275520,161.551206,22.728641,0.719604,5.197971,-4.661078,-0.692672,-4.778102,4.775738,0.620976,-0.105440,0.462546,-0.093440,318.921030,188.495732,1582.449087,8.857811,0
0.067708,-186.429067,93.136522,77.326102,1.732941,5.825450,-2.806603,-2.978774,-5.304017,2.974829,2.884403,-0.171072,0.463235,-0.082290,277.366554,188.269514,1582.713082,8.431918,0
0.068750,-187.999756,22.889616,137.379663,2.881389,5.671333,-1.056719,-4.303502,-5.267747,1.262697,4.443821,-0.163779,0.468678,-0.086006,204.288769,188.420153,1582.712254,8.544886,0
0.069792,-142.901754,-40.639143,178.075612,3.748356,4.585169,1.216119,-5.325436,-4.292084,-0.969416,5.405209,-0.185656,0.479840,-0.078573,95.668453,188.420379,1582.622345,8.532360,0
0.070833,-69.836437,-91.682957,200.531901,4.164950,2.805474,3.460798,-5.537392,-2.562005,-3.286078,5.745859,-0.203887,0.479220,-0.074856,-28.330735,188.495591,1582.424464,8.195056,0
0.071875,-8.217944,-152.087544,171.732439,3.647022,0.695527,4.808410,-4.723630,-0.541766,-4.609281,4.905590,-0.218472,0.465647,-0.082290,-151.102765,188.269456,1582.193689,7.934956,0
0.072917,53.513548,-187.252104,122.262984,2.701241,-1.623579,5.592841,-3.202085,1.656196,-5.564693,3.474862,-0.149195,0.467714,-0.078573,-241.608436,188.344878,1583.296204,8.488997,0
0.073958,110.148774,-189.777281,42.985478,1.147457,-3.737196,5.544569,-1.097660,3.676435,-5.378684,1.298490,-0.127317,0.453245,-0.078573,-306.231220,188.420296,1582.921832,8.084656,0
0.075000,162.625627,-161.283887,-23.557077,-0.136103,-5.109579,4.723933,0.912142,5.109100,-4.731878,-0.737837,-0.098148,0.460617,-0.071140,-329.153168,188.495711,1583.332835,8.516171,0
0.076042,186.637968,-91.894367,-76.927219,-1.160699,-5.799440,2.901640,3.213384,5.645896,-2.922514,-3.005049,-0.017932,0.459790,-0.100873,-277.162225,188.269458,1583.377269,8.291202,0
0.077083,188.027859,-22.340417,-136.992932,-2.320407,-5.663669,1.163824,4.628951,5.645896,-1.146970,-4.556897,-0.021578,0.470676,-0.074856,-204.793715,188.420338,1584.264374,7.462427,0
0.078125,142.602159,40.096056,-178.636711,-3.153596,-4.610530,-1.181423,5.613035,4.575931,1.021731,-5.556136,0.029468,0.489348,-0.104590,-96.837640,188.420332,1585.257890,6.756106,0
0.079167,71.152731,91.515710,-200.133018,-3.581449,-2.786802,-3.385875,5.851486,2.885749,3.334166,-5.889215,0.025822,0.443116,-0.097156,26.891348,188.495794,1585.670270,6.082814,0
0.080208,10.212234,152.636743,-171.321404,-3.063521,-0.603466,-4.858192,5.022585,0.811105,4.686961,-5.056517,0.029468,0.479358,-0.093440,150.564044,188.269523,1586.644233,4.876813,0
0.081250,-52.581451,186.638547,-122.957751,-2.151518,1.708302,-5.562168,3.440481,-1.415873,5.633918,-3.565229,-0.032517,0.469229,-0.063706,241.148524,188.344932,1587.077247,3.416677,0
0.082292,-110.764767,189.680505,-43.911127,-0.586475,3.880630,-5.485736,1.317130,-3.421604,5.519776,-1.373717,-0.065333,0.460203,-0.078573,304.870641,188.420289,1587.939014,1.753408,0
0.083333,-162.620124,161.692146,23.275466,0.708344,5.234665,-4.608783,-0.734306,-4.843388,4.818013,0.734526,-0.076271,0.459997,-0.063706,318.954805,188.495716,1589.001513,0.408766,0
0.084375,-187.479960,91.785846,76.973703,1.710422,5.917187,-2.778444,-3.027978,-5.383811,2.924099,2.990383,-0.130964,0.454071,-0.097156,277.163904,188.344918,1590.220918,-0.939325,0
0.085417,-187.841557,22.055721,137.039416,2.926427,5.748392,-0.944083,-4.398126,-5.347541,1.152783,4.530876,-0.207533,0.467507,-0.093440,203.320553,188.342997,1591.449937,-2.342227,0
0.086458,-141.737862,-40.369008,179.120656,3.770874,4.654889,1.340824,-5.431414,-4.244933,-1.053965,5.511189,-0.203887,0.441049,-0.100873,95.330703,188.420273,1592.462324,-3.775413,0
0.087500,-69.079342,-91.518527,200.337474,4.209987,2.794466,3.541253,-5.582811,-2.529362,-3.374855,5.802634,-0.222118,0.479909,-0.082290,-28.465834,188.495725,1593.315538,-4.705722,0
0.088542,-7.890246,-152.757010,171.623074,3.680800,0.647824,4.945183,-4.810684,-0.487361,-4.689604,4.939655,-0.207533,0.432919,-0.100873,-151.508064,188.344782,1594.559891,-5.387671,0
0.089583,53.389249,-186.688344,122.506017,2.689981,-1.704308,5.641114,-3.232365,1.728736,-5.602741,3.455937,-0.138256,0.454485,-0.089723,-240.707770,188.269469,1594.956736,-6.584070,0
0.090625,110.227873,-190.129632,43.702426,1.226272,-3.814255,5.608932,-1.109015,3.774364,-5.480143,1.306060,-0.152841,0.460272,-0.089723,-307.019302,188.420188,1597.077611,-7.363409,0
0.091667,162.490028,-161.377847,-22.876583,-0.079807,-5.182968,4.760138,0.949991,5.123608,-4.782608,-0.802182,-0.036163,0.465784,-0.074856,-328.759127,188.495767,1597.730912,-8.147028,0
0.092708,187.474163,-92.728263,-76.343938,-1.126922,-5.843473,2.893594,3.273943,5.700301,-2.960562,-3.061824,0.011237,0.462959,-0.100873,-278.783424,188.420444,1599.256886,-8.815720,0
0.093750,187.993959,-23.738074,-137.041539,-2.252852,-5.660000,1.075324,4.617596,5.580610,-1.163880,-4.621242,0.007591,0.491071,-0.097156,-205.165239,188.269462,1599.253820,-9.818264,0
0.094792,143.031556,39.226925,-178.964806,-3.221151,-4.573836,-1.189469,5.650884,4.612201,1.021731,-5.575061,0.033114,0.479220,-0.041406,-96.837640,188.420235,1599.956520,-9.980602,0
0.095833,71.435229,91.245575,-200.133018,-3.592708,-2.742769,-3.389898,5.809852,2.856733,3.376440,-5.889215,0.040407,0.478875,-0.089723,27.240356,188.495767,1600.077791,-10.851709,0
0.096875,10.144434,152.272648,-171.625196,-3.108558,-0.574110,-4.854169,4.988520,0.829240,4.712326,-5.052732,0.000299,0.478531,-0.059989,150.597819,188.420374,1600.285969,-10.927310,0
0.097917,-52.547551,186.908682,-122.459533,-2.050184,1.722980,-5.586304,3.395061,-1.372349,5.633918,-3.565229,-0.054394,0.469849,-0.104590,241.261107,188.269422,1600.112692,-10.298304,0
0.098958,-110.041571,189.797955,-43.194178,-0.575216,3.862282,-5.517918,1.332270,-3.370826,5.485956,-1.335867,-0.050748,0.456896,-0.093440,304.228917,188.420307,1599.028988,-10.317871,0
0.100000,-162.642724,161.339795,23.554955,0.685826,5.256682,-4.624874,-0.688887,-4.865150,4.813786,0.738311,-0.127317,0.458825,-0.093440,318.830964,188.495664,1599.134523,-10.329675,0
0.101042,-186.960163,91.644905,76.791428,1.766719,5.821781,-2.766376,-3.012839,-5.354795,2.957919,2.982813,-0.160133,0.455863,-0.078573,276.769863,188.344822,1598.729380,-9.929265,0
0.102083,-187.931957,21.621155,136.893596,2.937686,5.700688,-1.020514,-4.390556,-5.336660,1.152783,4.508166,-0.163779,0.460961,-0.074856,203.737111,188.344867,1598.363613,-9.684757,0
0.103125,-142.065560,-40.721358,178.415859,3.793393,4.647550,1.248301,-5.367070,-4.244933,-1.024373,5.454414,-0.178364,0.451178,-0.063706,96.152561,188.420282,1597.519963,-9.159956,0
0.104167,-69.327940,-91.224902,200.665569,4.209987,2.787127,3.492980,-5.567672,-2.547497,-3.341035,5.798849,-0.214826,0.463993,-0.093440,-26.912186,188.495749,1597.448400,-8.833191,0
0.105208,-8.692541,-152.052309,171.781046,3.669540,0.680850,4.900933,-4.787974,-0.527258,-4.664239,4.958580,-0.171072,0.458205,-0.082290,-149.616666,188.420296,1597.306873,-8.558095,0
0.106250,52.666053,-187.146399,123.101449,2.768796,-1.641927,5.637091,-3.205870,1.674331,-5.530873,3.474862,-0.163779,0.477360,-0.086006,-240.460087,188.344872,1596.652626,-8.024767,0
0.107292,109.990575,-189.671576,44.808228,1.226272,-3.751874,5.592841,-1.097660,3.687316,-5.450551,1.324985,-0.112733,0.462202,-0.093440,-306.197445,188.420434,1595.619339,-7.539072,0
0.108333,163.088924,-161.718452,-22.038118,-0.102325,-5.153612,4.727956,0.968916,5.141743,-4.774153,-0.783257,-0.098148,0.463373,-0.037689,-329.423368,188.495702,1595.947203,-7.732840,0
0.109375,186.875267,-93.421219,-76.258877,-1.194477,-5.799440,2.893594,3.273943,5.642269,-2.930969,-3.046684,-0.025225,0.456345,-0.063706,-278.017858,188.420334,1594.918433,-8.065508,0
0.110417,188.208658,-23.679349,-136.883567,-2.342926,-5.693025,1.107506,4.575962,5.660404,-1.117378,-4.572037,0.011237,0.477015,-0.089723,-204.872523,188.344833,1595.274444,-7.973966,0
