1-Time,2-VGERA,3-VGERB,4-VGERC,5-VN,6-IGERAN,7-IGERBN,8-IGERCN,9-IGERAT,10-IGERBT,11-IGERCT,12-IN,13-IFD,14-IFAULT,15-VFAULT,16-Speed (rad/s),17-Active Power,18-Reactive Power,19-FAULT 
0.000000,120.589905,63.268961,-189.439547,-3.299967,-2.650976,-1.410186,4.147067,2.987298,1.495218,-4.221989,-0.075764,0.397091,-0.025873,-40.422175,188.495682,1171.742145,-8.819121,0
0.001042,46.100797,117.519163,-187.677555,-3.333744,-1.113467,-2.869649,3.918966,1.407369,2.983465,-3.978288,-0.046595,0.409217,0.029877,-46.085112,188.646417,1171.970896,-8.991284,0
0.002083,-23.167745,166.660285,-158.416329,-2.759520,0.313958,-3.936651,3.455031,-0.039633,3.919552,-3.414727,-0.050241,0.434710,0.011294,-50.385792,188.495569,1172.185301,-8.851495,0
0.003125,-80.797365,181.306312,-95.361305,-1.543516,1.972560,-4.059295,1.908580,-1.782872,4.074847,-1.842088,-0.017425,0.410044,-0.003573,-34.241355,188.571138,1171.607833,-8.314653,0
0.004167,-136.325198,182.163698,-17.724274,-0.034769,3.466035,-3.997973,0.400791,-3.218480,3.915238,-0.341799,-0.010133,0.403361,0.015011,-15.349886,188.495709,1171.828069,-8.699036,0
0.005208,-169.354879,136.804469,50.240026,1.293828,4.042143,-3.074055,-1.103133,-3.894507,2.948955,1.200377,0.000805,0.410595,0.003860,2.179325,188.646552,1172.091581,-9.243364,0
0.006250,-194.892711,63.374666,100.705918,2.284646,4.515505,-1.639121,-2.800362,-4.316075,1.564238,2.837749,0.099252,0.410044,0.003860,14.293283,188.495537,1172.304592,-8.923185,0
0.007292,-166.236100,-1.504770,156.299816,3.365539,4.023795,-0.314566,-3.550391,-3.822347,0.214030,3.576471,0.070083,0.421895,0.003860,32.554285,188.571024,1172.401203,-8.946446,0
0.008333,-121.567495,-62.625802,189.486032,4.041097,3.077071,1.402449,-4.172837,-2.937435,-1.459709,4.143839,0.110191,0.427545,0.003860,41.256970,188.495522,1173.506545,-8.293600,0
0.009375,-47.711183,-117.381039,187.663281,4.018579,1.550571,2.931411,-3.964066,-1.315729,-3.025604,3.926792,0.077375,0.422653,0.018727,47.032491,188.646384,1174.724121,-8.540465,0
0.010417,21.613859,-166.933237,158.717999,3.444354,0.093790,3.941180,-3.500131,0.138868,-3.927181,3.367039,0.044560,0.425478,-0.003573,48.867597,188.495636,1175.073146,-8.955666,0
0.011458,80.531669,-181.121209,97.060417,2.239609,-1.542795,4.055647,-1.969145,1.859320,-4.116986,1.828671,0.044560,0.421344,0.000144,33.421176,188.571062,1176.095233,-8.717942,0
0.012500,136.658398,-182.072555,19.727178,0.753382,-2.959212,4.027030,-0.480686,3.272141,-3.983259,0.313150,0.000805,0.414247,-0.003573,17.389322,188.495696,1176.084131,-9.381361,0
0.013542,169.382982,-137.864337,-48.966222,-0.575216,-3.649072,3.131729,0.996174,3.936774,-3.021291,-1.198563,-0.021072,0.419552,0.018727,-1.817380,188.571248,1176.261088,-9.708410,0
0.014583,194.796514,-64.833864,-100.465007,-1.588553,-4.129773,1.749941,2.747529,4.453289,-1.653828,-2.854974,-0.024718,0.416039,0.000144,-12.828022,188.495691,1176.775046,-9.974284,0
0.015625,166.580601,0.550607,-155.913085,-2.669446,-3.696776,0.400857,3.466629,3.967157,-0.299307,-3.620350,-0.086703,0.427820,-0.007290,-32.158565,188.571029,1176.914664,-9.809301,0
0.016667,121.493899,62.446810,-189.476002,-3.333744,-2.750052,-1.385657,4.139335,3.010085,1.456394,-4.206758,-0.057533,0.422446,-0.003573,-41.626816,188.495606,1176.843579,-9.544385,0
0.017709,47.343789,116.943657,-187.519583,-3.288707,-1.131814,-2.869649,3.942162,1.407369,2.966210,-3.993519,-0.072118,0.405428,-0.011006,-45.465905,188.646500,1176.853913,-9.769096,0
0.018750,-22.218552,166.895185,-158.392026,-2.748261,0.284602,-3.891682,3.478227,-0.028239,3.919552,-3.414727,-0.057533,0.418450,-0.003573,-50.239434,188.495731,1176.883324,-9.864286,0
0.019793,-80.582666,180.895237,-96.394197,-1.543516,1.917518,-4.018414,1.916312,-1.722105,4.096416,-1.883975,-0.021072,0.419690,-0.025873,-35.333412,188.571165,1177.055470,-9.121651,0
0.020833,-136.166999,182.363363,-18.222493,-0.023510,3.348612,-3.973445,0.435586,-3.191895,3.906610,-0.440803,0.011744,0.406599,0.011294,-16.723402,188.495691,1176.935787,-7.983020,0
0.021875,-168.439585,137.614875,50.252177,1.293828,4.016456,-3.069967,-1.014212,-3.875518,2.996407,1.139452,0.004452,0.411698,-0.033307,2.415750,188.646462,1176.875222,-7.074436,0
0.022917,-194.824911,63.398156,100.511491,2.273387,4.478810,-1.680002,-2.765567,-4.342660,1.598748,2.788247,0.033621,0.412938,-0.018440,15.013815,188.495676,1176.949230,-6.260206,0
0.023958,-166.620297,-1.751415,155.461351,3.365539,4.020126,-0.363624,-3.476934,-3.845135,0.214030,3.507929,0.070083,0.413558,-0.003573,31.968852,188.571140,1176.389976,-5.799714,0
0.025000,-120.934699,-62.590567,189.789823,4.018579,3.106427,1.353392,-4.180569,-2.926041,-1.472650,4.105761,0.106545,0.421619,-0.014723,41.966244,188.495705,1175.874513,-5.846191,0
0.026042,-47.180087,-116.735064,187.784797,4.029838,1.568918,2.874177,-3.991129,-1.315729,-2.926388,3.911561,0.091960,0.416865,-0.022156,47.358982,188.646600,1174.784370,-5.061523,0
0.027083,21.986756,-167.250352,158.499269,3.466873,0.104798,3.912563,-3.534926,0.085698,-3.940122,3.382271,0.084667,0.424582,-0.033307,49.250380,188.495787,1175.046722,-4.234066,0
0.028125,80.339571,-180.804094,97.485725,2.239609,-1.491422,4.047471,-1.961413,1.821341,-4.121300,1.790593,0.040913,0.418174,-0.025873,35.121183,188.495702,1174.607403,-4.377875,0
0.029167,136.398500,-182.483630,19.314021,0.753382,-2.973889,4.022942,-0.503883,3.272141,-3.983259,0.351229,0.011744,0.411767,-0.007290,17.287997,188.495729,1174.715746,-3.912666,0
0.030208,168.851886,-138.228432,-49.282166,-0.575216,-3.630725,3.139906,0.972977,3.959561,-3.034232,-1.209987,-0.006487,0.416245,-0.011006,-1.569697,188.646496,1175.065857,-4.057590,0
0.031250,194.796514,-64.998294,-100.088305,-1.577294,-4.122434,1.692707,2.743663,4.449491,-1.610691,-2.870206,-0.061180,0.410320,-0.037023,-11.994905,188.495788,1174.880974,-4.772201,0
0.032292,166.998698,-0.259798,-155.694355,-2.680705,-3.649072,0.380416,3.482093,3.948168,-0.299307,-3.608927,-0.035656,0.426374,-0.018440,-31.674457,188.495662,1174.628812,-5.089201,0
0.033333,122.330093,61.542445,-189.585367,-3.367522,-2.794085,-1.340687,4.116138,3.059458,1.396001,-4.202950,-0.068472,0.426442,-0.011006,-40.557275,188.495658,1174.802431,-4.383153,0
0.034375,48.970978,116.485602,-187.519583,-3.322485,-1.186856,-2.906442,3.980824,1.407369,2.940328,-4.004942,-0.072118,0.421688,-0.011006,-45.769879,188.646509,1174.800983,-4.633179,0
0.035417,-20.568763,166.918675,-158.720121,-2.770779,0.284602,-3.875329,3.458897,-0.024442,3.902297,-3.452805,-0.042949,0.424651,-0.003573,-50.273209,188.495575,1175.035678,-4.739309,0
0.036458,-79.746472,180.848257,-97.572909,-1.577294,1.928526,-4.063384,1.943375,-1.748691,4.079161,-1.876359,-0.035656,0.417072,-0.022156,-34.657913,188.495709,1174.970870,-5.560367,0
0.037500,-136.042700,182.363363,-19.522722,-0.046029,3.414663,-4.014326,0.478113,-3.169107,3.910924,-0.433187,0.019036,0.410733,0.015011,-15.924061,188.495703,1174.809671,-5.823312,0
0.038542,-168.868983,137.920245,49.231437,1.271309,4.020126,-3.094496,-1.037408,-3.902103,2.974838,1.128028,0.055498,0.416934,-0.025873,1.751509,188.571125,1174.978507,-6.224348,0
0.039583,-194.779711,64.314267,100.183396,2.295906,4.504496,-1.651385,-2.765567,-4.369246,1.568552,2.765400,0.059144,0.412525,0.000144,14.045599,188.495741,1175.014694,-6.580112,0
0.040625,-166.710697,-1.175909,155.595019,3.388058,3.990770,-0.326831,-3.500131,-3.852730,0.261482,3.561239,0.091960,0.431128,-0.014723,32.396668,188.571080,1175.703425,-6.469388,0
0.041667,-121.194598,-62.426137,189.558942,4.018579,3.143122,1.382009,-4.219231,-2.945031,-1.511474,4.090529,0.110191,0.397160,0.011294,41.245712,188.495533,1175.796781,-6.786826,0
0.042708,-46.818489,-116.605868,188.015679,4.063616,1.590935,2.910970,-4.022058,-1.323325,-2.956584,3.938216,0.095606,0.375250,-0.029590,46.863616,188.646364,1176.366230,-6.832616,0
0.043750,22.144955,-166.839277,158.742302,3.489392,0.137823,3.924827,-3.519462,0.150262,-3.905612,3.382271,0.073729,0.420448,0.018727,49.104022,188.495693,1176.021231,-7.454618,0
0.044792,80.170072,-181.121209,97.218388,2.250869,-1.539126,4.051559,-1.969145,1.859320,-4.125614,1.802016,0.026329,0.415694,-0.007290,33.668859,188.495636,1176.373189,-7.708193,0
0.045833,135.844804,-182.730275,19.010229,0.753382,-3.021593,4.031119,-0.476820,3.260747,-3.978946,0.339805,0.033621,0.407633,0.011294,17.242964,188.495734,1176.148709,-7.819263,0
0.046875,168.490288,-138.099237,-49.342924,-0.575216,-3.594030,3.127641,0.984576,3.951966,-3.034232,-1.202371,-0.017425,0.410802,-0.007290,-2.177646,188.646411,1175.932816,-7.700699,0
0.047917,194.807814,-64.610709,-99.784513,-1.554775,-4.063723,1.704971,2.747529,4.426704,-1.671083,-2.885437,-0.032010,0.411078,-0.011006,-12.760472,188.495555,1175.971985,-7.206856,0
0.048958,167.100397,0.515372,-155.026013,-2.669446,-3.590361,0.404945,3.466629,3.982349,-0.290680,-3.654621,-0.042949,0.426787,0.026161,-31.854590,188.570951,1176.643388,-7.296642,0
0.050000,122.070195,61.824325,-189.670429,-3.333744,-2.746382,-1.340687,4.158666,3.036670,1.430511,-4.214374,-0.086703,0.418863,-0.003573,-41.638074,188.495629,1176.747424,-7.765487,0
0.051042,48.925778,116.098016,-187.920588,-3.333744,-1.219881,-2.849208,3.969225,1.449146,2.957583,-4.023982,-0.072118,0.422240,0.003860,-45.375838,188.721922,1177.274237,-7.490901,0
0.052083,-20.003766,167.047870,-158.707969,-2.759520,0.244238,-3.895770,3.493692,-0.005452,3.910924,-3.468037,-0.061180,0.430439,0.015011,-50.205659,188.495756,1177.514152,-7.343928,0
0.053125,-79.463973,180.566377,-98.350616,-1.554775,1.855137,-4.104265,1.958840,-1.722105,4.074847,-1.910629,-0.017425,0.421206,-0.018440,-35.749970,188.495607,1177.525584,-6.976790,0
0.054167,-135.918400,182.516049,-20.251822,-0.079807,3.352282,-4.014326,0.458782,-3.214682,3.962689,-0.410340,-0.050241,0.414385,-0.011006,-17.061152,188.495781,1178.469706,-7.600835,0
0.055208,-168.496085,139.129981,48.733218,1.260050,3.998109,-3.139466,-0.983283,-3.894507,3.082682,1.067103,0.055498,0.418174,-0.022156,2.021709,188.721942,1179.216933,-6.407706,0
0.056250,-194.734512,66.122999,100.013273,2.273387,4.555869,-1.729060,-2.761701,-4.376841,1.637572,2.833941,0.040913,0.416521,-0.003573,14.664807,188.495631,1180.259917,-6.802407,0
0.057292,-167.490392,0.550607,155.315531,3.354280,4.038473,-0.416769,-3.473068,-3.875518,0.317561,3.519353,0.084667,0.427269,0.007577,31.912561,188.495664,1180.235300,-6.357199,0
0.058333,-122.177691,-61.404321,190.008553,4.029838,3.143122,1.312511,-4.196034,-2.967818,-1.451081,4.174302,0.095606,0.423135,0.037311,42.056311,188.495693,1181.343153,-6.099133,0
0.059375,-48.513478,-115.983383,188.003528,4.018579,1.572587,2.906882,-4.029790,-1.387890,-2.939329,3.980102,0.081021,0.420173,0.026161,47.190107,188.721976,1181.963102,-5.677938,0
0.060417,20.924563,-167.191627,158.803060,3.489392,0.148832,3.904386,-3.527194,0.074304,-3.927181,3.450812,0.081021,0.432437,-0.022156,49.171572,188.495655,1182.857747,-4.732709,0
0.061458,79.740675,-180.698389,98.542921,2.284646,-1.487753,4.072000,-2.019405,1.787159,-4.095417,1.836287,0.037267,0.417485,-0.044457,35.436416,188.495749,1182.350057,-4.052832,0
0.062500,135.618805,-182.941685,19.532751,0.787160,-2.966551,4.018854,-0.546410,3.260747,-3.996201,0.404538,0.004452,0.411560,-0.018440,17.479388,188.495537,1182.677218,-3.427501,0
0.063542,168.094791,-138.921388,-49.197104,-0.575216,-3.641734,3.123553,0.899521,3.986147,-3.098938,-1.149061,-0.021072,0.412869,0.022444,-1.592214,188.646511,1183.496345,-2.653028,0
0.064583,194.773914,-64.587219,-99.432115,-1.588553,-4.096748,1.790822,2.716600,4.449491,-1.615004,-2.843551,-0.090349,0.397849,0.037311,-11.859806,188.495738,1183.131603,-2.882059,0
0.065625,167.495895,0.820742,-154.637159,-2.646927,-3.623386,0.437650,3.474361,3.989945,-0.294993,-3.597503,-0.079410,0.413972,-0.014723,-31.370482,188.495872,1182.641805,-2.451399,0
0.066667,121.957196,61.941775,-189.597519,-3.322485,-2.805094,-1.312070,4.158666,3.089841,1.383060,-4.244837,-0.112226,0.420999,0.003860,-40.546017,188.495732,1183.175014,-1.482780,0
0.067708,48.168683,115.792646,-188.175773,-3.266189,-1.175848,-2.881913,3.961493,1.460540,2.914445,-4.023982,-0.075764,0.399778,0.029877,-45.691071,188.646350,1182.815249,-0.882639,0
0.068750,-20.523563,166.707265,-158.902396,-2.759520,0.277263,-3.912123,3.485960,-0.005452,3.928179,-3.475652,-0.050241,0.422033,0.003860,-50.363276,188.495651,1183.030426,-0.840883,0
0.069792,-79.339674,180.906982,-98.046824,-1.543516,1.869815,-4.116529,1.978170,-1.756287,4.113671,-1.910629,-0.050241,0.417485,0.011294,-34.939371,188.495736,1183.692389,-1.164413,0
0.070833,-135.432504,182.856654,-19.790058,-0.068547,3.396315,-4.002062,0.447184,-3.184299,3.979944,-0.425571,-0.017425,0.409769,0.007577,-15.912802,188.495700,1183.614816,-0.690866,0
0.071875,-168.507385,138.989041,48.733218,1.237532,4.071498,-3.172171,-1.025810,-3.932486,3.017975,1.093758,0.059144,0.415143,-0.011006,1.830317,188.646514,1183.538052,-1.610815,0
0.072917,-194.779711,66.181724,99.563661,2.273387,4.511835,-1.724972,-2.753969,-4.354054,1.633258,2.799671,0.066437,0.412387,0.000144,13.775400,188.495734,1182.962253,-1.455537,0
0.073958,-167.558191,1.079133,155.242621,3.354280,4.009117,-0.367712,-3.527194,-3.913497,0.265796,3.587894,0.062790,0.425822,-0.003573,32.160244,188.495667,1184.025007,-2.428354,0
0.075000,-123.059085,-60.828816,189.765520,4.041097,3.161469,1.332951,-4.199900,-2.994404,-1.464023,4.143839,0.073729,0.428096,-0.029590,41.414587,188.495636,1183.968151,-2.598660,0
0.076042,-49.846869,-115.713248,188.064286,4.018579,1.612952,2.906882,-4.033657,-1.387890,-2.930702,3.968678,0.088314,0.422791,-0.011006,46.615932,188.646426,1183.865556,-2.952131,0
0.077083,19.489473,-166.991962,159.131156,3.466873,0.134154,3.896210,-3.534926,0.078102,-3.978946,3.412733,0.062790,0.423618,-0.022156,49.070247,188.495767,1184.052302,-3.971322,0
0.078125,79.164378,-180.792349,99.490751,2.295906,-1.480414,4.104705,-2.073530,1.752978,-4.112672,1.832479,0.033621,0.420586,-0.014723,34.029126,188.495720,1184.126537,-4.026857,0
0.079167,135.471906,-183.012155,20.954497,0.787160,-2.973889,4.010678,-0.530946,3.253151,-3.961691,0.415962,0.004452,0.417210,-0.025873,17.817138,188.495754,1183.737377,-4.381456,0
0.080208,168.230390,-139.355953,-48.224970,-0.552697,-3.674759,3.184875,0.914985,3.944370,-3.090311,-1.137638,-0.010133,0.421826,0.007577,-1.704797,188.646603,1183.219863,-4.478483,0
0.081250,194.627015,-65.667760,-99.274143,-1.566034,-4.118765,1.749941,2.701136,4.453289,-1.692652,-2.816896,-0.068472,0.423342,0.000144,-12.467755,188.495638,1183.501868,-3.700607,0
0.082292,167.755793,0.092552,-154.467036,-2.680705,-3.689437,0.409033,3.439566,4.008934,-0.355386,-3.574656,-0.050241,0.404739,-0.025873,-31.674457,188.495609,1183.525577,-3.009170,0
0.083333,122.058895,61.554190,-189.621822,-3.288707,-2.761060,-1.291630,4.150933,3.093639,1.378746,-4.248644,-0.075764,0.406599,0.007577,-41.694366,188.495770,1183.571096,-3.051789,0
0.084375,48.315582,115.311101,-188.248683,-3.288707,-1.238229,-2.836944,3.973091,1.479529,2.923073,-4.039213,-0.075764,0.443116,0.003860,-45.274513,188.721889,1183.827712,-3.010328,0
0.085417,-20.467063,166.754245,-158.780879,-2.770779,0.266255,-3.875329,3.509156,0.005942,3.915238,-3.487076,-0.072118,0.406944,0.011294,-50.160626,188.571042,1183.778254,-2.728506,0
0.086458,-79.260575,180.648592,-98.484284,-1.566034,1.858806,-4.104265,1.993635,-1.729701,4.113671,-1.906822,-0.013779,0.411560,0.007577,-36.042687,188.495568,1183.593642,-2.616629,0
0.087500,-134.980507,183.185514,-19.790058,-0.079807,3.396315,-3.997973,0.470381,-3.195693,4.018768,-0.436995,0.015390,0.408115,0.011294,-17.049893,188.495638,1184.124822,-2.529084,0
0.088542,-167.885889,139.588037,49.158527,1.260050,4.034804,-3.135377,-1.025810,-3.871720,3.056799,1.089950,0.029975,0.413696,-0.003573,2.325683,188.646523,1183.764932,-2.025798,0
0.089583,-194.542413,65.782393,99.405689,2.295906,4.511835,-1.720884,-2.761701,-4.384437,1.663454,2.830134,0.073729,0.413972,-0.003573,14.608516,188.571158,1184.334379,-1.911325,0
0.090625,-168.179687,0.409667,154.379852,3.343021,4.064159,-0.408593,-3.515596,-3.898305,0.248541,3.538392,0.095606,0.424444,0.018727,31.597327,188.495602,1183.620965,-1.880402,0
0.091667,-122.618388,-60.922776,189.996402,4.029838,3.165139,1.308422,-4.168971,-2.998202,-1.416571,4.143839,0.077375,0.427407,0.011294,42.056311,188.495703,1183.447078,-1.221264,0
0.092708,-49.801669,-115.125997,188.355926,4.029838,1.612952,2.910970,-4.029790,-1.418273,-2.943643,3.983910,0.055498,0.428303,0.003860,47.111299,188.646502,1183.795871,-1.079959,0
0.093750,18.822777,-167.144647,159.094701,3.478132,0.163510,3.896210,-3.577454,0.051517,-3.944436,3.466043,0.066437,0.423893,0.003860,49.227864,188.571011,1183.948742,-0.399475,0
0.094792,78.825381,-180.557448,100.171245,2.318424,-1.443719,4.121058,-2.046468,1.760574,-4.138555,1.897212,0.037267,0.421413,-0.029590,35.717874,188.495743,1184.674198,-0.083532,0
0.095833,135.370207,-183.211821,21.574232,0.787160,-2.929856,4.072000,-0.573473,3.249353,-4.013456,0.419770,0.026329,0.418037,-0.014723,17.760846,188.571036,1185.251209,-0.004355,0
0.096875,168.049591,-140.413004,-47.641690,-0.552697,-3.663750,3.217580,0.891789,3.967157,-3.129135,-1.122406,-0.002841,0.419552,-0.011006,-1.243205,188.646625,1185.902839,0.036940,0
0.097917,194.536616,-67.241591,-99.079716,-1.554775,-4.173807,1.819439,2.654742,4.491268,-1.735790,-2.816896,-0.021072,0.419828,0.029877,-11.533314,188.570930,1186.665147,0.102944,0
0.098958,168.467688,-1.692690,-154.467036,-2.624408,-3.693106,0.462179,3.427968,4.050711,-0.364014,-3.612735,-0.024718,0.429887,-0.037023,-31.235382,188.495613,1187.677990,-0.367526,0
0.100000,123.200187,60.555864,-189.731187,-3.333744,-2.816102,-1.283454,4.170264,3.124022,1.383060,-4.229605,-0.072118,0.422102,0.011294,-40.703633,188.571102,1187.854261,-0.580650,0
0.101042,49.660273,115.005731,-188.297290,-3.345004,-1.263915,-2.845120,4.019485,1.544093,2.892876,-4.081099,-0.086703,0.408597,-0.025873,-45.420871,188.646558,1188.424413,0.090726,0
0.102083,-19.495270,166.754245,-159.145429,-2.804557,0.218552,-3.916211,3.551684,0.028729,3.932493,-3.521347,-0.057533,0.424651,0.007577,-50.239434,188.571026,1188.982912,0.180902,0
0.103125,-78.797278,180.871747,-99.213385,-1.566034,1.855137,-4.108353,2.043894,-1.687924,4.135240,-1.994402,-0.046595,0.428165,-0.029590,-35.254604,188.495727,1189.660516,1.197721,0
0.104167,-134.675409,183.302964,-20.263974,-0.068547,3.355951,-4.047031,0.501310,-3.195693,4.027396,-0.459842,0.008098,0.412869,-0.003573,-16.216777,188.571084,1189.780702,1.305094,0
0.105208,-167.851989,139.658507,48.721067,1.260050,4.042143,-3.168083,-0.971684,-3.902103,3.112878,1.051871,0.011744,0.413214,-0.033307,1.819059,188.571158,1190.458009,1.941621,0
0.106250,-194.621512,65.782393,98.992532,2.273387,4.515505,-1.765853,-2.769433,-4.422416,1.702278,2.773016,0.066437,0.421344,-0.022156,13.719108,188.571178,1190.643377,2.840804,0
0.107292,-168.281386,0.151277,154.221880,3.331761,4.082507,-0.429034,-3.542658,-3.940082,0.300306,3.546008,0.081021,0.433815,-0.025873,31.845011,188.495606,1191.160575,3.640398,0
0.108333,-122.640988,-61.134186,189.729065,4.029838,3.205503,1.320687,-4.250160,-3.036181,-1.390689,4.193341,0.084667,0.415212,0.011294,41.380812,188.571047,1191.874231,4.195574,0
0.109375,-49.021975,-114.902842,188.744780,4.052357,1.620291,2.898706,-4.060719,-1.406879,-2.969526,3.987718,0.084667,0.417623,-0.018440,46.548383,188.571067,1192.059268,3.988253,0
0.110417,19.557272,-166.792297,159.374189,3.489392,0.152501,3.937092,-3.561989,0.078102,-3.957377,3.458428,0.051852,0.414523,0.015011,49.329189,188.571178,1192.120616,3.681980,0
0.111458,78.757581,-180.862819,99.830998,2.307165,-1.491422,4.129234,-2.081263,1.794755,-4.142869,1.847710,0.037267,0.421344,-0.003573,34.209259,188.495817,1192.068412,2.897324,0
