1-Time,2-VGERA,3-VGERB,4-VGERC,5-VN,6-IGERAN,7-IGERBN,8-IGERCN,9-IGERAT,10-IGERBT,11-IGERCT,12-IN,13-IFD,14-IFAULT,15-VFAULT,16-Speed (rad/s),17-Active Power,18-Reactive Power,19-FAULT 
0.000000,148.271618,-186.393376,5.219318,3.041148,-2.242760,6.364115,-3.415873,2.194552,-6.310593,3.399847,-0.205153,0.600162,-0.061832,0.251158,188.495626,1536.501949,934.350170,0
0.001042,175.062604,-139.012070,-67.056250,1.672638,-4.241567,5.939476,-0.990483,4.139024,-5.895121,1.179751,-0.154011,0.599379,-0.073035,0.443428,188.495689,1536.148082,934.538877,0
0.002083,196.363820,-54.385338,-120.828978,0.620808,-5.849843,4.907644,1.401325,5.833545,-4.921488,-1.264490,-0.088257,0.604670,-0.043161,7.184188,188.571123,1535.647823,935.214760,0
0.003125,163.788159,15.635582,-170.391478,-0.317922,-6.304279,3.189248,3.431191,6.248905,-3.267991,-3.153706,-0.044421,0.614599,-0.050629,20.971078,188.495655,1535.344935,936.262885,0
0.004167,117.896402,85.402803,-188.685038,-0.645912,-5.835642,0.589825,5.244637,5.896033,-0.691222,-5.021576,-0.004238,0.616298,-0.046895,26.987998,188.495564,1535.324424,936.557674,0
0.005208,35.890123,138.921207,-189.953031,-0.725082,-4.475885,-1.767514,6.061807,4.480869,1.688303,-5.772282,-0.015197,0.635307,-0.013287,25.574248,188.495631,1535.841579,935.955900,0
0.006250,-42.463870,175.453861,-162.832766,-0.216132,-2.523232,-3.894674,6.061807,2.628291,3.832813,-5.857670,0.006721,0.598464,-0.061832,19.534708,188.571008,1535.146978,936.463996,0
0.007292,-103.475180,188.271700,-88.772159,1.174998,0.128825,-5.517825,4.901350,0.007481,5.465327,-4.744064,-0.029809,0.604670,-0.043161,13.540408,188.495702,1534.270498,937.223731,0
0.008333,-148.550277,186.483726,-5.035417,2.803638,2.376152,-6.259950,3.296861,-2.348675,6.342435,-3.246210,-0.066339,0.604213,-0.031958,6.528208,188.495611,1534.059027,937.760985,0
0.009375,-175.522743,139.597738,66.932387,4.126908,4.414011,-5.843249,0.923710,-4.271092,5.889193,-1.008325,-0.099216,0.604605,-0.061832,3.236998,188.495655,1533.320198,938.835316,0
0.010417,-196.721877,55.611293,121.234470,5.190048,5.983234,-4.747920,-1.527800,-6.020749,4.907166,1.403895,-0.168623,0.605650,-0.046895,-1.897742,188.646527,1533.513898,940.439271,0
0.011458,-163.873995,-15.484827,170.476894,6.128778,6.469622,-3.005712,-3.602442,-6.432433,3.257866,3.328690,-0.183235,0.609635,-0.069301,-15.763801,188.495636,1533.933246,941.042280,0
0.012500,-117.369743,-85.928578,188.721213,6.456768,5.976134,-0.426132,-5.367380,-5.965613,0.664310,5.164539,-0.252642,0.565867,-0.050629,-22.911721,188.495680,1533.613052,941.478658,0
0.013542,-34.070420,-138.830857,189.890720,6.547248,4.602176,1.978830,-6.177087,-4.638667,-1.723608,5.968613,-0.241683,0.616559,-0.076769,-18.817501,188.495647,1532.875730,942.378955,0
0.014583,43.262749,-175.266863,162.832008,6.004368,2.677925,4.102022,-6.158430,-2.745656,-3.939462,6.064674,-0.248989,0.612444,-0.061832,-14.564941,188.571064,1532.773429,942.675130,0
0.015625,103.423371,-188.000136,89.670076,4.624548,-0.006085,5.729141,-4.990511,-0.113819,-5.509025,4.933279,-0.212459,0.614730,-0.054364,-8.627191,188.495799,1532.603738,943.971893,0
0.016667,149.133648,-185.922221,5.982576,3.075078,-2.274713,6.439518,-3.427067,2.242337,-6.386134,3.460331,-0.183235,0.611986,-0.024490,-1.558442,188.495763,1534.049200,944.834193,0
0.017708,175.629729,-138.939585,-66.859281,1.672638,-4.301922,5.999005,-0.949438,4.186809,-5.958071,1.094363,-0.154011,0.602122,-0.076769,1.359538,188.495803,1535.578021,944.378051,0
0.018750,196.454560,-53.902102,-121.149053,0.598188,-5.895997,4.935425,1.446102,5.914411,-4.934078,-1.335647,-0.102869,0.602253,-0.054364,5.023978,188.571078,1537.052135,944.274190,0
0.019792,163.073581,17.785983,-170.686932,-0.317922,-6.336231,3.161468,3.535669,6.300365,-3.267991,-3.231979,-0.059033,0.606956,-0.073035,19.579948,188.571047,1537.786998,944.989154,0
0.020833,116.421877,87.069967,-188.229546,-0.679842,-5.839192,0.573951,5.281950,5.870302,-0.687025,-5.060712,-0.011544,0.605650,-0.054364,25.777828,188.495767,1537.341484,945.423927,0
0.021875,34.336201,139.670223,-189.792993,-0.713772,-4.451034,-1.838948,6.140165,4.502923,1.717680,-5.846996,0.032292,0.616886,-0.061832,23.877748,188.495725,1538.106093,946.424341,0
0.022917,-42.781460,175.067272,-162.882008,-0.204822,-2.516132,-3.974046,6.043150,2.602561,3.941927,-5.907480,0.003068,0.620674,-0.080503,19.297198,188.571094,1539.742511,946.071671,0
0.023958,-103.668003,189.105283,-87.959659,1.231548,0.199831,-5.613071,4.867768,-0.099116,5.532474,-4.729833,-0.011544,0.611660,-0.035692,13.551718,188.571042,1541.193059,945.302398,0
0.025000,-149.276197,185.819277,-4.099811,2.792328,2.475559,-6.287730,3.263279,-2.407487,6.359222,-3.246210,-0.077298,0.602253,-0.065566,6.188908,188.495736,1541.604331,945.524634,0
0.026042,-176.736391,137.483580,67.695644,4.138218,4.477916,-5.783720,0.808038,-4.351959,5.901783,-0.873127,-0.099216,0.597353,-0.035692,4.051318,188.571044,1542.638629,944.715241,0
0.027083,-196.642479,53.086384,121.640720,5.223978,5.997435,-4.736014,-1.617353,-6.042804,4.898773,1.507073,-0.157664,0.599901,-0.028224,-1.309622,188.571152,1542.905978,944.459268,0
0.028125,-163.227473,-16.765403,171.584849,6.174018,6.494474,-2.969994,-3.706920,-6.502272,3.178129,3.471004,-0.194194,0.615971,-0.046895,-14.259571,188.495649,1544.952104,943.933394,0
0.029167,-117.710018,-86.605109,187.896402,6.411528,5.969033,-0.354698,-5.400962,-6.028101,0.563589,5.217907,-0.205153,0.618584,-0.028224,-23.217091,188.495620,1546.393066,943.447521,0
0.030208,-34.909765,-139.761086,189.976895,6.513318,4.545372,2.097887,-6.240520,-4.616613,-1.794952,5.968613,-0.278213,0.621132,-0.073035,-20.412211,188.495622,1547.356580,942.743642,0
0.031250,44.034039,-174.517847,162.548864,6.004368,2.628221,4.121865,-6.113654,-2.672141,-4.002412,6.007749,-0.238030,0.610680,-0.039427,-13.569661,188.570979,1547.286724,941.252029,0
0.032292,103.786331,-189.884757,86.457008,4.567998,-0.098392,5.768827,-4.964392,0.000130,-5.567779,4.872796,-0.201500,0.605323,-0.061832,-8.344441,188.496550,1548.054375,940.690631,0
0.033333,149.065593,-185.064476,3.963636,3.041148,-2.278263,6.463329,-3.311395,2.290122,-6.352560,3.364269,-0.183235,0.602906,-0.043161,0.816658,188.495794,1547.314824,939.595073,0
0.034375,177.115597,-137.175773,-67.142424,1.683948,-4.340975,5.999005,-0.938243,4.256648,-5.949678,1.069458,-0.161317,0.605127,-0.084238,0.205918,188.495629,1547.882532,939.777519,0
0.035416,196.023545,-53.757131,-121.887690,0.609498,-5.899547,4.875896,1.487147,5.907060,-4.921488,-1.339205,-0.102869,0.607871,-0.046895,7.546108,188.571114,1547.633447,939.823609,0
0.036458,163.130294,17.073210,-171.807197,-0.363162,-6.329131,3.058284,3.617759,6.333447,-3.196647,-3.299578,-0.048074,0.618453,-0.046895,21.106798,188.495776,1549.158505,938.900717,0
0.037500,116.353822,87.818983,-187.934091,-0.713772,-5.821441,0.573951,5.311801,5.885005,-0.628271,-5.050039,-0.011544,0.599379,-0.050629,27.508258,188.495651,1549.286434,938.660812,0
0.038541,32.362606,140.310511,-190.346970,-0.725082,-4.429732,-1.902445,6.136434,4.473517,1.810007,-5.861228,-0.018850,0.575143,-0.050629,25.110538,188.495718,1549.922040,938.459317,0
0.039583,-45.208755,174.741088,-162.414205,-0.182202,-2.427375,-3.970078,5.987179,2.551100,3.983894,-5.843439,0.010374,0.595067,-0.035692,19.659118,188.571075,1549.279356,938.007512,0
0.040625,-104.235128,190.023431,-86.482387,1.265478,0.249535,-5.648789,4.882694,-0.113819,5.561851,-4.740506,-0.029809,0.609961,-0.050629,14.004118,188.495622,1549.650884,938.720162,0
0.041666,-150.172255,185.130665,-4.506061,2.769708,2.443607,-6.279793,3.240891,-2.429541,6.329845,-3.221306,-0.044421,0.610353,-0.073035,5.804368,188.495731,1549.468789,938.285960,0
0.042708,-177.779901,137.326528,67.486364,4.115598,4.506318,-5.779752,0.759530,-4.381365,5.880799,-0.880242,-0.106522,0.602775,-0.069301,3.564988,188.495658,1549.861544,938.344479,0
0.043750,-196.438314,52.542744,122.330114,5.156118,6.008086,-4.692360,-1.654666,-6.035452,4.894576,1.539093,-0.168623,0.593107,-0.065566,-2.203112,188.646473,1549.830776,938.339111,0
0.044791,-162.796458,-18.976208,171.597160,6.128778,6.501575,-2.934277,-3.729308,-6.465515,3.136162,3.467446,-0.186888,0.585987,-0.050629,-16.137031,188.495718,1548.867285,938.382925,0
0.045833,-115.781793,-88.308516,187.896402,6.422838,5.979684,-0.307075,-5.471858,-5.980316,0.563589,5.239254,-0.219765,0.596766,-0.013287,-23.047441,188.495774,1548.018644,938.848817,0
0.046875,-32.902142,-140.353051,189.976895,6.535938,4.545372,2.074076,-6.296491,-4.598234,-1.849509,5.993518,-0.270907,0.620479,-0.046895,-18.444271,188.495644,1548.250199,939.077735,0
0.047916,44.249546,-174.650737,162.548864,6.015678,2.610470,4.193299,-6.121116,-2.694195,-3.985626,6.050443,-0.238030,0.619891,-0.046895,-14.745901,188.571078,1548.405219,939.864068,0
0.048958,104.149291,-190.210941,86.223106,4.556688,-0.123244,5.824387,-4.900958,0.014833,-5.622336,4.872796,-0.230724,0.609047,-0.031958,-8.876011,188.495680,1549.199472,940.015790,0
0.050000,149.848226,-184.593321,3.458902,2.973288,-2.327967,6.435549,-3.289007,2.345258,-6.339970,3.318017,-0.201500,0.601142,-0.035692,-0.879842,188.495749,1549.394366,939.443631,0
0.051041,177.591982,-135.617336,-68.262690,1.661328,-4.411980,5.939476,-0.837496,4.300757,-5.865744,0.944933,-0.157664,0.599901,-0.054364,1.076788,188.495736,1549.193197,937.852607,0
0.052083,195.887435,-51.256384,-122.392425,0.620808,-5.931500,4.860021,1.550580,5.973223,-4.892111,-1.406804,-0.121134,0.601273,-0.076769,5.137078,188.571082,1549.625404,937.821346,0
0.053125,162.222894,18.824941,-172.570455,-0.363162,-6.318480,3.038441,3.677461,6.344474,-3.129500,-3.395640,-0.066339,0.594218,-0.061832,19.851388,188.571069,1550.318951,937.393511,0
0.054166,116.285767,88.519676,-187.577084,-0.600672,-5.803690,0.439019,5.349115,5.862951,-0.582108,-5.117638,0.006721,0.610288,-0.054364,25.709968,188.495745,1551.076727,936.830999,0
0.055208,32.986443,141.156175,-190.063826,-0.713772,-4.348075,-2.005629,6.170016,4.414705,1.923318,-5.829207,0.017680,0.624594,-0.050629,23.628928,188.495627,1551.759502,935.245918,0
0.056250,-45.594400,174.402822,-162.069508,-0.193512,-2.367020,-4.033575,5.953597,2.503315,4.009074,-5.836323,-0.015197,0.589123,-0.043161,19.048378,188.571008,1551.815381,934.599424,0
0.057291,-104.484663,191.751001,-83.503220,1.299408,0.377345,-5.672600,4.770753,-0.242470,5.654178,-4.658676,-0.026156,0.600881,-0.028224,13.630888,188.571008,1553.011803,933.569191,0
0.058333,-150.104200,184.200436,-2.388636,2.814948,2.543015,-6.295668,3.196114,-2.532462,6.334042,-3.128802,-0.066339,0.601208,-0.061832,5.532928,188.495658,1553.199732,932.385693,0
0.059375,-179.299796,135.345260,67.769508,4.115598,4.637679,-5.803563,0.662514,-4.484286,5.876602,-0.787738,-0.110175,0.599966,-0.046895,4.062628,188.571151,1554.393540,931.785516,0
0.060416,-195.780449,52.168236,123.031819,5.257908,6.103944,-4.605051,-1.699443,-6.072210,4.814839,1.638713,-0.161317,0.606042,-0.050629,-1.603682,188.495754,1555.024881,930.282478,0
0.061458,-162.614978,-18.722509,173.099054,6.185328,6.498025,-2.811251,-3.841249,-6.491245,3.048032,3.606202,-0.186888,0.614599,-0.046895,-14.666731,188.495729,1557.187335,928.999340,0
0.062500,-115.940588,-89.154179,187.120834,6.456768,5.905128,-0.227703,-5.471858,-5.895774,0.441885,5.289064,-0.248989,0.569525,-0.039427,-23.793901,188.495720,1557.658225,926.963993,0
0.063541,-30.962575,-141.283280,190.617046,6.502008,4.463715,2.236788,-6.285297,-4.502664,-2.000590,6.061117,-0.252642,0.610418,-0.020755,-19.631821,188.495767,1559.385111,925.846615,0
0.064583,46.937719,-173.732588,161.674811,6.015678,2.500411,4.229017,-6.102459,-2.572896,-4.061166,5.979286,-0.252642,0.610222,-0.050629,-13.818481,188.571056,1558.900180,924.353420,0
0.065625,104.319429,-192.276776,83.600947,4.534068,-0.307859,5.919633,-4.919615,0.154511,-5.706270,4.826544,-0.212459,0.604866,-0.058098,-8.593261,188.571259,1560.506740,923.553061,0
0.066666,150.313268,-183.252341,3.594318,2.995908,-2.398973,6.431581,-3.221842,2.411422,-6.398724,3.289554,-0.212459,0.610614,-0.073035,1.280368,188.495750,1561.343403,923.158894,0
0.067708,179.713030,-134.771673,-67.560985,1.706568,-4.546891,5.903759,-0.721824,4.400002,-5.886727,0.870218,-0.150358,0.596635,-0.035692,-0.088142,188.495678,1563.288907,922.678833,0
0.068750,195.286283,-50.809390,-122.983334,0.598188,-5.931500,4.776681,1.651327,5.951169,-4.753620,-1.485076,-0.084604,0.598203,-0.043161,8.077678,188.571080,1562.825643,920.559947,0
0.069791,162.109469,20.794128,-173.099811,-0.351852,-6.357533,2.923353,3.737163,6.318744,-3.045566,-3.456123,-0.066339,0.611529,-0.024490,21.412168,188.571147,1563.020372,919.902473,0
0.070833,114.414254,90.271407,-186.973864,-0.623292,-5.803690,0.391396,5.382697,5.862951,-0.456207,-5.135427,0.006721,0.583047,-0.054364,27.655288,188.495680,1562.976993,919.391636,0
0.071875,30.661231,141.784382,-190.568561,-0.747702,-4.372927,-2.069126,6.207330,4.392651,1.956891,-5.879017,0.021333,0.617343,-0.054364,24.624208,188.495703,1563.420771,919.989384,0
0.072916,-46.308978,174.149123,-161.564773,-0.170892,-2.281814,-4.120884,5.957328,2.415097,4.055238,-5.818534,-0.007891,0.617082,-0.039427,19.726978,188.571062,1563.630833,918.870364,0
0.073958,-104.552718,192.681230,-83.096970,1.288098,0.412848,-5.755940,4.748364,-0.323337,5.721325,-4.601750,-0.037115,0.606826,-0.069301,14.320798,188.571103,1564.871062,917.784441,0
0.075000,-150.852805,183.391015,-2.277841,2.814948,2.617570,-6.275825,3.087905,-2.587599,6.363419,-3.075434,-0.073645,0.598333,-0.061832,5.137078,188.495769,1565.469004,917.208913,0
0.076041,-180.048401,133.786823,68.729735,4.160838,4.698033,-5.779752,0.584155,-4.565152,5.826242,-0.652540,-0.139399,0.592193,-0.076769,3.892978,188.495645,1566.127420,915.745364,0
0.077083,-195.678367,49.595003,123.450379,5.235288,6.079092,-4.597114,-1.766608,-6.094264,4.760282,1.667176,-0.172276,0.589776,-0.009553,-2.632891,188.571203,1565.637177,915.705937,0
0.078125,-162.217990,-20.437997,173.579167,6.241878,6.558379,-2.775534,-3.900951,-6.516975,2.976688,3.638223,-0.216112,0.618911,-0.065566,-16.329301,188.569686,1565.953194,915.593825,0
0.079166,-115.452861,-89.746144,187.096213,6.445458,5.898028,-0.191986,-5.527828,-5.972964,0.408312,5.349547,-0.227071,0.615057,-0.039427,-23.036131,188.495691,1567.186027,916.255018,0
0.080208,-31.472987,-141.923568,190.469319,6.535938,4.435313,2.296316,-6.315148,-4.491637,-2.042557,6.082464,-0.270907,0.621654,-0.069301,-17.856151,188.495671,1567.959043,915.966046,0
0.081250,46.835636,-173.913802,161.207008,5.981748,2.422305,4.264734,-6.042758,-2.517759,-4.111526,5.950823,-0.241683,0.607022,-0.050629,-14.542321,188.495723,1568.292833,914.960359,0
0.082291,104.773129,-193.376138,81.311174,4.454898,-0.361113,5.939476,-4.848719,0.224350,-5.744040,4.794523,-0.256295,0.605584,-0.054364,-9.124831,188.571093,1568.738672,914.846461,0
0.083333,150.551461,-182.781185,1.710795,3.007218,-2.498380,6.491109,-3.195722,2.503315,-6.390331,3.221955,-0.183235,0.599509,-0.058098,-0.404822,188.495750,1569.001203,914.047447,0
0.084375,180.438950,-133.152832,-68.238068,1.683948,-4.600145,5.927571,-0.654659,4.499248,-5.911908,0.816851,-0.172276,0.599966,-0.043161,0.805348,188.571082,1570.141665,914.080736,0
0.085416,194.968693,-50.301992,-123.771213,0.598188,-5.981203,4.733027,1.703566,6.035711,-4.757817,-1.513539,-0.102869,0.604409,-0.054364,5.329348,188.495826,1571.185631,914.433094,0
0.086458,161.905304,20.286730,-174.257008,-0.431022,-6.407237,2.867792,3.849104,6.392259,-2.953239,-3.573532,-0.048074,0.616102,-0.031958,20.281168,188.570242,1573.570884,913.345244,0
0.087500,114.811242,90.875452,-186.863069,-0.657222,-5.743335,0.268370,5.434936,5.859275,-0.414240,-5.206584,-0.037115,0.612182,-0.035692,25.902238,188.495705,1574.739705,912.956934,0
0.088541,28.937171,142.617964,-190.925569,-0.781632,-4.284170,-2.176278,6.270763,4.337515,2.095382,-5.985752,0.003068,0.589449,-0.046895,23.300938,188.571038,1576.874777,912.479107,0
0.089583,-48.509423,173.919586,-160.678410,-0.159582,-2.210808,-4.196287,6.005836,2.297473,4.181139,-5.839881,-0.037115,0.622242,-0.035692,19.172788,188.495716,1578.083740,911.643925,0
0.090625,-105.040445,194.626256,-80.351705,1.367268,0.537107,-5.878966,4.737170,-0.429933,5.813652,-4.630213,0.014027,0.603559,-0.028224,13.992808,188.571190,1579.927240,912.155128,0
0.091666,-151.419930,182.074196,-2.253220,2.860188,2.699227,-6.347259,3.028203,-2.675817,6.422173,-3.007835,-0.037115,0.603690,-0.046895,5.069218,188.495884,1580.955123,911.246050,0
0.092708,-182.248846,132.916998,68.089584,4.138218,4.800992,-5.791658,0.449826,-4.693803,5.868209,-0.574268,-0.124787,0.596570,-0.061832,4.119178,188.571125,1583.456208,910.906328,0
0.093750,-194.941104,49.365466,124.127462,5.212668,6.125245,-4.529648,-1.893474,-6.178806,4.722512,1.798816,-0.150358,0.594022,-0.024490,-2.010842,188.495676,1585.099611,909.665332,0
0.094791,-162.070538,-22.129324,174.207008,6.207948,6.554829,-2.668382,-4.080057,-6.539030,2.867574,3.762748,-0.208806,0.600620,-0.061832,-14.983411,188.571082,1586.585008,908.623696,0
0.095833,-113.638061,-91.654927,186.431440,6.434148,5.901578,-0.061022,-5.587530,-5.921504,0.332771,5.402915,-0.230724,0.590429,-0.054364,-23.997481,188.495792,1586.374066,908.190197,0
0.096875,-28.852869,-142.829636,191.109470,6.581178,4.431763,2.407437,-6.397238,-4.429149,-2.151671,6.164294,-0.252642,0.593238,0.001650,-18.851431,188.571127,1587.814396,908.068749,0
0.097916,47.788406,-173.503051,160.640720,6.015678,2.361950,4.363948,-6.042758,-2.433217,-4.233230,5.989960,-0.270907,0.613946,-0.046895,-14.316121,188.495729,1589.322293,907.238179,0
0.098958,104.523594,-195.284921,80.301705,4.454898,-0.467621,6.018848,-4.833794,0.356677,-5.832170,4.741155,-0.241683,0.604801,-0.031958,-8.627191,188.571042,1591.362974,905.890490,0
0.100000,151.390806,-181.234830,1.526136,2.950668,-2.540984,6.415706,-3.128558,2.558452,-6.390331,3.154356,-0.183235,0.602906,-0.069301,1.608358,188.495694,1591.354282,905.032513,0
0.101041,182.094955,-131.485667,-68.841288,1.616088,-4.699553,5.967256,-0.542718,4.565411,-5.844761,0.745694,-0.117481,0.593434,-0.058098,-0.212552,188.571006,1591.725703,904.339799,0
0.102083,194.186060,-47.414656,-124.251326,0.575568,-6.016706,4.713184,1.778194,6.043063,-4.686473,-1.595370,-0.113828,0.585660,-0.031958,8.609248,188.495796,1591.110622,903.616432,0
0.103125,161.814564,22.545859,-174.601705,-0.363162,-6.464041,2.820169,3.905075,6.392259,-2.911272,-3.637574,-0.033462,0.603951,-0.050629,21.434788,188.571297,1591.513621,903.683197,0
0.104166,113.903842,91.781520,-186.284470,-0.645912,-5.725583,0.220747,5.475981,5.796787,-0.351290,-5.231489,0.003068,0.614011,-0.035692,27.530878,188.495694,1591.209572,902.769868,0
0.105208,29.413556,143.101200,-191.085607,-0.770322,-4.241567,-2.243744,6.267032,4.289730,2.137349,-6.010657,-0.000585,0.620348,-0.039427,24.047398,188.571049,1592.031994,902.029790,0
0.106250,-48.282573,173.665887,-160.149054,-0.148272,-2.185956,-4.204224,5.875238,2.257040,4.210515,-5.786513,0.039598,0.619368,-0.054364,19.500778,188.495600,1591.749864,900.907198,0
0.107291,-105.074473,195.894751,-78.221970,1.401198,0.625864,-5.902778,4.670006,-0.474042,5.838832,-4.559056,-0.037115,0.599640,-0.028224,14.377348,188.571141,1591.790212,900.445145,0
0.108333,-151.567382,181.252695,-0.111174,2.860188,2.756031,-6.323448,3.013277,-2.712574,6.396992,-2.943794,-0.077298,0.600424,-0.043161,4.639438,188.495703,1591.145056,900.026614,0
0.109375,-182.849999,131.406885,69.062121,4.206078,4.879098,-5.811500,0.416244,-4.741588,5.813652,-0.552920,-0.132093,0.595524,-0.046895,3.983458,188.571165,1590.938067,899.896697,0
0.110416,-194.566802,48.858068,124.767614,5.235288,6.171399,-4.533616,-1.882280,-6.193509,4.718315,1.798816,-0.190541,0.606956,-0.002084,-3.051361,188.495741,1590.870408,900.199610,0
0.111458,-162.172620,-21.851463,174.982576,6.185328,6.611633,-2.636633,-4.076326,-6.583139,2.905344,3.787653,-0.208806,0.616820,-0.054364,-16.510261,188.571140,1591.815834,900.947943,0
