1-Time,2-VGERA,3-VGERB,4-VGERC,5-VN,6-IGERAN,7-IGERBN,8-IGERCN,9-IGERAT,10-IGERBT,11-IGERCT,12-IN,13-IFD,14-IFAULT,15-VFAULT,16-Speed (rad/s),17-FAULT 
0.000000,142.702451,67.885492,-168.581819,-0.261372,-4.930321,2.007713,3.201535,4.969744,-2.101319,-2.991455,-0.051727,0.548033,-0.035692,-34.447921,188.269246,0
0.001042,62.749165,121.609272,-187.577084,-0.691152,-4.525589,-0.186756,4.929346,4.598493,0.094390,-4.773083,-0.018850,0.555088,-0.020755,-21.678931,188.495403,0
0.002083,-9.377796,162.430647,-162.746591,-0.170892,-3.641570,-1.664974,5.395580,3.646474,1.617286,-5.298434,-0.026156,0.570309,-0.039427,-9.464131,188.495495,0
0.003125,-79.315654,183.910494,-113.725758,0.756528,-1.646314,-3.478458,5.152668,1.724056,3.446373,-5.050986,-0.018850,0.556264,-0.050629,11.719498,188.420081,0
0.004167,-130.674496,184.152112,-33.756061,2.260758,0.192730,-4.423298,4.165348,-0.168955,4.485810,-4.144945,-0.044421,0.564691,-0.009553,24.183118,188.193841,0
0.005208,-171.870458,154.191470,41.153977,3.719748,2.092129,-4.865240,2.696121,-1.992127,4.868548,-2.660256,-0.088257,0.552083,-0.069301,36.035998,188.420153,0
0.006250,-174.048218,95.526600,108.209849,4.963848,3.782062,-4.324242,0.384537,-3.697675,4.437464,-0.414187,-0.128440,0.544702,0.001650,38.026558,188.420092,0
0.007292,-176.725048,9.136056,151.567803,5.778168,4.893299,-3.447979,-1.570514,-4.748940,3.543065,1.515909,-0.194194,0.545028,-0.020755,42.935098,188.420028,0
0.008333,-142.879027,-67.698494,168.654925,6.140088,4.978505,-1.771649,-3.333587,-4.951106,1.979881,3.206171,-0.208806,0.534445,-0.017021,42.471388,188.269346,0
0.009375,-63.855826,-120.697420,187.871781,6.524628,4.683832,0.335193,-5.088823,-4.631316,-0.163454,4.991605,-0.219765,0.559792,-0.013287,26.920138,188.420025,0
0.010417,10.947965,-161.989950,162.893561,6.026988,3.693305,1.874368,-5.492371,-3.686648,-1.730667,5.440819,-0.241683,0.535295,-0.039427,13.585648,188.420084,0
0.011458,78.061540,-183.977195,114.660606,5.122188,1.751303,3.661184,-5.269048,-1.837746,-3.495293,5.269509,-0.238030,0.564691,-0.039427,-5.946721,188.420108,0
0.012500,130.180330,-184.013438,33.669129,3.651888,-0.098392,4.594594,-4.242549,0.128781,-4.490413,4.359660,-0.212459,0.559922,-0.058098,-19.790161,188.269349,0
0.013542,171.455689,-154.113200,-41.019318,2.192898,-2.011992,5.006057,-2.722388,1.915195,-4.929555,2.852130,-0.175929,0.552671,-0.031958,-29.120911,188.420121,0
0.014583,173.667477,-95.689948,-107.607387,0.914868,-3.684173,4.487919,-0.469574,3.668528,-4.466240,0.655551,-0.135746,0.545289,-0.035692,-33.701461,188.420215,0
0.015625,176.219539,-7.052356,-151.088447,0.055308,-4.706654,3.581177,1.477642,4.712441,-3.527523,-1.297387,-0.073645,0.525235,-0.009553,-38.757031,188.420101,0
0.016667,143.042726,67.293527,-168.397160,-0.261372,-4.884167,1.988663,3.150602,4.951365,-2.077146,-2.995262,-0.066339,0.547641,-0.061832,-36.291451,188.269315,0
0.017708,62.692452,121.271007,-187.453978,-0.657222,-4.610796,-0.182946,4.917592,4.558060,0.066189,-4.700752,-0.037115,0.557897,-0.024490,-23.092681,188.420193,0
0.018750,-10.137744,161.802440,-162.968182,-0.182202,-3.591866,-1.630685,5.375991,3.668528,1.597142,-5.222296,-0.018850,0.561033,-0.035692,-8.762911,188.420146,0
0.019792,-77.931869,183.729280,-114.525947,0.733908,-1.706668,-3.447979,5.164422,1.764490,3.369825,-5.070021,-0.007891,0.562666,-0.013287,10.882558,188.420061,0
0.020833,-130.005289,184.574944,-32.266477,2.305998,0.174979,-4.362341,4.161430,-0.077061,4.389118,-4.068807,-0.029809,0.550581,-0.020755,23.889058,188.269257,0
0.021875,-172.267446,154.058580,39.492046,3.674508,2.017573,-4.804282,2.684367,-1.903909,4.856462,-2.709745,-0.066339,0.560967,-0.039427,35.052028,188.420032,0
0.022917,-173.900766,95.417872,107.963637,4.986468,3.686204,-4.331862,0.455060,-3.627836,4.405233,-0.497939,-0.091910,0.540717,-0.017021,38.139658,188.420065,0
0.023958,-176.543568,8.640739,151.198485,5.744238,4.779690,-3.387022,-1.515663,-4.693803,3.510834,1.458806,-0.135746,0.539998,-0.020755,43.036888,188.420178,0
0.025000,-143.933879,-66.176300,168.654925,6.140088,4.925251,-1.874515,-3.208213,-4.973160,2.028226,3.122419,-0.205153,0.553520,-0.013287,41.928508,188.269301,0
0.026042,-62.483383,-121.192737,187.699432,6.581178,4.623478,0.327573,-5.002629,-4.565152,-0.171512,4.877398,-0.216112,0.553259,-0.054364,26.479048,188.420164,0
0.027083,8.600067,-161.820817,163.004357,6.060918,3.718157,1.763883,-5.414012,-3.752811,-1.609803,5.444626,-0.216112,0.571681,-0.002084,12.115348,188.420126,0
0.028125,78.855515,-183.747658,114.242046,5.167428,1.793906,3.577367,-5.253377,-1.808340,-3.398601,5.185757,-0.216112,0.560314,-0.020755,-5.562181,188.420083,0
0.029167,129.896767,-184.339622,33.681439,3.595338,-0.062890,4.510778,-4.199451,0.011157,-4.470269,4.287329,-0.216112,0.558093,-0.031958,-19.858021,188.269331,0
0.030208,171.761937,-153.666207,-39.480493,2.204208,-1.937437,4.967959,-2.804665,1.874762,-4.941641,2.852130,-0.168623,0.554827,-0.017021,-29.980471,188.420055,0
0.031250,173.746874,-95.085903,-107.841288,0.903558,-3.591866,4.503158,-0.508753,3.646474,-4.514586,0.705040,-0.139399,0.526411,0.012853,-33.237751,188.344768,0
0.032292,176.015374,-9.541022,-151.396213,0.055308,-4.713754,3.642134,1.446298,4.690387,-3.636302,-1.240283,-0.084604,0.553259,-0.017021,-38.983231,188.420115,0
0.033333,142.906616,67.957977,-168.434091,-0.283992,-4.894818,2.022952,3.170191,4.969744,-2.113406,-2.987649,-0.080951,0.539802,-0.039427,-34.549711,188.344621,0
0.034375,64.212347,121.331411,-187.158523,-0.623292,-4.564642,-0.152467,4.905838,4.605844,0.054102,-4.735014,-0.040768,0.560118,-0.050629,-21.758101,188.420135,0
0.035417,-9.695386,162.031977,-163.189773,-0.182202,-3.641570,-1.634495,5.375991,3.679555,1.576998,-5.275593,0.003068,0.561751,-0.020755,-9.430201,188.344661,0
0.036458,-78.793899,183.656795,-114.205872,0.767838,-1.696018,-3.447979,5.140914,1.764490,3.365796,-5.039565,-0.033462,0.554239,-0.017021,11.549848,188.420110,0
0.037500,-130.300194,184.417892,-34.076136,2.249448,0.089772,-4.423298,4.177102,-0.095440,4.437464,-4.183014,-0.040768,0.564495,-0.039427,24.103948,188.344679,0
0.038542,-171.518841,153.913609,40.833902,3.719748,2.035325,-4.834761,2.727464,-1.889206,4.896750,-2.675483,-0.077298,0.550907,-0.028224,35.968138,188.344693,0
0.039583,-174.184328,96.638043,107.446591,4.941228,3.682654,-4.339482,0.462896,-3.668269,4.457608,-0.547428,-0.128440,0.542023,-0.024490,38.049178,188.344690,0
0.040625,-176.271348,8.882357,151.149243,5.789478,4.790341,-3.463219,-1.468648,-4.649694,3.518892,1.443578,-0.157664,0.529024,-0.024490,42.776758,188.420206,0
0.041667,-143.933879,-66.659536,168.593372,6.140088,4.928802,-1.851656,-3.208213,-4.976836,2.044342,3.130033,-0.172276,0.549470,-0.031958,42.652348,188.347597,0
0.042708,-64.604431,-120.697420,187.071591,6.535938,4.655430,0.278045,-4.967367,-4.620288,-0.086907,4.865978,-0.248989,0.559726,-0.084238,27.010618,188.347304,0
0.043750,10.641717,-161.397985,163.361364,6.083538,3.718157,1.721975,-5.445356,-3.701351,-1.593687,5.406557,-0.245336,0.541043,-0.039427,13.517788,188.344919,0
0.044794,77.630525,-183.493959,115.029925,5.099568,1.822308,3.569747,-5.229869,-1.900233,-3.390543,5.254281,-0.234377,0.564234,-0.020755,-5.765761,188.420276,0
0.045833,129.658575,-184.327541,33.619886,3.606648,-0.038038,4.514588,-4.309154,0.000130,-4.397750,4.355854,-0.194194,0.556591,-0.017021,-19.812781,188.420291,0
0.046875,171.444347,-153.605802,-39.739015,2.215518,-1.866431,4.945100,-2.796829,1.786544,-4.885238,2.939688,-0.146705,0.552410,-0.028224,-29.177461,188.344882,0
0.047917,173.746874,-96.523531,-107.250379,0.937488,-3.577665,4.526017,-0.657635,3.554580,-4.490413,0.796406,-0.157664,0.544114,-0.005818,-33.610981,188.344983,0
0.048958,175.799867,-8.151718,-150.657576,0.066618,-4.632098,3.588797,1.356186,4.660981,-3.636302,-1.183180,-0.091910,0.521968,-0.035692,-38.610001,188.420370,0
0.050000,143.882071,66.665320,-168.212501,-0.272682,-4.866416,2.064860,3.056571,4.925635,-2.169809,-2.846793,-0.044421,0.546400,-0.002084,-36.438481,188.419493,0
0.051042,63.463742,121.754243,-186.419887,-0.634602,-4.557542,-0.045791,4.819643,4.587466,-0.026474,-4.609386,-0.029809,0.532878,-0.054364,-23.024821,188.344898,0
0.052083,-8.810671,161.355446,-163.657576,-0.182202,-3.691274,-1.512580,5.305468,3.727340,1.423903,-5.176614,-0.000585,0.560380,-0.020755,-9.204001,188.344849,0
0.053125,-77.886499,182.895698,-114.981440,0.790458,-1.791875,-3.310825,5.156586,1.860059,3.208672,-5.024338,-0.004238,0.559073,0.001650,10.746838,188.420160,0
0.054167,-129.835151,184.876966,-33.128220,2.272068,0.018767,-4.282334,4.184937,0.051590,4.308542,-4.152559,-0.033462,0.550711,-0.031958,23.832508,188.344957,0
0.055208,-171.904486,153.454535,38.014773,3.640578,1.840060,-4.808092,2.778397,-1.742176,4.812145,-2.831566,-0.091910,0.562862,-0.028224,35.232988,188.344867,0
0.056250,-173.957478,96.154807,107.655872,4.963848,3.590347,-4.305193,0.639203,-3.513888,4.381060,-0.650215,-0.113828,0.538169,-0.024490,37.970008,188.344945,0
0.057292,-175.840333,10.464955,151.026137,5.778168,4.651880,-3.531796,-1.355028,-4.590882,3.607526,1.283689,-0.128440,0.549601,-0.043161,42.833308,188.420260,0
0.058333,-144.512347,-66.079653,168.445644,6.117468,4.914600,-1.977381,-3.063249,-4.925376,2.100745,3.004406,-0.179582,0.552475,-0.031958,42.143398,188.420224,0
0.059375,-64.978734,-121.555164,186.025190,6.490698,4.605726,0.182799,-4.834157,-4.579855,0.021872,4.736543,-0.197847,0.549928,-0.054364,26.750488,188.269507,0
0.060417,8.100997,-161.095963,163.915341,6.083538,3.782062,1.600060,-5.410094,-3.815299,-1.448650,5.376102,-0.238030,0.568414,-0.046895,12.341548,188.344871,0
0.061458,78.640008,-182.467082,114.980682,5.167428,1.879113,3.413544,-5.198526,-1.981100,-3.249535,5.174336,-0.212459,0.566781,-0.017021,-5.550871,188.420300,0
0.062500,129.488437,-184.702049,35.121780,3.629268,0.061370,4.446011,-4.301318,-0.106467,-4.357461,4.378695,-0.259948,0.563646,-0.024490,-19.790161,188.420327,0
0.063542,171.285552,-152.965514,-38.495644,2.226828,-1.763473,4.952719,-2.902614,1.668920,-4.848978,2.962530,-0.168623,0.554631,-0.024490,-30.195361,188.344941,0
0.064583,174.109834,-96.801392,-107.275000,0.937488,-3.471157,4.514588,-0.728158,3.484741,-4.462211,0.880158,-0.132093,0.542480,-0.005818,-33.169891,188.344965,0
0.065625,175.142002,-10.277957,-151.088447,0.123168,-4.624997,3.722141,1.246483,4.565411,-3.704792,-1.065166,-0.110175,0.551103,-0.024490,-38.677861,188.420343,0
0.066667,144.097578,67.390175,-168.175569,-0.227442,-4.855765,2.133437,2.978212,4.855795,-2.214126,-2.797304,-0.077298,0.545943,-0.031958,-34.843771,188.344976,0
0.067708,66.616957,121.814647,-185.262690,-0.623292,-4.624997,0.079933,4.784382,4.642602,-0.139281,-4.609386,-0.033462,0.561294,-0.002084,-21.837271,188.194244,0
0.068750,-9.899551,161.150071,-164.211554,-0.216132,-3.730327,-1.405905,5.332893,3.782476,1.419874,-5.161386,-0.040768,0.559922,-0.054364,-9.430201,188.344956,0
0.069792,-78.124692,182.231248,-115.424622,0.767838,-1.894833,-3.249867,5.187930,1.974007,3.168384,-5.035759,-0.033462,0.560249,-0.017021,11.165308,188.344970,0
0.070833,-129.948576,185.070261,-34.691667,2.283378,-0.087742,-4.274715,4.302476,0.103051,4.324657,-4.274379,-0.055380,0.561947,-0.043161,24.070018,188.420274,0
0.071875,-171.405416,153.321645,38.999621,3.629268,1.783255,-4.785233,2.837167,-1.705419,4.779914,-2.816338,-0.044421,0.552802,0.009119,36.194338,188.194190,0
0.072917,-174.241041,97.737406,106.966478,4.975158,3.512241,-4.339482,0.658793,-3.491833,4.485810,-0.730159,-0.113828,0.542938,-0.028224,38.105728,188.344929,0
0.073958,-175.318578,9.160217,150.927652,5.812098,4.602176,-3.516556,-1.260997,-4.521043,3.571267,1.241813,-0.154011,0.529415,-0.017021,42.335668,188.344970,0
0.075000,-145.226925,-65.463527,168.593372,6.083538,4.875547,-2.026909,-2.992726,-4.918024,2.217581,2.909233,-0.186888,0.554043,-0.005818,42.833308,188.420265,0
0.076042,-66.181039,-121.591407,185.163448,6.468078,4.694483,0.041835,-4.791060,-4.601910,0.114535,4.713702,-0.263601,0.550189,-0.002084,27.214198,188.194155,0
0.077083,9.473440,-160.576484,164.333902,6.094848,3.803363,1.546722,-5.304310,-3.796920,-1.416419,5.292350,-0.245336,0.550646,-0.017021,13.676128,188.344956,0
0.078125,77.346963,-181.814713,116.297917,5.156118,2.006923,3.375445,-5.265131,-2.065642,-3.177016,5.216212,-0.227071,0.567761,0.009119,-5.358601,188.344938,0
0.079167,129.488437,-185.064476,33.964583,3.674508,0.171429,4.377434,-4.364005,-0.165279,-4.313144,4.416764,-0.194194,0.553782,-0.039427,-19.993741,188.420309,0
0.080208,171.455689,-153.001757,-37.116856,2.260758,-1.649864,4.884142,-2.977054,1.591729,-4.844949,3.080543,-0.172276,0.562601,-0.043161,-29.403661,188.194146,0
0.081250,173.848957,-97.369194,-107.041099,0.903558,-3.414352,4.556496,-0.830024,3.455335,-4.554874,0.979137,-0.143052,0.545747,0.009119,-33.509191,188.344925,0
0.082292,174.994549,-9.734316,-150.632955,0.134478,-4.514939,3.706902,1.172043,4.528654,-3.692705,-0.958573,-0.117481,0.543591,-0.005818,-38.259391,188.344916,0
0.083333,144.834841,66.097518,-168.200190,-0.250062,-4.823813,2.198205,2.884182,4.881526,-2.286645,-2.686904,-0.062686,0.552475,-0.013287,-36.585511,188.420309,0
0.084375,65.709557,122.370369,-184.536364,-0.589362,-4.543341,0.060884,4.698187,4.572763,-0.175541,-4.449497,-0.022503,0.527978,0.001650,-23.036131,188.194011,0
0.085417,-7.778504,160.787644,-164.322349,-0.193512,-3.790682,-1.352567,5.215355,3.819234,1.286923,-5.142352,-0.037115,0.566193,-0.020755,-9.633781,188.344910,0
0.086458,-78.215432,181.445989,-115.732387,0.756528,-1.912585,-3.192720,5.136997,1.999738,3.031404,-4.955814,-0.018850,0.555741,-0.043161,10.611118,188.344945,0
0.087500,-129.551589,185.251474,-34.703977,2.272068,-0.165848,-4.206137,4.282886,0.180241,4.256167,-4.236310,-0.055380,0.554762,-0.017021,23.719408,188.420240,0
0.088542,-171.428101,152.645114,36.734470,3.606648,1.658995,-4.762374,2.946869,-1.554713,4.816174,-2.964807,-0.091910,0.558746,-0.005818,35.481808,188.194078,0
0.089583,-174.411178,97.314574,107.286553,4.963848,3.448336,-4.358531,0.788085,-3.385236,4.473723,-0.821525,-0.099216,0.540390,-0.005818,37.856908,188.269436,0
0.090625,-174.910248,12.023392,150.866099,5.800788,4.602176,-3.585133,-1.166967,-4.484286,3.671987,1.062889,-0.117481,0.553716,-0.024490,42.527938,188.344854,0
0.091667,-145.204240,-66.091734,168.310228,6.151398,4.864897,-2.091676,-2.886942,-4.892294,2.269956,2.859743,-0.201500,0.552802,-0.024490,42.403528,188.344907,0
0.092708,-67.859729,-122.098805,183.907766,6.422838,4.655430,-0.026742,-4.693112,-4.616613,0.219284,4.622336,-0.223418,0.553390,0.009119,27.101098,188.194161,0
0.093750,8.350532,-160.552322,164.752463,6.049608,3.881469,1.481955,-5.331736,-3.881463,-1.323756,5.315191,-0.248989,0.566651,-0.017021,12.386788,188.269568,0
0.094792,78.413158,-180.932807,116.100947,5.156118,2.014023,3.303058,-5.225951,-2.102400,-3.084353,5.174336,-0.230724,0.555937,-0.005818,-5.528251,188.344878,0
0.095833,129.431725,-185.136962,35.971212,3.629268,0.256635,4.392673,-4.438446,-0.264524,-4.333289,4.492902,-0.201500,0.567239,-0.017021,-19.824091,188.344856,0
0.096875,170.809167,-152.204417,-37.843182,2.260758,-1.596610,4.880333,-3.043659,1.540269,-4.796603,3.114805,-0.179582,0.549601,-0.017021,-30.489421,188.194123,0
0.097917,174.416082,-98.323586,-106.548675,0.914868,-3.364648,4.518398,-0.857450,3.367117,-4.526672,1.024820,-0.139399,0.542611,-0.002084,-33.102031,188.269382,0
0.098958,174.382054,-10.724951,-150.657576,0.111858,-4.507838,3.745000,1.085848,4.444111,-3.688676,-0.928118,-0.069992,0.544244,-0.035692,-38.315941,188.344851,0
0.100000,145.039006,66.363298,-168.212501,-0.227442,-4.827363,2.282021,2.864592,4.899904,-2.359164,-2.645028,-0.069992,0.531506,-0.031958,-35.069971,188.339031,0
0.101042,68.125510,122.334126,-183.526895,-0.566742,-4.621447,0.186609,4.662926,4.635250,-0.256117,-4.468531,-0.029809,0.561621,-0.028224,-21.871201,188.193839,0
0.102083,-9.888209,160.618511,-164.962501,-0.216132,-3.794232,-1.337327,5.262371,3.867019,1.315124,-5.081441,-0.026156,0.540325,-0.024490,-9.339721,188.193861,0
0.103125,-77.670992,180.974834,-116.507955,0.722598,-1.987140,-3.135572,5.148750,2.087956,3.043490,-5.035759,-0.011544,0.561229,-0.035692,10.792078,188.344702,0
0.104167,-129.710384,185.577659,-34.937879,2.272068,-0.169398,-4.194708,4.365163,0.198620,4.260196,-4.278186,-0.037115,0.558224,-0.046895,24.092638,188.420198,0
0.105208,-171.223936,152.705519,37.559280,3.629268,1.658995,-4.769994,2.931197,-1.543686,4.759770,-2.980035,-0.033462,0.552867,-0.005818,36.386608,188.192775,0
0.106250,-174.638028,98.534745,106.855682,4.963848,3.469637,-4.400439,0.795921,-3.385236,4.505954,-0.844366,-0.084604,0.548490,-0.039427,38.117038,188.118631,0
0.107292,-174.842193,9.933395,150.533713,5.800788,4.595075,-3.550845,-1.182638,-4.451204,3.676016,1.146640,-0.154011,0.522687,-0.054364,42.041608,188.419952,0
0.108333,-145.794050,-65.004452,168.544129,6.094848,4.918151,-2.110725,-2.922203,-4.884942,2.318302,2.840709,-0.183235,0.546400,-0.035692,42.969028,188.495354,0
0.109375,-66.929644,-122.147128,184.043182,6.445458,4.662531,0.018976,-4.751881,-4.612937,0.178996,4.618529,-0.216112,0.548882,-0.028224,27.372538,188.269687,0
0.110417,8.350532,-160.371109,164.801705,6.094848,3.860168,1.489574,-5.316064,-3.907193,-1.368073,5.288543,-0.197847,0.561751,-0.009553,13.834468,188.193680,0
0.111458,77.562470,-181.041535,116.802652,5.190048,2.049526,3.261150,-5.272966,-2.128130,-3.108526,5.212405,-0.197847,0.563254,-0.002084,-5.234191,188.419630,0
0.112500,129.227560,-185.294014,34.432386,3.617958,0.192730,4.358384,-4.411020,-0.213064,-4.284943,4.443412,-0.205153,0.550907,-0.020755,-20.050291,188.495275,0
0.113542,171.296894,-152.530602,-36.095076,2.260758,-1.596610,4.937480,-3.059331,1.521890,-4.832863,3.175716,-0.201500,0.562666,-0.020755,-29.607241,188.268881,0
0.114583,173.996409,-97.345032,-107.028788,0.982728,-3.382400,4.586975,-0.947562,3.352414,-4.562932,1.062889,-0.135746,0.537058,-0.035692,-33.452641,188.267784,0
0.115625,174.642932,-11.147782,-150.546781,0.111858,-4.500737,3.756430,1.062340,4.466166,-3.769253,-0.901470,-0.095563,0.549797,-0.020755,-38.067121,188.419902,0
0.116667,145.311226,65.493473,-168.150947,-0.227442,-4.852215,2.289641,2.825413,4.925635,-2.367222,-2.648835,-0.055380,0.555154,-0.020755,-36.653371,188.493941,0
0.117708,67.082000,122.563663,-183.674622,-0.623292,-4.610796,0.182799,4.678598,4.653629,-0.276262,-4.438076,-0.037115,0.552083,-0.009553,-23.126611,188.269612,0
0.118750,-7.494941,160.594349,-164.913258,-0.227442,-3.851036,-1.318278,5.325058,3.874370,1.282894,-5.172807,-0.040768,0.571093,-0.043161,-9.859981,188.194267,0
0.119792,-78.510337,180.938591,-116.126326,0.722598,-2.015543,-3.166051,5.195766,2.032819,3.055577,-5.073828,0.003068,0.567696,-0.035692,10.667668,188.420291,0
0.120835,-129.506219,185.529335,-35.553409,2.226828,-0.169398,-4.240426,4.318147,0.224350,4.292426,-4.285800,-0.048074,0.562666,-0.028224,23.651548,188.495946,0
0.121875,-171.121853,152.488063,36.672917,3.606648,1.676747,-4.785233,2.974294,-1.536334,4.779914,-3.006683,-0.059033,0.558224,-0.013287,35.459188,188.269660,0
0.122917,-174.638028,98.244804,106.818750,4.907298,3.448336,-4.446157,0.780249,-3.421994,4.501925,-0.871014,-0.113828,0.544702,-0.035692,37.890838,188.194235,0
0.123958,-174.740111,12.349576,150.595266,5.778168,4.623478,-3.623232,-1.174803,-4.513692,3.748535,1.081923,-0.132093,0.550973,-0.020755,42.437458,188.420462,0
0.125000,-145.453775,-66.091734,168.199432,6.083538,4.928802,-2.125964,-2.926121,-4.929051,2.322331,2.871164,-0.201500,0.547119,-0.043161,42.505318,188.495736,0
0.126042,-69.118746,-121.893429,183.649243,6.377598,4.715785,-0.007693,-4.806732,-4.701155,0.178996,4.671826,-0.208806,0.563972,-0.017021,27.304678,188.269622,0
0.127083,8.770205,-160.383189,165.220266,6.106158,3.899221,1.489574,-5.374833,-3.899841,-1.372102,5.391329,-0.227071,0.556787,-0.031958,12.330238,188.194307,0
