1-Time,2-VGERA,3-VGERB,4-VGERC,5-VN,6-IGERAN,7-IGERBN,8-IGERCN,9-IGERAT,10-IGERBT,11-IGERCT,12-IN,13-IFD,14-IFAULT,15-VFAULT,16-Speed (rad/s),17-Active Power,18-Reactive Power,19-FAULT 
0.000000,143.564481,-169.890861,4.086742,3.007218,-3.304294,3.836127,-0.053909,3.536201,-3.805168,0.155091,-0.117481,0.391906,-0.073035,18.505498,188.582239,1183.336499,-9.279234,0
0.001041,183.943782,-121.253141,-56.961553,1.853598,-4.120858,2.840012,1.606551,4.344866,-2.814748,-1.456614,-0.084604,0.393931,-0.087972,24.217048,188.515276,1178.779765,-6.975515,0
0.002087,186.348392,-45.022637,-115.387690,0.756528,-4.081805,1.435134,2.793126,4.341190,-1.471807,-2.616472,-0.062686,0.406735,-0.065566,28.797598,188.502933,1175.176686,-3.728832,0
0.003122,159.375926,18.728293,-167.843182,-0.261372,-3.709025,-0.033242,3.718506,3.940534,0.022216,-3.573532,-0.059033,0.396152,-0.035692,31.353658,188.719239,1171.373533,-1.835236,0
0.004166,105.725899,78.335474,-183.686932,-0.544122,-2.391872,-1.723859,4.002090,2.734888,1.616959,-3.811908,-0.033462,0.397394,-0.054364,25.381978,188.552622,1167.896912,1.313585,0
0.005198,30.978821,133.521043,-189.226705,-0.736392,-1.000163,-3.069209,3.793134,1.242533,3.085802,-3.683826,-0.059033,0.401509,-0.061832,16.119088,188.567114,1164.454566,3.043694,0
0.006241,-36.475030,168.156995,-148.712500,0.077928,0.615214,-3.720057,2.767007,-0.290255,3.719502,-2.737438,-0.073645,0.406213,-0.073035,4.322758,188.524284,1161.070709,5.219059,0
0.007279,-88.809327,196.547119,-71.204924,1.457748,2.436506,-4.160570,1.408788,-2.128130,4.281859,-1.371225,-0.135746,0.389424,-0.043161,-2.768611,188.662982,1158.296471,7.265583,0
0.008320,-143.128562,171.962480,-5.564773,2.769708,3.327626,-3.593062,0.020719,-3.091176,3.715306,-0.079727,-0.135746,0.387268,-0.061832,-13.467871,188.571187,1155.290098,8.779967,0
0.009362,-182.997451,123.071061,56.345265,3.945948,4.158391,-2.668382,-1.598696,-3.866760,2.829804,1.524862,-0.197847,0.387334,-0.039427,-19.710991,188.571292,1151.614424,10.085241,0
0.010404,-187.466396,46.514373,113.675758,5.031708,4.105137,-1.323032,-2.811391,-3.988059,1.444895,2.659815,-0.183235,0.397786,-0.039427,-23.296261,188.495823,1148.880599,11.831704,0
0.011445,-159.280283,-18.033898,167.251516,6.060918,3.764310,0.097721,-3.718114,-3.513888,0.080970,3.563508,-0.238030,0.394258,-0.050629,-26.316031,188.721697,1145.227267,14.182160,0
0.012487,-106.639738,-77.471945,183.378410,6.400218,2.560766,1.760557,-3.956922,-2.411163,-1.568331,3.862367,-0.245336,0.405233,-0.061832,-23.522461,188.571174,1142.998505,16.002791,0
0.013529,-31.087342,-132.971618,188.893561,6.490698,1.165507,3.133687,-3.859906,-0.944538,-2.961633,3.720053,-0.201500,0.402228,-0.050629,-10.821331,188.571317,1139.022844,17.576233,0
0.014570,35.833411,-167.088091,149.905872,5.789478,-0.403716,3.796441,-2.859899,0.588250,-3.721234,2.876844,-0.194194,0.387791,-0.061832,-0.042902,188.632366,1136.865221,19.263177,0
0.015612,88.961683,-195.091627,72.706061,4.307868,-2.221459,4.308388,-1.527800,2.393043,-4.187067,1.620924,-0.164970,0.392037,-0.050629,8.349118,188.722355,1133.951511,20.951271,0
0.016654,142.736478,-172.077505,6.228788,3.029838,-3.098378,3.728975,-0.158387,3.356089,-3.721234,0.304521,-0.121134,0.391384,-0.061832,18.177508,188.496281,1131.868014,22.582773,0
0.017695,181.550515,-123.608918,-56.173674,1.876218,-3.882989,2.820169,1.427445,4.105942,-2.793765,-1.285837,-0.069992,0.388640,-0.054364,23.945608,188.571603,1128.140895,24.126594,0
0.018737,187.312505,-46.991824,-113.393372,0.767838,-3.907841,1.510537,2.554319,4.219891,-1.522167,-2.435021,-0.066339,0.400464,-0.028224,29.102968,188.496214,1125.665041,25.199158,0
0.019779,158.763431,17.967196,-166.722917,-0.238752,-3.570565,0.129470,3.494624,3.804531,-0.133062,-3.310252,-0.077298,0.406735,-0.061832,31.059598,188.722451,1121.073258,27.312407,0
0.020820,106.417791,78.057613,-183.022160,-0.566742,-2.455777,-1.497650,3.819253,2.745915,1.482665,-3.644689,-0.059033,0.373289,-0.024490,27.349918,188.575206,1118.423954,28.733644,0
0.021862,30.457066,132.989483,-188.364963,-0.645912,-1.035666,-2.866811,3.677461,1.323400,2.863377,-3.523723,-0.048074,0.374595,-0.043161,16.096468,188.571583,1114.584574,30.844643,0
0.022904,-36.735907,167.081795,-150.596023,0.043998,0.498054,-3.541470,2.714768,-0.146900,3.589405,-2.719649,-0.037115,0.401182,-0.054364,4.413238,188.496092,1112.803742,32.467506,0
0.023945,-89.535247,193.901401,-73.630114,1.502988,2.219939,-4.049449,1.434908,-1.922288,4.034254,-1.477961,-0.106522,0.393017,-0.054364,-2.225732,188.722349,1108.912588,35.025979,0
0.024987,-143.151247,172.941033,-6.672727,2.758398,3.111059,-3.529565,0.128928,-2.896362,3.648159,-0.218483,-0.113828,0.391580,-0.031958,-13.083331,188.571571,1106.753667,37.239852,0
0.026029,-181.035199,124.544932,56.492993,3.945948,3.948925,-2.652508,-1.464367,-3.657242,2.741673,1.350528,-0.128440,0.390600,-0.065566,-19.247281,188.571654,1102.887210,38.572716,0
0.027070,-188.260371,48.133214,113.614205,5.009088,3.987978,-1.370655,-2.606166,-3.844705,1.520435,2.467691,-0.175929,0.395956,-0.058098,-23.092681,188.571572,1100.423205,40.419369,0
0.028112,-158.724500,-17.321124,166.882197,6.038298,3.675553,-0.013399,-3.509157,-3.403615,0.194280,3.342922,-0.223418,0.384394,-0.028224,-26.169001,188.722358,1096.754661,42.067327,0
0.029154,-107.218205,-77.834372,183.132198,6.366288,2.518163,1.585940,-3.800204,-2.381757,-1.425643,3.698706,-0.205153,0.404841,-0.065566,-23.522461,188.571607,1093.984734,43.378863,0
0.030197,-30.179942,-132.705838,188.007198,6.502008,1.197459,2.963038,-3.718114,-0.940863,-2.751798,3.638223,-0.190541,0.389947,-0.050629,-10.436791,188.571618,1090.932984,44.877019,0
0.031237,37.285251,-166.798149,150.927652,5.846028,-0.247504,3.661509,-2.852436,0.430192,-3.544973,2.819918,-0.208806,0.387268,-0.061832,0.217228,188.571585,1088.339064,47.063233,0
0.032279,89.925796,-192.518394,74.146402,4.364418,-2.033294,4.145676,-1.636010,2.212931,-4.019199,1.681407,-0.139399,0.394585,-0.065566,8.088988,188.722601,1085.242786,49.217106,0
0.033321,142.815876,-173.201029,7.004356,3.029838,-2.878260,3.697226,-0.356150,3.153923,-3.696054,0.446834,-0.132093,0.396087,-0.050629,18.505498,188.571681,1083.494088,51.817962,0
0.034362,179.656317,-124.961979,-56.358334,1.819668,-3.787131,2.812232,1.274459,3.922155,-2.831535,-1.097271,-0.106522,0.395956,-0.046895,23.889058,188.496156,1080.831537,54.376909,0
0.035404,187.925000,-48.936850,-113.651894,0.756528,-3.847486,1.581971,2.390139,4.142700,-1.622888,-2.292708,-0.106522,0.403600,-0.069301,28.537468,188.571516,1079.630985,56.182667,0
0.036446,158.321074,16.589973,-166.784470,-0.261372,-3.538612,0.204873,3.382683,3.745719,-0.237979,-3.160822,-0.059033,0.402554,-0.061832,30.957808,188.722306,1077.341963,57.541002,0
0.037487,107.767549,78.069694,-183.034470,-0.578052,-2.438026,-1.362718,3.707312,2.756942,1.356764,-3.555743,-0.026156,0.404318,-0.061832,26.049268,188.571516,1075.952501,58.771093,0
0.038529,30.559148,132.953241,-187.577084,-0.668532,-1.099571,-2.731879,3.584177,1.349130,2.691313,-3.470355,-0.048074,0.401117,-0.054364,15.836338,188.496183,1073.759776,60.203359,0
0.039570,-37.745390,167.130118,-151.137690,0.055308,0.359593,-3.446224,2.744619,-0.047655,3.534848,-2.737438,-0.051727,0.384263,-0.035692,4.300138,188.647156,1073.255374,61.841142,0
0.040612,-90.442647,192.451693,-73.802462,1.491678,2.127632,-3.958172,1.528192,-1.845097,4.034254,-1.524213,-0.106522,0.392756,-0.050629,-3.198391,188.646918,1072.793551,63.228509,0
0.041654,-143.003794,173.617564,-6.414205,2.769708,3.022302,-3.529565,0.274452,-2.815495,3.664945,-0.303871,-0.121134,0.396610,-0.073035,-13.580971,188.571551,1072.406854,64.822752,0
0.042696,-179.844236,125.438918,56.874621,3.945948,3.874369,-2.676319,-1.341231,-3.583727,2.766853,1.243792,-0.143052,0.398374,-0.058098,-19.609201,188.496176,1071.289498,66.258177,0
0.043737,-188.373796,49.498356,114.143561,5.054328,3.963126,-1.434152,-2.509150,-3.793245,1.625353,2.435671,-0.150358,0.399876,-0.061832,-23.273641,188.571648,1071.100692,67.372491,0
0.044779,-158.747185,-16.064710,167.066857,6.060918,3.647151,-0.080865,-3.479306,-3.440373,0.274018,3.325132,-0.186888,0.407258,-0.065566,-25.739221,188.647003,1071.267254,68.319558,0
0.045821,-108.488565,-77.786049,182.861364,6.400218,2.585618,1.534348,-3.785279,-2.440569,-1.350103,3.709380,-0.186888,0.405167,-0.058098,-23.895691,188.571563,1071.535188,69.387312,0
0.046862,-31.348220,-132.730000,187.514773,6.468078,1.264914,2.911447,-3.695726,-1.025405,-2.735011,3.602645,-0.227071,0.398374,-0.054364,-10.719541,188.496159,1071.191884,70.094070,0
0.047904,37.614183,-166.701502,151.050758,5.744238,-0.226202,3.590075,-2.841242,0.433868,-3.523989,2.866170,-0.179582,0.378711,-0.061832,0.239848,188.571607,1071.387806,70.537917,0
0.048946,90.288756,-192.119724,73.826326,4.319178,-1.987140,4.157582,-1.636010,2.194552,-3.989822,1.681407,-0.186888,0.389685,-0.031958,8.756278,188.647029,1070.846486,70.837263,0
0.049987,142.384861,-173.213110,5.810227,3.063768,-2.860509,3.717069,-0.397195,3.120841,-3.670874,0.457508,-0.150358,0.396348,-0.054364,18.471568,188.571596,1070.182220,71.255414,0
0.051040,179.815112,-124.043830,-57.761743,1.864908,-3.716126,2.883667,1.218488,3.947885,-2.793765,-1.075924,-0.084604,0.397132,-0.043161,23.979538,188.496210,1070.074173,71.572119,0
0.052085,187.119682,-47.752921,-115.523106,0.756528,-3.804883,1.585940,2.364019,4.091239,-1.681641,-2.250013,-0.059033,0.402620,-0.058098,29.035108,188.571627,1069.339172,73.099853,0
0.053113,158.491211,15.695986,-166.895266,-0.250062,-3.556363,0.252496,3.311787,3.727340,-0.342896,-3.078992,-0.044421,0.406474,-0.080503,30.675058,188.646962,1068.296549,74.399770,0
0.054154,108.811059,77.755590,-182.726705,-0.532812,-2.462878,-1.338906,3.662536,2.808403,1.327387,-3.541512,-0.055380,0.405625,-0.035692,27.496948,188.571507,1068.393570,74.922257,0
0.055195,31.784138,133.037807,-187.183145,-0.634602,-1.120873,-2.684256,3.565520,1.389563,2.661936,-3.459681,-0.040768,0.402750,-0.076769,15.881578,188.496494,1068.144809,75.311764,0
0.056237,-37.416457,167.093875,-151.334660,0.010068,0.373795,-3.418444,2.722230,-0.047655,3.476094,-2.701860,-0.062686,0.398569,-0.024490,4.107868,188.647079,1067.207166,75.144499,0
0.057279,-90.578757,191.883890,-74.036364,1.469058,2.106330,-3.926423,1.490878,-1.771582,3.971304,-1.488634,-0.121134,0.385570,-0.031958,-2.598961,188.646763,1065.745633,75.417626,0
0.058320,-142.879027,173.859182,-5.257008,2.792328,2.993900,-3.537502,0.300571,-2.800792,3.660749,-0.278966,-0.124787,0.388705,-0.039427,-13.117261,188.571527,1065.553026,75.425005,0
0.059362,-178.834754,124.991925,57.834849,3.968568,3.821115,-2.652508,-1.333769,-3.513888,2.771050,1.204656,-0.146705,0.389555,-0.058098,-19.156801,188.496161,1064.405032,76.278721,0
0.060404,-188.589304,48.604369,113.983523,5.065638,4.012830,-1.457964,-2.475568,-3.804272,1.642139,2.389419,-0.179582,0.399419,-0.039427,-22.968271,188.646866,1064.174657,77.059129,0
0.061445,-158.520335,-15.980144,166.894508,6.060918,3.672003,-0.120551,-3.393485,-3.396264,0.324378,3.257533,-0.212459,0.386550,-0.039427,-25.908871,188.571531,1062.916753,77.711181,0
0.062487,-109.146430,-77.508188,183.009091,6.332358,2.631772,1.498631,-3.803936,-2.422190,-1.291349,3.716496,-0.183235,0.390535,-0.024490,-23.737351,188.571661,1062.696337,77.955979,0
0.063529,-32.641265,-132.862890,187.083902,6.468078,1.272015,2.887635,-3.699457,-1.095244,-2.688848,3.602645,-0.201500,0.413660,-0.024490,-10.572511,188.496259,1062.502950,78.838144,0
0.064570,36.684098,-167.076010,151.543182,5.778168,-0.212001,3.582137,-2.841242,0.386083,-3.482022,2.905307,-0.190541,0.399223,-0.050629,0.228538,188.646889,1062.450502,79.573098,0
0.065612,90.572318,-191.600245,74.503409,4.307868,-1.976490,4.141708,-1.621084,2.165146,-4.027593,1.667176,-0.183235,0.390926,-0.043161,8.303878,188.569456,1062.607148,79.657374,0
0.066654,142.793191,-173.635941,5.527083,3.018528,-2.885361,3.685321,-0.408389,3.179653,-3.700250,0.453950,-0.113828,0.390992,-0.043161,18.562048,188.571683,1063.628021,79.469319,0
0.067695,178.714890,-124.623714,-57.700190,1.830978,-3.740978,2.883667,1.218488,3.929506,-2.810552,-1.090155,-0.113828,0.388705,-0.054364,23.889058,188.496134,1063.443805,79.309977,0
0.068737,188.117823,-47.571708,-113.885796,0.858318,-3.900740,1.649437,2.382676,4.172106,-1.673248,-2.303381,-0.084604,0.395107,-0.039427,28.548778,188.647199,1064.726201,78.636348,0
0.069779,158.014826,17.230261,-166.882955,-0.193512,-3.591866,0.264401,3.356563,3.793504,-0.284143,-3.150149,-0.055380,0.405102,-0.054364,30.856018,188.497991,1066.030280,78.415754,0
0.070820,108.209907,78.226746,-182.862122,-0.544122,-2.519682,-1.378592,3.755820,2.812078,1.373551,-3.569975,-0.055380,0.399615,-0.058098,26.139748,188.571527,1066.593968,78.172450,0
0.071862,32.022331,133.351911,-187.195455,-0.657222,-1.096021,-2.759659,3.666267,1.400590,2.762656,-3.481028,-0.037115,0.397655,-0.076769,16.051228,188.496120,1067.805745,77.606386,0
0.072904,-36.622482,167.299251,-151.396213,-0.001242,0.398647,-3.545439,2.796858,-0.077061,3.585208,-2.769459,-0.059033,0.400203,-0.043161,4.413238,188.646898,1069.695612,77.199495,0
0.073945,-90.544730,192.500017,-74.430303,1.446438,2.202188,-4.065324,1.509535,-1.878179,4.067828,-1.499308,-0.073645,0.392952,-0.073035,-3.198391,188.495978,1071.703400,76.265100,0
0.074987,-143.310042,173.400107,-5.847917,2.758398,3.118160,-3.573219,0.207287,-2.877983,3.719502,-0.229156,-0.113828,0.392298,-0.031958,-13.671451,188.571605,1072.978813,75.442494,0
0.076029,-180.207196,124.798631,57.514773,3.991188,3.970226,-2.672351,-1.449441,-3.671945,2.796230,1.354085,-0.179582,0.387464,-0.046895,-19.631821,188.496114,1075.760485,73.660187,0
0.077070,-188.112919,47.637897,114.291288,5.043018,4.037682,-1.382561,-2.621091,-3.910869,1.600173,2.521059,-0.223418,0.394650,-0.076769,-23.251021,188.647012,1077.644999,72.516696,0
0.078112,-158.577048,-17.743956,167.202273,6.060918,3.728808,-0.013399,-3.576322,-3.477130,0.190084,3.410521,-0.197847,0.385047,-0.069301,-25.852321,188.571619,1080.193558,71.117369,0
0.079154,-107.445055,-78.462579,183.107576,6.354978,2.582068,1.621657,-3.886026,-2.433217,-1.467610,3.819673,-0.197847,0.387922,-0.065566,-23.805211,188.571428,1082.201035,69.858311,0
0.080195,-31.007945,-133.346126,187.908713,6.490698,1.254264,3.010661,-3.803936,-1.014378,-2.865109,3.670244,-0.201500,0.391057,-0.061832,-10.843951,188.496199,1084.417407,68.282597,0
0.081237,36.899606,-166.979363,151.112311,5.732928,-0.297208,3.717069,-2.867362,0.481653,-3.624710,2.915980,-0.201500,0.398439,-0.054364,-0.099452,188.646893,1086.166060,66.865536,0
0.082279,90.198016,-193.255329,74.318750,4.330488,-2.111400,4.256797,-1.636010,2.293798,-4.174477,1.684965,-0.164970,0.392364,-0.054364,8.541388,188.496092,1089.091507,65.882490,0
0.083659,161.179384,-159.694578,-16.607386,2.645298,-3.474707,3.689289,0.214750,3.646474,-3.570153,-0.115305,-0.113828,0.399092,-0.110377,19.387678,188.571460,1091.739839,64.819318,0
0.084362,180.756540,-124.659956,-56.986174,1.819668,-3.929143,2.855887,1.349086,4.069185,-2.848322,-1.189775,-0.113828,0.393997,-0.039427,23.934298,188.496205,1094.442659,63.686161,0
0.085404,187.550697,-47.716679,-114.156629,0.779148,-3.985947,1.581971,2.550587,4.252972,-1.601904,-2.435021,-0.106522,0.395761,-0.069301,29.080348,188.646958,1096.044077,61.950292,0
0.086445,158.559266,18.051763,-167.264584,-0.250062,-3.627369,0.145344,3.531938,3.870694,-0.183422,-3.328041,-0.055380,0.393148,-0.039427,30.901258,188.496273,1098.956192,60.547973,0
0.087487,106.928204,78.879114,-183.034470,-0.555432,-2.480629,-1.513524,3.852836,2.830457,1.478468,-3.687383,-0.018850,0.402620,-0.061832,27.429088,188.571572,1100.879877,59.975999,0
0.088529,29.901283,133.569367,-188.217235,-0.668532,-1.078269,-2.902528,3.785671,1.371184,2.943114,-3.587764,-0.066339,0.380736,-0.035692,16.051228,188.496246,1103.659716,59.180591,0
0.089570,-37.677335,167.166361,-150.522160,0.055308,0.498054,-3.644654,2.815515,-0.168955,3.702716,-2.787248,-0.069992,0.379037,-0.061832,4.356688,188.646980,1105.129118,58.242304,0
0.090612,-90.181770,194.336314,-73.531629,1.514298,2.326448,-4.204224,1.513267,-2.017857,4.210515,-1.524213,-0.113828,0.394062,-0.069301,-2.282282,188.496264,1108.095439,57.376533,0
0.091654,-143.729714,172.663172,-6.697349,2.713158,3.267271,-3.640685,0.121466,-3.006634,3.774059,-0.193578,-0.128440,0.399223,-0.020755,-13.252981,188.571614,1109.779302,56.327908,0
0.092695,-181.953941,124.895278,56.529924,3.923328,4.108687,-2.712036,-1.576308,-3.804272,2.829804,1.467936,-0.164970,0.397263,-0.076769,-19.371691,188.496214,1112.345208,54.926029,0
0.093737,-188.010836,48.435236,114.402084,5.054328,4.147740,-1.362718,-2.755421,-3.984384,1.554009,2.638468,-0.190541,0.398896,-0.058098,-23.137921,188.722257,1114.003187,53.383744,0
0.094779,-159.098803,-17.695632,167.817804,6.072228,3.828215,0.073909,-3.714383,-3.569024,0.156510,3.581297,-0.208806,0.407258,-0.054364,-26.282101,188.496250,1116.981851,52.686652,0
0.095820,-107.150150,-78.365932,183.452273,6.388908,2.617570,1.736746,-4.012892,-2.411163,-1.589314,3.887272,-0.227071,0.380474,-0.069301,-23.409361,188.571603,1118.277443,51.220286,0
0.096862,-29.737585,-133.696473,188.795076,6.513318,1.176157,3.109876,-3.886026,-0.977620,-3.016190,3.787653,-0.175929,0.416338,-0.065566,-10.402861,188.495960,1120.967779,50.427289,0
0.097904,37.886403,-167.257224,150.090531,5.789478,-0.346912,3.867876,-2.934526,0.566195,-3.746414,2.948001,-0.208806,0.401117,-0.050629,0.352948,188.722333,1122.665463,49.720301,0
0.098945,89.982508,-195.200355,72.152084,4.296558,-2.246311,4.431414,-1.636010,2.444503,-4.287787,1.638713,-0.190541,0.394781,-0.046895,8.055058,188.496094,1124.931121,48.280124,0
0.099987,143.507768,-172.234556,6.388826,3.086388,-3.180034,3.879781,-0.255403,3.433280,-3.876512,0.332983,-0.139399,0.402424,-0.069301,18.652528,188.571628,1126.036180,46.908042,0
0.101029,182.367175,-124.164639,-56.309091,1.853598,-4.064053,2.963038,1.494610,4.238269,-2.940649,-1.289395,-0.113828,0.400921,-0.065566,24.137878,188.495971,1129.266356,46.237162,0
0.102070,187.233107,-48.356967,-114.489016,0.733908,-4.117307,1.605783,2.748350,4.425733,-1.601904,-2.548873,-0.084604,0.403534,-0.069301,28.650568,188.722291,1132.133896,45.488207,0
0.103112,159.115049,17.641012,-168.077084,-0.283992,-3.719676,0.065972,3.711043,3.988318,-0.107881,-3.537954,-0.037115,0.410720,-0.073035,31.240558,188.496172,1135.843465,44.142547,0
0.104154,106.928204,78.552930,-183.539205,-0.600672,-2.491280,-1.688142,3.983433,2.823106,1.591779,-3.833255,-0.037115,0.407976,-0.069301,25.721278,188.496196,1138.176348,42.699055,0
0.105195,29.810543,134.016360,-189.103599,-0.691152,-1.025015,-3.168424,3.867761,1.290318,3.110982,-3.754983,-0.029809,0.383741,-0.073035,16.017298,188.494098,1141.582564,41.158852,0
0.106237,-37.790760,167.987862,-149.401894,0.066618,0.632965,-3.854989,2.871485,-0.308634,3.891567,-2.790806,-0.051727,0.395173,-0.069301,4.232278,188.692998,1143.966849,39.199029,0
0.107279,-89.739412,196.885385,-70.810985,1.536918,2.514612,-4.370905,1.513267,-2.245754,4.399367,-1.470845,-0.091910,0.394127,-0.050629,-2.847781,188.564312,1147.611562,37.073082,0
0.108320,-143.843139,171.684619,-5.527841,2.814948,3.476738,-3.775617,0.005793,-3.241882,3.866387,-0.061938,-0.150358,0.395695,-0.073035,-13.603591,188.518054,1150.455722,34.857172,0
0.109362,-183.848139,123.844239,56.628409,3.979878,4.346556,-2.779502,-1.729294,-4.057899,2.901147,1.588903,-0.143052,0.395826,-0.069301,-19.925881,188.500589,1154.605300,33.854089,0
0.110404,-187.386999,47.927838,114.919129,5.065638,4.335905,-1.327001,-2.994228,-4.146117,1.533025,2.844823,-0.219765,0.404710,-0.058098,-23.352811,188.646498,1157.820011,32.357643,0
0.111445,-160.244395,-17.441933,168.396402,6.072228,3.977327,0.216778,-3.945728,-3.712378,-0.028144,3.826789,-0.205153,0.406800,-0.050629,-26.530921,188.495787,1162.338385,29.660916,0
