1-Time,2-VGERA,3-VGERB,4-VGERC,5-VN,6-IGERAN,7-IGERBN,8-IGERCN,9-IGERAT,10-IGERBT,11-IGERCT,12-IN,13-IFD,14-IFAULT,15-VFAULT,16-Speed (rad/s),17-Active Power,18-Reactive Power,19-FAULT 
0.000000,-148.799812,181.107724,-1.994697,2.803638,2.745380,-6.434568,3.095367,-2.727277,6.531287,-3.103897,-0.084604,0.597092,-0.043161,13.235038,188.570749,1604.610635,890.300752,0
0.001042,-180.048401,131.092782,66.870834,4.149528,4.907500,-5.966275,0.490871,-4.767318,6.023487,-0.592057,-0.099216,0.591344,-0.043161,7.365148,188.721646,1604.606893,889.969362,0
0.002083,-194.147129,48.604369,121.960796,5.190048,6.118145,-4.668548,-1.785264,-6.175131,4.806446,1.681407,-0.150358,0.603363,-0.054364,-2.406691,188.646328,1604.012004,890.234665,0
0.003125,-161.923085,-20.196379,171.363258,6.151398,6.572580,-2.660445,-4.009161,-6.531678,2.901147,3.734285,-0.194194,0.604147,-0.043161,-6.625321,188.570857,1604.640352,890.818546,0
0.004167,-113.513293,-88.948804,184.178599,6.343668,5.869625,-0.021337,-5.669621,-5.943558,0.223657,5.470514,-0.245336,0.607022,-0.073035,-11.081461,188.570798,1604.729409,890.511384,0
0.005208,-31.178082,-139.652358,190.580114,6.513318,4.325254,2.494746,-6.471865,-4.370337,-2.269178,6.167852,-0.285519,0.607805,-0.050629,-14.791141,188.721630,1605.403067,889.417081,0
0.006250,45.712729,-169.951265,158.991099,5.891268,2.191537,4.546503,-6.102459,-2.337648,-4.380115,6.011307,-0.267254,0.607414,-0.046895,-16.069171,188.646154,1605.329762,888.691737,0
0.007292,102.413889,-193.545271,78.233523,4.387038,-0.517325,6.233151,-5.001705,0.400786,-6.062989,4.876354,-0.219765,0.602710,-0.050629,-15.481051,188.570863,1605.262833,888.339295,0
0.008333,148.339673,-180.473733,1.636932,2.995908,-2.611989,6.586355,-3.229305,2.628291,-6.533018,3.257533,-0.201500,0.600620,-0.050629,-8.785531,188.570953,1604.477809,887.934004,0
0.009375,179.962565,-131.280292,-66.453031,1.683948,-4.781209,6.026785,-0.688242,4.675684,-6.054595,0.806177,-0.146705,0.594087,-0.028224,-2.395381,188.721721,1604.968665,888.623514,0
0.010417,193.675648,-49.468410,-122.010796,0.609498,-5.974103,4.792556,1.669984,6.054090,-4.850144,-1.485076,-0.095563,0.602645,-0.073035,7.591348,188.646270,1604.056825,888.383416,0
0.011458,161.916646,19.718927,-171.548675,-0.329232,-6.396586,2.812232,3.882686,6.410638,-2.919666,-3.598437,-0.062686,0.611464,-0.031958,10.667668,188.570930,1605.627489,888.637459,0
0.012500,113.098524,89.401582,-184.142425,-0.544122,-5.746885,0.161218,5.494638,5.804139,-0.279946,-5.299088,-0.026156,0.610941,-0.080503,16.085158,188.570852,1604.819068,888.084749,0
0.013542,29.799201,139.863518,-190.728599,-0.679842,-4.248668,-2.338990,6.289420,4.297081,2.204496,-6.014215,0.014027,0.598399,-0.050629,19.602568,188.721748,1604.643636,888.940892,0
0.014583,-47.341145,170.319477,-158.794887,-0.114342,-2.136252,-4.351062,6.017030,2.212931,4.349006,-5.825649,0.017680,0.614403,-0.050629,20.597848,188.646056,1603.534412,889.100785,0
0.015625,-103.225645,193.369842,-77.901894,1.401198,0.554859,-6.069458,4.897619,-0.459339,6.006700,-4.772527,-0.059033,0.599444,-0.024490,20.835358,188.570904,1602.659803,890.409046,0
0.016667,-149.106060,180.805702,-1.982386,2.848878,2.674375,-6.474254,3.143875,-2.708898,6.535483,-3.164380,-0.059033,0.600358,-0.080503,12.703468,188.570799,1602.493442,891.394523,0
0.017708,-180.037059,131.527694,66.686174,4.126908,4.840045,-5.978181,0.535648,-4.723209,6.044470,-0.659656,-0.102869,0.597353,-0.043161,6.709168,188.721665,1602.048819,892.327790,0
0.018750,-194.090417,50.054077,122.391667,5.223978,6.100393,-4.664580,-1.718100,-6.127346,4.881986,1.613808,-0.150358,0.601077,-0.058098,-1.886432,188.570971,1601.689061,893.440740,0
0.019792,-161.764290,-20.413836,171.350947,6.162708,6.526427,-2.696162,-3.986773,-6.483894,2.896951,3.712938,-0.212459,0.608263,-0.058098,-6.071131,188.570906,1600.882686,893.269751,0
0.020833,-112.719318,-89.709901,184.387879,6.354978,5.844773,-0.076897,-5.639770,-5.888422,0.278214,5.420704,-0.256295,0.589318,-0.065566,-10.866571,188.571002,1599.385252,893.831137,0
0.021875,-28.648704,-139.845653,190.567804,6.490698,4.367858,2.399499,-6.382312,-4.436501,-2.202031,6.146505,-0.256295,0.621328,-0.065566,-14.904241,188.721771,1598.020801,895.864283,0
0.022917,47.096514,-170.241207,158.855682,5.936508,2.294495,4.486975,-6.106191,-2.330296,-4.312968,6.032654,-0.219765,0.594544,-0.065566,-15.695941,188.570830,1597.306436,896.824873,0
0.023958,103.139809,-192.904983,78.775190,4.409658,-0.417917,6.205371,-5.009168,0.319920,-6.008432,4.929721,-0.267254,0.604017,-0.054364,-15.413191,188.570850,1596.346974,898.208496,0
0.025000,149.303786,-180.485814,2.621780,2.973288,-2.523232,6.554607,-3.281544,2.510667,-6.541412,3.282438,-0.197847,0.607414,-0.035692,-8.943871,188.646259,1595.652178,899.357472,0
0.026042,179.985250,-131.086997,-66.957765,1.661328,-4.717304,6.050597,-0.691973,4.594817,-6.042005,0.809735,-0.164970,0.596308,-0.069301,-2.813851,188.721574,1594.503964,899.696292,0
0.027083,193.675648,-48.284481,-122.540152,0.598188,-5.945701,4.776681,1.606551,5.954845,-4.854341,-1.470845,-0.088257,0.605584,-0.061832,8.077678,188.570779,1592.941145,900.164201,0
0.028125,161.122671,22.086785,-171.327084,-0.363162,-6.364633,2.820169,3.811790,6.359177,-2.877699,-3.516607,-0.084604,0.601992,-0.050629,10.758148,188.495604,1590.796826,900.576469,0
0.029167,111.589972,90.609672,-184.093182,-0.566742,-5.761086,0.173124,5.520758,5.807815,-0.271552,-5.256394,-0.022503,0.594283,-0.050629,16.153018,188.646281,1589.760238,901.290572,0
0.030208,28.948513,140.503806,-190.285417,-0.736392,-4.255768,-2.291367,6.296883,4.271351,2.124759,-6.021331,0.021333,0.607871,-0.028224,19.636498,188.721748,1588.744299,902.110297,0
0.031250,-46.592540,170.524852,-158.696402,-0.103032,-2.139802,-4.386779,5.961060,2.260716,4.357400,-5.864786,-0.004238,0.608655,-0.050629,20.744878,188.570845,1589.206447,902.739977,0
0.032292,-103.407125,193.418165,-78.209659,1.389888,0.597462,-6.057553,4.856574,-0.451988,5.985717,-4.751180,-0.011544,0.602057,-0.046895,20.597848,188.495387,1588.909795,902.570066,0
0.033333,-149.582445,180.201656,-1.477652,2.826258,2.745380,-6.410757,3.128950,-2.686844,6.510303,-3.111012,-0.051727,0.601404,-0.050629,13.133248,188.646255,1588.121167,902.261497,0
0.034375,-180.468074,130.259199,67.744887,4.126908,4.900399,-5.930558,0.561767,-4.708506,6.015093,-0.602730,-0.117481,0.590233,-0.050629,7.184188,188.646310,1587.531801,902.070142,0
0.035417,-193.659402,47.505007,122.748675,5.235288,6.111044,-4.668548,-1.751682,-6.105291,4.814839,1.652945,-0.157664,0.576645,-0.039427,-2.565031,188.570870,1586.446183,901.670344,0
0.036458,-161.355960,-21.682331,171.560228,6.094848,6.529977,-2.708068,-3.968116,-6.505948,2.922131,3.723611,-0.245336,0.605323,-0.058098,-6.783661,188.546349,1586.418142,902.596440,0
0.037500,-112.549181,-90.301865,183.796970,6.377598,5.873176,-0.076897,-5.650964,-5.936207,0.278214,5.431378,-0.270907,0.606368,-0.017021,-11.126701,188.703064,1586.591386,903.216129,0
0.038542,-30.100545,-140.377212,190.358523,6.479388,4.346556,2.443154,-6.438283,-4.418122,-2.214621,6.196315,-0.270907,0.602253,-0.046895,-14.825071,188.646272,1587.623014,902.869450,0
0.039583,46.438649,-169.987508,158.535607,5.879958,2.269643,4.475069,-6.094997,-2.363378,-4.317164,6.036212,-0.241683,0.604278,-0.061832,-16.091791,188.585562,1587.530045,902.975007,0
0.040625,103.400686,-193.750646,77.334849,4.353108,-0.442769,6.213309,-5.031556,0.330947,-6.029415,4.901259,-0.227071,0.598595,-0.035692,-15.514981,188.520400,1587.578118,903.164584,0
0.041667,149.054251,-179.640150,0.578220,2.950668,-2.576487,6.590324,-3.281544,2.551100,-6.524625,3.282438,-0.201500,0.602057,-0.031958,-8.717671,188.648565,1587.018077,903.375283,0
0.042708,180.121360,-130.084282,-67.684091,1.683948,-4.710204,6.114094,-0.718093,4.620547,-6.046202,0.831082,-0.154011,0.593042,-0.043161,-2.180492,188.646464,1586.881973,904.048408,0
0.043750,193.142550,-48.054944,-122.983334,0.632118,-5.952801,4.844147,1.550580,6.039387,-4.829161,-1.421035,-0.124787,0.590168,-0.054364,7.738378,188.571143,1587.145935,904.559613,0
0.044792,161.338179,21.096151,-171.844129,-0.317922,-6.393036,2.828107,3.793134,6.362853,-2.957436,-3.516607,-0.088257,0.601338,-0.035692,10.803388,188.495651,1587.481473,905.322254,0
0.045833,112.554084,90.476782,-183.785417,-0.578052,-5.764636,0.188998,5.487176,5.826193,-0.296733,-5.270625,-0.022503,0.608263,-0.054364,16.153018,188.571134,1587.889840,905.485516,0
0.046875,29.186706,140.733343,-190.297728,-0.702462,-4.284170,-2.279461,6.248375,4.337515,2.179316,-5.975079,0.014027,0.607152,-0.065566,19.647808,188.570343,1588.114372,905.668905,0
0.047917,-47.840215,170.234911,-158.179357,-0.114342,-2.168205,-4.299470,5.968522,2.282770,4.269269,-5.839881,-0.004238,0.572203,-0.013287,20.541298,188.571038,1586.390307,906.477579,0
0.048958,-104.121703,193.551055,-76.596970,1.457748,0.522906,-6.001992,4.875231,-0.422582,5.968930,-4.751180,-0.033462,0.601926,-0.043161,20.846668,188.495665,1585.563522,907.435508,0
0.050000,-149.503047,180.020443,-0.677462,2.882808,2.624671,-6.478223,3.203577,-2.613329,6.522893,-3.164380,-0.084604,0.599770,-0.024490,12.590368,188.646458,1584.763625,908.864909,0
0.051042,-180.309279,130.573303,67.794129,4.160838,4.804542,-5.958338,0.572961,-4.708506,6.019290,-0.698792,-0.110175,0.595328,-0.061832,6.618688,188.646379,1584.480956,909.930521,0
0.052083,-193.648059,49.027201,123.265720,5.201358,6.032938,-4.712203,-1.669592,-6.057507,4.890380,1.574672,-0.143052,0.601142,-0.020755,-1.942982,188.571136,1584.073239,911.157649,0
0.053125,-161.412673,-21.114528,171.732576,6.128778,6.466072,-2.688225,-3.938265,-6.476542,2.917934,3.691591,-0.230724,0.609177,-0.035692,-6.195541,188.495705,1583.600334,910.923484,0
0.054167,-112.084138,-90.821344,183.969319,6.343668,5.866075,-0.120551,-5.632307,-5.910477,0.366345,5.381568,-0.238030,0.608001,-0.065566,-10.979671,188.646493,1582.222623,911.959727,0
0.055208,-27.832044,-140.558426,190.235417,6.535938,4.357207,2.375688,-6.344998,-4.344607,-2.122294,6.118042,-0.292825,0.564103,-0.054364,-14.960791,188.571181,1579.676049,912.230190,0
0.056250,48.389559,-170.059994,158.043182,5.891268,2.308696,4.431414,-6.128579,-2.363378,-4.250017,6.004191,-0.256295,0.585007,-0.050629,-15.639391,188.571194,1578.187777,913.018096,0
0.057292,104.285401,-193.231167,77.297917,4.364418,-0.350462,6.157748,-5.050213,0.268459,-5.974858,4.904816,-0.238030,0.604801,-0.076769,-15.447121,188.495720,1576.953008,913.889222,0
0.058333,149.734801,-179.579746,1.563068,2.984598,-2.555185,6.574450,-3.315126,2.481261,-6.562395,3.350037,-0.205153,0.606107,-0.076769,-8.842081,188.721862,1576.986035,915.293194,0
0.059375,180.325525,-130.458790,-67.659470,1.627398,-4.688902,6.066471,-0.691973,4.602169,-6.042005,0.859545,-0.150358,0.599705,-0.058098,-2.757301,188.571002,1576.830092,915.617575,0
0.060417,193.199263,-47.958297,-123.377273,0.609498,-5.935050,4.808430,1.565506,5.965872,-4.892111,-1.435266,-0.110175,0.600816,-0.058098,8.134228,188.571103,1576.347241,916.211604,0
0.061458,160.748369,22.968691,-171.831819,-0.329232,-6.357533,2.840012,3.793134,6.403286,-2.932256,-3.555743,-0.055380,0.559400,-0.009553,10.905178,188.495691,1576.625649,916.667351,0
0.062500,110.784654,91.902329,-183.834660,-0.555432,-5.725583,0.208841,5.464787,5.833545,-0.296733,-5.235047,-0.040768,0.598725,-0.069301,16.198258,188.722009,1575.580408,917.645355,0
0.063542,27.292508,141.373631,-190.063826,-0.691152,-4.301922,-2.315178,6.274495,4.311784,2.158333,-5.999984,0.006721,0.596896,-0.039427,19.715668,188.495750,1575.092806,918.395081,0
0.064583,-47.976325,170.464448,-157.908523,-0.069102,-2.154004,-4.311376,5.987179,2.264392,4.315433,-5.871901,-0.000585,0.609439,-0.002084,20.722258,188.571183,1575.893334,918.419957,0
0.065625,-104.518690,193.840997,-76.892424,1.446438,0.512255,-6.033741,4.878962,-0.407879,6.044470,-4.772527,-0.051727,0.606630,-0.084238,20.643088,188.495591,1577.008853,919.017070,0
0.066667,-150.455817,179.186860,-0.677462,2.826258,2.677925,-6.422662,3.151338,-2.628032,6.556467,-3.150149,-0.088257,0.604278,-0.028224,13.065388,188.722052,1577.319460,919.262396,0
0.067708,-181.250706,129.449779,68.582008,4.115598,4.896849,-5.910715,0.558036,-4.719534,6.027683,-0.641867,-0.088257,0.594087,-0.054364,6.980608,188.495732,1577.541018,919.373165,0
0.068750,-193.001537,46.490211,123.684281,5.190048,6.061340,-4.656643,-1.766608,-6.079561,4.823233,1.631597,-0.175929,0.582525,-0.020755,-2.757301,188.571103,1577.040762,918.903726,0
0.069792,-160.902260,-23.337414,171.880304,6.174018,6.515776,-2.712036,-4.009161,-6.498597,2.880164,3.727169,-0.186888,0.607218,-0.058098,-6.975931,188.495727,1577.121357,919.285941,0
0.070833,-111.188081,-91.811978,183.452273,6.366288,5.866075,-0.041180,-5.650964,-5.917828,0.299198,5.445609,-0.252642,0.596439,-0.043161,-11.228491,188.721951,1577.794236,919.059310,0
0.071875,-28.569307,-141.271199,190.161554,6.513318,4.378508,2.435217,-6.404700,-4.403419,-2.197834,6.182083,-0.259948,0.610092,-0.039427,-14.915551,188.493226,1579.618709,919.479719,0
0.072917,47.629611,-169.999589,157.686175,5.891268,2.251892,4.490943,-6.121116,-2.385432,-4.333951,6.011307,-0.292825,0.610418,-0.058098,-15.978691,188.571060,1580.545401,919.225417,0
0.073958,104.194661,-194.294287,76.189962,4.341798,-0.442769,6.181560,-4.983048,0.353002,-5.979055,4.936837,-0.241683,0.604996,-0.024490,-15.469741,188.495707,1581.376861,919.155703,0
0.075000,149.893596,-178.564950,-0.209659,2.905428,-2.565836,6.562544,-3.259156,2.547424,-6.512035,3.261091,-0.201500,0.602906,-0.058098,-8.593261,188.706483,1580.712037,917.994679,0
0.076042,180.892650,-128.670816,-68.804356,1.661328,-4.781209,6.062502,-0.725555,4.653629,-6.062989,0.809735,-0.164970,0.591474,-0.028224,-1.886432,188.496206,1581.092693,918.340365,0
0.077091,191.951588,-45.530035,-124.571402,0.598188,-5.949251,4.796524,1.610282,5.976899,-4.816571,-1.460171,-0.132093,0.602971,-0.073035,7.919338,188.571471,1580.065525,918.214364,0
0.078138,160.725684,24.551289,-172.890531,-0.329232,-6.414337,2.784452,3.916269,6.384907,-2.865109,-3.587764,-0.044421,0.608197,-0.028224,11.040898,188.496192,1580.269697,918.035686,0
0.079168,111.487889,92.143947,-183.403788,-0.578052,-5.750435,0.192967,5.483444,5.793112,-0.326109,-5.252836,-0.044421,0.604147,-0.061832,16.277428,188.646994,1580.166320,917.831637,0
0.080208,28.415416,141.554844,-190.223864,-0.736392,-4.248668,-2.303272,6.293151,4.264000,2.183513,-5.999984,-0.015197,0.605650,-0.043161,19.693048,188.496132,1580.684009,916.830708,0
0.081250,-48.815670,170.246991,-157.342235,-0.114342,-2.161104,-4.311376,5.975985,2.268067,4.319629,-5.811418,0.024986,0.601665,-0.024490,20.496058,188.571485,1579.793651,916.672693,0
0.082292,-104.847623,194.626256,-74.959659,1.480368,0.590362,-6.069458,4.878962,-0.459339,5.964733,-4.736948,-0.022503,0.601142,-0.028224,20.925838,188.496221,1578.709134,916.406594,0
0.083333,-150.251652,178.836514,0.762879,2.928048,2.649523,-6.462348,3.158801,-2.631708,6.543877,-3.114570,-0.059033,0.599770,-0.043161,12.443338,188.722496,1578.137574,916.278112,0
0.084375,-181.193994,129.002785,68.963637,4.183458,4.836494,-5.954369,0.599081,-4.708506,6.061257,-0.702350,-0.135746,0.597680,-0.046895,6.335938,188.496210,1577.808617,917.489988,0
0.085417,-192.967509,47.456683,124.336743,5.201358,6.025838,-4.680454,-1.691980,-6.090588,4.865200,1.592461,-0.150358,0.591017,-0.028224,-2.078702,188.571542,1578.108704,918.318303,0
0.086458,-161.219850,-22.286376,172.360417,6.117468,6.529977,-2.692194,-3.956922,-6.505948,2.943114,3.744958,-0.212459,0.616232,-0.005818,-6.387811,188.496143,1578.728626,918.779011,0
0.087500,-111.517013,-92.029435,183.636932,6.343668,5.862525,-0.061022,-5.587530,-5.932531,0.282411,5.452725,-0.270907,0.602775,-0.054364,-11.092771,188.722382,1579.180753,918.812875,0
0.088542,-27.015384,-141.573222,190.333902,6.490698,4.350106,2.423311,-6.404700,-4.374013,-2.202031,6.160736,-0.270907,0.585726,-0.035692,-15.039961,188.496212,1578.593049,918.932991,0
0.089583,49.569179,-170.072074,157.169129,5.913888,2.276744,4.471100,-6.121116,-2.352351,-4.321361,6.029096,-0.263601,0.591082,-0.017021,-15.594151,188.496159,1578.245959,919.540282,0
0.090625,104.852526,-194.451339,75.229735,4.398348,-0.417917,6.233151,-5.039019,0.341974,-5.991645,4.926164,-0.274560,0.604474,-0.028224,-15.481051,188.496219,1578.041754,920.059677,0
0.091667,150.460721,-178.395817,0.196591,2.961978,-2.509031,6.566513,-3.307663,2.510667,-6.545608,3.325132,-0.212459,0.605192,-0.050629,-8.706361,188.722357,1578.170967,921.328510,0
0.092708,181.403062,-129.009082,-68.582765,1.650018,-4.756357,6.126000,-0.688242,4.646278,-6.012628,0.806177,-0.146705,0.603559,-0.069301,-2.395381,188.571563,1578.007855,920.850133,0
0.093750,192.280520,-47.173038,-124.386743,0.552948,-5.920849,4.800493,1.580431,6.013657,-4.862734,-1.424593,-0.084604,0.604017,-0.043161,8.190778,188.496038,1578.912676,921.312866,0
0.094792,160.702999,23.886839,-172.496591,-0.351852,-6.396586,2.772546,3.871492,6.399610,-2.898682,-3.562859,-0.051727,0.607087,-0.020755,11.074828,188.496295,1578.764300,921.573736,0
0.095833,109.775172,93.376199,-183.477652,-0.566742,-5.718483,0.181061,5.528221,5.833545,-0.254766,-5.274183,-0.000585,0.585268,-0.039427,16.288738,188.646699,1579.054888,922.013628,0
0.096875,25.602475,142.267618,-190.260796,-0.691152,-4.238017,-2.307241,6.289420,4.245621,2.217086,-6.010657,0.021333,0.608524,-0.069301,19.828768,188.571543,1578.787491,922.691588,0
0.097917,-49.496220,170.476529,-156.763637,-0.069102,-2.164654,-4.370905,5.998373,2.205580,4.319629,-5.846996,-0.007891,0.602841,-0.084238,20.631778,188.496183,1579.012268,922.637281,0
0.098958,-105.029103,195.206139,-74.922728,1.491678,0.579711,-6.113113,4.875231,-0.459339,6.027683,-4.772527,-0.004238,0.606826,-0.065566,20.710948,188.496156,1580.150052,923.279429,0
0.100000,-151.272477,177.857961,-0.160417,2.882808,2.702777,-6.474254,3.072979,-2.679492,6.501910,-3.103897,-0.069992,0.603886,-0.058098,12.963598,188.646953,1580.128450,922.653689,0
0.101042,-182.407641,128.314174,69.283712,4.172148,4.907500,-5.914684,0.502065,-4.789373,6.019290,-0.584941,-0.128440,0.594740,-0.024490,6.731788,188.571529,1581.312410,921.304990,0
0.102083,-192.400384,45.729114,124.570644,5.223978,6.061340,-4.601082,-1.770339,-6.094264,4.756086,1.670734,-0.179582,0.591866,-0.061832,-2.836471,188.496130,1580.895171,919.849873,0
0.103125,-160.720780,-25.089145,172.261932,6.106158,6.537078,-2.592979,-4.050206,-6.443460,2.821410,3.791210,-0.212459,0.574555,-0.061832,-7.224751,188.496203,1580.217628,918.754279,0
0.104167,-109.815638,-93.370415,183.255304,6.366288,5.848324,-0.001494,-5.639770,-5.866368,0.215264,5.459841,-0.259948,0.597223,-0.043161,-11.285041,188.647107,1579.481400,918.140829,0
0.105208,-26.573027,-142.201429,190.383145,6.524628,4.371408,2.478871,-6.449477,-4.370337,-2.243998,6.217662,-0.259948,0.607544,-0.054364,-15.006031,188.571533,1580.493799,918.386476,0
0.106250,48.820574,-170.084155,156.639773,5.902578,2.198638,4.526660,-6.065146,-2.322945,-4.346541,5.997075,-0.270907,0.611790,-0.061832,-15.922141,188.496244,1580.479040,917.470290,0
0.107292,104.739101,-195.526539,74.269508,4.330488,-0.481822,6.245057,-4.964392,0.415489,-6.050398,4.915490,-0.216112,0.602253,-0.054364,-15.514981,188.571596,1581.721139,917.066955,0
0.108333,150.812338,-177.163565,-0.837500,2.905428,-2.590688,6.538732,-3.150946,2.595209,-6.520428,3.232628,-0.216112,0.597811,-0.035692,-8.412301,188.647070,1581.606606,915.713053,0
0.109375,182.026900,-127.341917,-69.567614,1.582158,-4.802511,6.042659,-0.621077,4.679359,-5.983251,0.788388,-0.161317,0.588992,-0.028224,-1.524512,188.571672,1581.340662,915.944960,0
0.110417,191.622655,-44.744776,-124.743750,0.598188,-5.959902,4.744933,1.643865,5.998954,-4.774604,-1.474403,-0.088257,0.596374,-0.046895,7.941958,188.496073,1580.330151,915.167249,0
