1-Time,2-VGERA,3-VGERB,4-VGERC,5-VN,6-IGERAN,7-IGERBN,8-IGERCN,9-IGERAT,10-IGERBT,11-IGERCT,12-IN,13-IFD,14-IFAULT,15-VFAULT,16-Speed (rad/s),17-Active Power,18-Reactive Power,19-FAULT 
0.000000,-144.194757,171.974561,-6.278788,2.837568,3.572595,-3.779586,-0.158387,-3.326424,3.883173,0.012777,-0.139399,0.396348,-0.020755,49.359177,188.550698,1205.837060,1.574812,0
0.001042,-186.547654,123.457650,58.019508,4.036428,4.350106,-2.815220,-1.744219,-4.168171,2.938918,1.617366,-0.164970,0.395499,-0.050629,114.323816,188.549587,1207.192855,1.140812,0
0.002083,-188.532591,47.686220,112.974053,5.065638,4.318154,-1.172226,-3.139752,-4.171847,1.306404,2.976464,-0.175929,0.402293,-0.058098,157.991725,188.475817,1208.560755,0.076789,0
0.003125,-160.233053,-18.577538,168.027084,6.117468,3.980877,0.343773,-4.158416,-3.756487,-0.162438,4.015355,-0.227071,0.394127,-0.050629,187.488204,188.545144,1209.735072,-0.291296,0
0.004167,-107.218205,-79.489456,186.813069,6.445458,2.614020,2.006610,-4.270357,-2.521435,-1.803345,4.090070,-0.197847,0.410981,-0.073035,182.986824,188.553267,1211.267225,-0.695534,0
0.005208,-30.123230,-134.240113,189.915341,6.581178,1.080300,3.510703,-4.147222,-0.904105,-3.381302,4.022470,-0.179582,0.404449,-0.054364,156.453565,188.549898,1212.846688,-0.686362,0
0.006250,37.670896,-169.770052,150.016667,5.800788,-0.520876,4.133771,-3.139752,0.639710,-4.094740,3.093872,-0.186888,0.413006,-0.058098,103.534076,188.486310,1213.555880,-0.914701,0
0.007292,89.585521,-199.839422,74.306440,4.353108,-2.402523,4.459194,-1.583770,2.532721,-4.434672,1.567556,-0.161317,0.400464,-0.046895,30.200038,188.552839,1213.855853,-1.400115,0
0.008338,144.460538,-171.207679,7.090530,3.041148,-3.524411,3.891687,0.046838,3.646474,-3.931069,0.059029,-0.135746,0.397982,-0.058098,-43.722121,188.506192,1214.070171,-1.873951,0
0.009376,186.518530,-124.188801,-57.244697,1.830978,-4.269969,2.919384,1.610282,4.455139,-2.953239,-1.495750,-0.091910,0.398961,-0.050629,-109.308809,188.491505,1214.287566,-2.188570,0
0.010417,188.083795,-49.226792,-113.110228,0.824388,-4.220265,1.304170,2.931187,4.484545,-1.408856,-2.847732,-0.091910,0.403991,-0.061832,-153.858898,188.495423,1215.027545,-2.408856,0
0.011459,160.056476,17.556446,-168.335607,-0.103032,-3.907841,-0.207860,4.005822,4.080212,0.085166,-3.858160,-0.007891,0.415162,-0.039427,-184.610788,188.502936,1215.549461,-2.210386,0
0.012500,107.404589,79.458998,-186.739963,-0.510192,-2.533883,-1.842917,4.128957,2.823106,1.709287,-3.996916,-0.048074,0.407650,-0.058098,-178.559938,188.496760,1215.271526,-1.656327,0
0.013542,29.606378,134.584163,-189.903788,-0.589362,-1.039216,-3.382727,3.979702,1.209451,3.295636,-3.947106,-0.033462,0.402489,-0.039427,-151.653448,188.501226,1215.324108,-1.431290,0
0.014584,-38.607420,169.727513,-150.029735,0.123168,0.601012,-4.021669,2.990889,-0.345391,4.025861,-2.943794,-0.055380,0.395826,-0.046895,-102.206129,188.493490,1214.624814,-1.839864,0
0.015625,-89.977605,200.159310,-72.928409,1.593468,2.496861,-4.327250,1.427445,-2.223699,4.365793,-1.517097,-0.073645,0.393735,-0.013287,-25.750531,188.499735,1214.716586,-1.505885,0
0.016667,-143.945222,172.119532,-6.180303,2.826258,3.554844,-3.811334,-0.121073,-3.333776,3.853797,-0.012128,-0.117481,0.390600,-0.009553,49.494897,188.503668,1214.481230,-1.448214,0
0.017709,-186.570339,123.542217,57.859470,3.979878,4.328805,-2.815220,-1.755413,-4.127738,2.901147,1.596019,-0.143052,0.391972,-0.061832,113.362466,188.447409,1213.659881,-1.495697,0
0.018750,-188.725414,48.386913,112.789394,5.076948,4.279101,-1.188100,-3.124826,-4.113035,1.360961,2.930211,-0.190541,0.392429,-0.031958,157.019065,188.664416,1212.915536,-0.816294,0
0.019792,-160.267080,-17.756037,168.199432,6.094848,3.956025,0.300119,-4.121102,-3.782217,-0.200209,3.944198,-0.194194,0.407584,-0.043161,187.476894,188.655726,1212.487227,-0.928424,0
0.020834,-108.080235,-79.030382,186.702273,6.445458,2.635322,1.919301,-4.236774,-2.543490,-1.757182,4.122090,-0.252642,0.414313,-0.050629,181.493904,188.591399,1212.832168,-0.566628,0
0.021875,-31.030630,-134.228032,189.792235,6.569868,1.112252,3.471017,-4.124833,-0.944538,-3.347728,3.969103,-0.208806,0.409675,-0.035692,157.313125,188.591301,1212.070380,-0.281038,0
0.022917,37.160483,-169.685486,150.435228,5.812098,-0.506674,4.129802,-3.136020,0.628683,-4.044379,3.118777,-0.175929,0.409740,-0.035692,103.850756,188.665856,1211.749256,-0.000458,0
0.023959,89.630891,-199.537399,74.774243,4.364418,-2.338618,4.435383,-1.621084,2.495964,-4.380115,1.603135,-0.172276,0.404187,-0.058098,30.641128,188.586632,1211.044795,0.592988,0
0.025000,143.938783,-172.029181,7.792235,3.131628,-3.446305,3.891687,-0.031521,3.639122,-3.918479,0.158649,-0.143052,0.400921,-0.073035,-42.444091,188.584263,1211.019360,1.384743,0
0.026042,186.257652,-123.753889,-57.096970,1.887528,-4.273520,2.907478,1.539386,4.455139,-2.982616,-1.492192,-0.110175,0.401640,-0.054364,-108.358769,188.587790,1211.068221,1.716922,0
0.027084,188.333330,-48.501937,-112.630114,0.801768,-4.227366,1.320045,2.975964,4.455139,-1.400463,-2.833500,-0.073645,0.400856,-0.050629,-151.257598,188.651196,1210.505295,1.777777,0
0.028125,159.761571,18.269219,-168.126326,-0.238752,-3.911391,-0.188017,4.031941,4.039779,0.143920,-3.847487,-0.066339,0.412876,-0.061832,-182.620228,188.700091,1209.933283,1.109122,0
0.029167,106.894176,79.555645,-186.863069,-0.611982,-2.530333,-1.870697,4.147614,2.790024,1.734467,-3.989800,-0.048074,0.420257,-0.054364,-176.671168,188.623074,1209.718450,0.673712,0
0.030218,28.245278,135.321098,-189.608334,-0.623292,-0.975311,-3.422413,3.998359,1.235182,3.362784,-3.925759,-0.018850,0.360812,-0.054364,-150.262318,188.703259,1210.118263,0.898791,0
0.031250,-38.369227,170.029535,-149.918940,0.123168,0.615214,-4.069292,2.968501,-0.363770,4.072025,-2.997161,-0.069992,0.397328,-0.050629,-98.982779,188.628641,1211.193629,0.911187,0
0.032292,-89.728070,200.123067,-73.457765,1.548228,2.486210,-4.362967,1.431176,-2.220024,4.382580,-1.442382,-0.110175,0.395499,-0.046895,-23.692111,188.627975,1210.978517,-0.011976,0
0.033333,-144.183415,172.095370,-6.672727,2.781018,3.583246,-3.755774,-0.177044,-3.359506,3.883173,0.027009,-0.168623,0.394127,-0.046895,49.427037,188.697883,1211.543953,-0.575911,0
0.034375,-186.729134,123.892563,57.453220,3.991188,4.389159,-2.807282,-1.785264,-4.157144,2.905344,1.660060,-0.164970,0.396675,-0.054364,114.154166,188.703833,1212.212106,-1.489085,0
0.035417,-188.646016,49.027201,113.035606,5.076948,4.311053,-1.192069,-3.150946,-4.197577,1.377748,2.987137,-0.190541,0.403861,-0.061832,157.867315,188.623079,1213.761101,-1.757186,0
0.036459,-160.686753,-17.139911,168.322538,6.140088,3.995078,0.284244,-4.162147,-3.822651,-0.183422,3.937082,-0.223418,0.412418,-0.065566,187.804884,188.624540,1214.190450,-1.484287,0
0.037500,-108.148290,-78.704197,186.862311,6.524628,2.621121,1.974861,-4.337521,-2.510408,-1.782362,4.129206,-0.230724,0.412810,-0.035692,183.518394,188.699698,1214.200784,-2.164267,0
0.038542,-31.314192,-134.252194,189.915341,6.615108,1.066099,3.486891,-4.191998,-0.926160,-3.427465,3.994008,-0.216112,0.408172,-0.046895,157.064305,188.625266,1215.193701,-2.977094,0
0.039583,37.217196,-171.062709,149.918182,5.823408,-0.552828,4.165519,-3.169603,0.643386,-4.111526,3.093872,-0.205153,0.408630,-0.017021,103.929926,188.629942,1216.006090,-3.349907,0
0.040625,89.472096,-199.960231,74.257197,4.409658,-2.409624,4.502849,-1.561382,2.514343,-4.459852,1.603135,-0.175929,0.399223,-0.035692,30.697678,188.632094,1217.093520,-3.383765,0
0.041667,143.575823,-171.618430,7.201326,3.131628,-3.460506,3.931373,-0.042715,3.668528,-3.914282,0.051913,-0.161317,0.395499,-0.009553,-42.704221,188.704965,1217.051530,-4.716827,0
0.042709,186.110200,-123.391461,-57.417046,1.921458,-4.326774,2.935258,1.580431,4.440436,-2.965829,-1.513539,-0.095563,0.395761,-0.028224,-109.105229,188.639256,1216.760174,-4.927165,0
0.043750,188.038425,-47.680436,-112.383902,0.847008,-4.216715,1.268453,3.009546,4.495572,-1.371086,-2.876194,-0.080951,0.381324,-0.039427,-153.530908,188.645020,1217.241138,-5.377175,0
0.044792,159.829626,18.716212,-167.855493,-0.193512,-3.904291,-0.195954,4.002090,4.105942,0.089363,-3.897296,-0.066339,0.396087,-0.050629,-184.033978,188.640812,1218.325863,-4.506994,0
0.045834,107.075656,79.446917,-186.752273,-0.566742,-2.530333,-1.866728,4.132688,2.786348,1.713483,-4.000474,-0.066339,0.390339,-0.073035,-178.299808,188.650993,1218.305669,-4.398834,0
0.046875,29.719803,134.209655,-189.965341,-0.657222,-0.978861,-3.390664,3.972239,1.172694,3.341800,-3.879507,-0.051727,0.416273,-0.035692,-151.348078,188.648441,1217.408015,-5.753500,0
0.047917,-37.960897,169.703351,-150.214394,0.100548,0.647166,-4.057386,2.990889,-0.407879,4.009074,-2.958025,-0.069992,0.404383,-0.020755,-102.206129,188.636520,1216.401600,-6.523681,0
0.048959,-89.614645,200.002258,-74.097917,1.525608,2.479110,-4.366936,1.419982,-2.197969,4.361596,-1.488634,-0.106522,0.396871,-0.061832,-26.327341,188.578354,1216.281282,-6.017376,0
0.050000,-144.138045,172.288664,-7.349811,2.814948,3.558394,-3.791491,-0.162119,-3.352155,3.849600,0.002104,-0.135746,0.396022,-0.050629,48.861537,188.645330,1215.920333,-6.057933,0
0.051042,-186.717791,124.230828,57.145455,4.013808,4.385609,-2.819188,-1.744219,-4.175523,2.947311,1.613808,-0.183235,0.398047,-0.017021,112.729106,188.639464,1216.308976,-5.357706,0
0.052083,-188.827496,49.909107,112.752462,5.110878,4.296852,-1.227786,-3.102438,-4.171847,1.365158,2.919538,-0.219765,0.402097,-0.065566,156.815485,188.641297,1215.527110,-5.228882,0
0.053125,-160.380505,-16.523785,168.297917,6.140088,3.980877,0.315993,-4.165878,-3.774866,-0.183422,3.944198,-0.227071,0.412026,-0.039427,187.748334,188.580903,1215.045804,-5.691312,0
0.054167,-108.239030,-78.704197,186.776137,6.422838,2.656624,1.962955,-4.303939,-2.521435,-1.769772,4.097185,-0.241683,0.413398,-0.065566,181.901064,188.587540,1214.669323,-5.445959,0
0.055209,-30.474847,-134.058900,189.939963,6.524628,1.105152,3.506734,-4.173341,-0.918808,-3.372908,3.994008,-0.230724,0.406147,-0.039427,157.528015,188.590660,1214.077135,-4.922109,0
0.056250,37.807006,-169.576757,150.312122,5.846028,-0.506674,4.149645,-3.165871,0.625007,-4.094740,3.115220,-0.186888,0.404710,-0.058098,103.952546,188.668847,1213.760705,-4.531967,0
0.057292,89.483438,-199.996474,73.974053,4.398348,-2.384772,4.455226,-1.628547,2.514343,-4.380115,1.592461,-0.146705,0.395891,-0.031958,30.561958,188.592828,1212.755847,-4.638906,0
0.058334,143.417028,-172.222475,6.770455,3.109008,-3.464056,3.919467,-0.024058,3.664852,-3.935265,0.105281,-0.128440,0.393605,-0.058098,-42.907801,188.518615,1213.101091,-3.860585,0
0.059375,186.087515,-123.306895,-57.392424,1.864908,-4.277070,2.911447,1.595357,4.473517,-2.949042,-1.509981,-0.113828,0.392756,-0.043161,-108.822479,188.584917,1213.310142,-4.042896,0
0.060417,188.412728,-47.922054,-112.285417,0.835698,-4.269969,1.304170,2.990889,4.491896,-1.434036,-2.854847,-0.069992,0.388901,-0.065566,-151.155808,188.668349,1213.445369,-3.254980,0
0.061459,159.874996,18.281300,-167.917046,-0.227442,-3.890090,-0.255483,4.031941,4.094915,0.118740,-3.900854,-0.026156,0.409217,-0.035692,-182.314858,188.588735,1213.418609,-3.803865,0
0.062500,107.642782,79.205299,-186.863069,-0.578052,-2.540984,-1.886571,4.128957,2.786348,1.738663,-4.021821,-0.059033,0.409479,-0.035692,-176.580688,188.572296,1213.897023,-4.272035,0
0.063542,30.536463,134.330464,-189.842235,-0.679842,-1.000163,-3.398601,4.039404,1.224154,3.358587,-3.925759,-0.029809,0.406996,-0.061832,-151.280218,188.648394,1214.746097,-3.833181,0
0.064583,-37.155580,170.017454,-150.239016,0.066618,0.650716,-4.101041,2.987158,-0.363770,4.105598,-3.029182,-0.048074,0.407127,-0.054364,-99.514349,188.624683,1216.421230,-3.337944,0
0.065625,-89.523905,199.893530,-74.578031,1.491678,2.503962,-4.414559,1.442371,-2.245754,4.386777,-1.509981,-0.121134,0.398439,-0.087972,-24.427261,188.634161,1217.133420,-3.697631,0
0.066667,-144.387580,172.143693,-7.842235,2.769708,3.590347,-3.839114,-0.154656,-3.414642,3.920944,0.019893,-0.128440,0.397851,-0.050629,48.510927,188.633290,1218.479843,-4.023203,0
0.067708,-186.853901,124.460365,56.985417,4.002498,4.367858,-2.850937,-1.759145,-4.193901,2.930524,1.635155,-0.157664,0.400007,-0.065566,113.543426,188.703154,1218.700817,-4.533548,0
0.068764,-187.976809,47.964081,114.488258,5.076948,4.346556,-1.176195,-3.229305,-4.204929,1.318994,3.012042,-0.216112,0.402162,-0.054364,158.828665,188.627468,1219.524074,-4.951876,0
0.069798,-160.516615,-18.299677,168.408713,6.151398,4.002179,0.355679,-4.233043,-3.793245,-0.233782,4.015355,-0.197847,0.411961,-0.061832,188.053704,188.626548,1220.580321,-5.328862,0
0.070834,-107.240890,-78.982058,186.973107,6.456768,2.642422,1.990735,-4.330059,-2.521435,-1.807542,4.122090,-0.230724,0.420780,-0.054364,183.518394,188.636210,1220.988279,-5.455045,0
0.071876,-29.692215,-133.950171,190.186175,6.524628,1.076750,3.522609,-4.180804,-0.859996,-3.448449,4.022470,-0.197847,0.389947,-0.043161,156.883345,188.646761,1221.810641,-6.428325,0
0.072917,38.022513,-169.673405,149.967425,5.800788,-0.535077,4.197268,-3.199454,0.731604,-4.149297,3.108104,-0.234377,0.395956,-0.017021,103.669796,188.646744,1222.534994,-7.771883,0
0.073958,89.279273,-200.286415,73.752462,4.353108,-2.427375,4.459194,-1.568845,2.525370,-4.480835,1.563998,-0.179582,0.397720,-0.031958,30.222658,188.646703,1223.655063,-8.095663,0
0.075000,143.541796,-172.017100,6.979735,3.086388,-3.481808,3.891687,-0.038983,3.708961,-3.914282,0.087492,-0.128440,0.392625,-0.058098,-43.224481,188.571279,1223.816108,-8.719333,0
0.076042,186.200940,-123.608918,-56.998485,1.910148,-4.319673,2.911447,1.669984,4.517626,-2.928059,-1.563349,-0.121134,0.397459,-0.039427,-109.139159,188.646735,1224.398623,-9.765795,0
0.077083,188.253933,-48.526099,-112.297728,0.858318,-4.216715,1.300202,3.035666,4.524978,-1.417250,-2.883310,-0.080951,0.399223,-0.039427,-153.440428,188.648907,1224.947271,-10.289007,0
0.078125,160.317354,17.435637,-167.990910,-0.216132,-3.900740,-0.235640,4.061792,4.150051,0.148117,-3.915086,-0.048074,0.410589,-0.043161,-184.192318,188.647829,1225.773616,-10.652424,0
0.079167,108.402729,78.709982,-186.875379,-0.566742,-2.526783,-1.850854,4.132688,2.830457,1.721877,-4.046726,-0.062686,0.414639,-0.046895,-178.718278,188.496646,1226.345858,-10.373106,0
0.080208,31.534603,134.197574,-189.977652,-0.668532,-0.989512,-3.362884,3.998359,1.224154,3.337603,-3.929317,-0.059033,0.407258,-0.035692,-151.992748,188.654059,1226.275529,-10.508305,0
0.081250,-36.826647,169.715432,-150.596023,0.134478,0.576160,-4.057386,2.975964,-0.315985,4.076221,-3.032740,-0.044421,0.409805,-0.084238,-102.952589,188.672622,1225.861908,-10.010037,0
0.082292,-89.444507,199.953934,-74.861174,1.514298,2.511062,-4.366936,1.505804,-2.208996,4.386777,-1.513539,-0.091910,0.399484,-0.035692,-27.152971,188.569324,1225.686429,-9.700695,0
0.083334,-143.854482,172.433635,-7.694508,2.792328,3.540643,-3.807366,-0.098685,-3.326424,3.899960,-0.054822,-0.132093,0.400987,-0.050629,48.137697,188.653574,1224.648397,-8.424560,0
0.084375,-186.502284,124.049614,57.022349,3.991188,4.389159,-2.854905,-1.766608,-4.149792,2.909541,1.603135,-0.132093,0.400072,-0.076769,112.355876,188.647626,1223.703110,-8.069541,0
0.085417,-188.906894,48.652693,112.370834,5.043018,4.321704,-1.263503,-3.124826,-4.179198,1.356764,2.958674,-0.168623,0.400921,-0.039427,156.736315,188.637983,1223.066966,-7.834036,0
0.086458,-160.255738,-17.816441,167.903978,6.117468,3.987978,0.312024,-4.195729,-3.738108,-0.183422,3.976218,-0.227071,0.391449,-0.065566,187.522134,188.496201,1221.880501,-7.526420,0
0.087500,-107.331630,-78.897492,187.083902,6.434148,2.638872,1.966924,-4.255431,-2.517759,-1.782362,4.111417,-0.227071,0.400856,-0.039427,181.595694,188.645535,1221.633267,-7.328664,0
0.088542,-29.896380,-133.756877,190.210796,6.569868,1.069649,3.514672,-4.165878,-0.926160,-3.393892,4.026028,-0.212459,0.432147,-0.043161,157.290505,188.570178,1221.341253,-6.239548,0
0.089583,37.795663,-169.516353,150.484470,5.789478,-0.538627,4.165519,-3.124826,0.698522,-4.086346,3.090315,-0.197847,0.401705,-0.050629,103.692416,188.656427,1220.465467,-5.935683,0
0.090625,89.335986,-199.972312,74.331061,4.353108,-2.363470,4.435383,-1.617353,2.521694,-4.451458,1.603135,-0.197847,0.396740,-0.065566,30.403618,188.641178,1220.291358,-5.633202,0
0.091667,143.507768,-172.452013,7.582955,3.075078,-3.488908,3.907561,-0.024058,3.661177,-3.918479,0.083934,-0.161317,0.395761,-0.035692,-42.704221,188.656591,1219.979403,-5.548690,0
0.092708,186.223625,-123.923021,-56.653788,1.887528,-4.298372,2.967007,1.602819,4.506599,-2.999403,-1.520655,-0.099216,0.398569,-0.058098,-108.358769,188.577088,1220.276637,-4.557250,0
0.093750,188.503468,-49.589219,-112.223864,0.869628,-4.220265,1.339888,3.020740,4.502923,-1.471807,-2.861963,-0.059033,0.402424,-0.061832,-150.974848,188.638664,1220.217145,-4.100793,0
0.094792,160.260641,16.541650,-168.200190,-0.227442,-3.957545,-0.199923,4.017016,4.098591,0.089363,-3.911528,-0.066339,0.414313,-0.035692,-182.642848,188.575892,1219.653198,-3.929932,0
0.095834,108.391387,78.432121,-186.949243,-0.578052,-2.590688,-1.894508,4.173733,2.852512,1.730270,-4.078747,-0.059033,0.413268,-0.020755,-177.100948,188.647746,1220.206959,-3.904318,0
0.096875,31.171643,134.076765,-189.965341,-0.657222,-1.007264,-3.394633,4.054329,1.213127,3.362784,-3.947106,-0.062686,0.407911,-0.046895,-151.970128,188.558613,1220.547751,-4.081594,0
0.097917,-37.234977,169.981212,-150.435985,0.100548,0.640065,-4.105009,3.031934,-0.360094,4.084615,-3.022066,-0.088257,0.401574,-0.050629,-100.023299,188.652447,1220.686412,-4.533203,0
0.098958,-89.274370,200.074743,-74.307197,1.536918,2.546565,-4.410590,1.431176,-2.216348,4.411957,-1.495750,-0.080951,0.397590,-0.039427,-24.777871,188.625076,1220.882585,-4.681181,0
0.100000,-143.752399,172.494040,-7.091288,2.848878,3.586796,-3.795460,-0.180775,-3.385236,3.904157,0.030566,-0.102869,0.393409,-0.039427,48.691887,188.628953,1221.397276,-5.924190,0
0.101042,-186.434229,123.759673,57.256250,4.025118,4.382059,-2.803314,-1.781533,-4.171847,2.913737,1.677849,-0.157664,0.394062,-0.046895,113.769626,188.696715,1221.904234,-6.671780,0
0.102083,-188.748099,48.157376,112.321591,5.088258,4.325254,-1.203975,-3.203185,-4.201253,1.318994,2.965790,-0.183235,0.404645,-0.039427,157.584565,188.637934,1221.971243,-6.986207,0
0.103125,-160.527958,-17.949331,167.793182,6.106158,3.984428,0.363616,-4.229312,-3.807948,-0.233782,4.047375,-0.201500,0.398961,-0.061832,187.476894,188.622871,1223.486485,-7.534899,0
0.104167,-107.479083,-78.740440,187.071591,6.479388,2.614020,1.986767,-4.318865,-2.458947,-1.841116,4.111417,-0.227071,0.389163,-0.050629,183.269574,188.644095,1223.401683,-8.781218,0
0.105209,-30.474847,-133.781039,190.272349,6.547248,1.051898,3.490860,-4.150953,-0.907781,-3.431662,4.011797,-0.230724,0.405886,-0.061832,156.838105,188.571428,1223.588268,-9.490368,0
0.106250,37.115113,-169.600919,150.287500,5.823408,-0.531526,4.145676,-3.147214,0.680143,-4.140903,3.061852,-0.194194,0.407454,-0.065566,103.884686,188.662594,1223.859924,-9.846114,0
0.107292,89.335986,-199.936069,74.725000,4.420968,-2.409624,4.451257,-1.591233,2.525370,-4.447262,1.596019,-0.157664,0.399745,-0.058098,30.776848,188.597043,1223.825792,-10.055703,0
0.108333,143.723276,-172.077505,8.136932,3.109008,-3.478257,3.879781,-0.009132,3.675880,-3.922675,0.087492,-0.132093,0.398831,-0.069301,-42.444091,188.438059,1223.968463,-10.156012,0
0.109375,186.212282,-124.454581,-56.493750,1.887528,-4.287721,2.935258,1.587894,4.502923,-2.974223,-1.513539,-0.095563,0.399353,-0.035692,-108.618899,188.592214,1223.785730,-10.436912,0
0.110417,188.265275,-49.891241,-112.248485,0.847008,-4.230916,1.335919,3.002083,4.491896,-1.434036,-2.826385,-0.044421,0.402554,-0.043161,-153.349948,188.659587,1223.211603,-10.622201,0
