1-Time,2-VGERA,3-VGERB,4-VGERC,5-VN,6-IGERAN,7-IGERBN,8-IGERCN,9-IGERAT,10-IGERBT,11-IGERCT,12-IN,13-IFD,14-IFAULT,15-VFAULT,16-Speed (rad/s),17-Active Power,18-Reactive Power,19-FAULT 
0.000000,144.982293,64.442434,-177.987122,-0.408402,-6.116114,1.570065,4.837917,6.252580,-1.606101,-4.516362,0.024986,0.601796,-0.028224,57.604167,188.495683,1608.307542,898.773843,0
0.001042,64.768130,115.013098,-200.737122,-0.860802,-5.058131,-1.211912,6.188673,5.186613,1.201487,-5.950174,0.017680,0.601208,-0.028224,-35.069971,188.495727,1609.224910,898.369069,0
0.002083,-4.965563,164.617290,-169.554357,-0.283992,-3.258140,-3.327167,6.285689,3.392847,3.278850,-6.028447,0.046904,0.616820,-0.002084,-117.497249,188.495740,1608.612273,897.358776,0
0.003125,-75.266381,193.128224,-121.592235,0.632118,-0.783596,-5.224150,5.550609,0.963176,5.234508,-5.405823,0.010374,0.598791,-0.009553,-181.760668,188.420388,1608.635898,896.713912,0
0.004167,-126.409716,191.026146,-37.079924,2.215518,1.737101,-6.045647,3.852836,-1.536334,6.161978,-3.787003,-0.029809,0.597941,-0.002084,-216.697257,188.495826,1608.556242,896.128925,0
0.005208,-171.099168,163.614575,41.117046,3.651888,4.034131,-6.291699,1.808045,-3.910869,6.459943,-1.794609,-0.066339,0.591866,-0.017021,-222.589767,188.495741,1608.349243,895.588850,0
0.006250,-181.193994,96.275616,103.002462,4.850748,5.621106,-5.168590,-0.803914,-5.480414,5.402376,0.631842,-0.113828,0.592585,-0.017021,-187.506147,188.495727,1607.871855,895.886326,0
0.007298,-185.526829,11.443508,149.832008,5.744238,6.629385,-3.612905,-3.113632,-6.494921,3.816026,2.976464,-0.157664,0.597092,-0.020755,-135.740279,188.420314,1608.066182,895.144569,0
0.008334,-145.555857,-64.255436,177.604735,6.275808,6.309860,-1.323032,-4.871107,-6.204537,1.658926,4.634420,-0.172276,0.569917,0.024056,-53.403480,188.495729,1606.394414,895.217308,0
0.009375,-63.901196,-114.898586,201.105682,6.773448,5.273179,1.470851,-6.274102,-5.215760,-1.190628,6.110927,-0.248989,0.589384,-0.028224,40.876678,188.420296,1606.952071,896.258363,0
0.010417,3.563997,-164.394050,169.615152,6.128778,3.487389,3.550389,-6.386044,-3.521239,-3.213434,6.235451,-0.252642,0.614469,-0.039427,121.958066,188.495790,1606.963008,896.107207,0
0.011458,75.078463,-193.170763,121.283712,5.223978,1.034146,5.431498,-5.650964,-1.029081,-5.227847,5.577249,-0.219765,0.615057,-0.017021,185.927424,188.420332,1606.971999,896.762618,0
0.012500,126.142400,-190.935796,36.635985,3.663198,-1.497202,6.344272,-3.949459,1.551296,-6.155316,3.979776,-0.186888,0.594610,-0.024490,220.015764,188.516418,1607.562682,896.540421,0
0.013542,171.274209,-163.608791,-39.948296,2.192898,-3.783581,6.530795,-1.915862,3.855991,-6.449084,1.994498,-0.168623,0.596896,-0.020755,228.611363,188.299673,1608.044021,896.744866,0
0.014583,180.699827,-95.617463,-102.904735,1.039278,-5.413159,5.364032,0.770724,5.476997,-5.366338,-0.506668,-0.099216,0.587228,-0.024490,191.458014,188.514302,1607.877567,897.545231,0
0.015625,185.361595,-11.171944,-148.958713,0.123168,-6.414337,3.875813,3.031934,6.458423,-3.826151,-2.758785,-0.029809,0.593891,-0.005818,142.508335,188.433263,1606.812117,898.207320,0
0.016667,145.662843,63.669256,-178.060985,-0.453642,-6.151617,1.526411,4.834186,6.252580,-1.606101,-4.480783,-0.011544,0.609439,0.001650,58.113117,188.500707,1606.754516,897.957887,0
0.017708,63.656565,115.182231,-201.143372,-0.860802,-5.061681,-1.180163,6.211061,5.212343,1.193093,-5.943058,-0.000585,0.603429,-0.024490,-36.743851,188.476406,1606.518869,898.684367,0
0.018750,-4.806768,164.883070,-169.480493,-0.295302,-3.279442,-3.343041,6.386436,3.455335,3.266260,-6.053352,0.054210,0.617539,0.005384,-115.042979,188.499408,1606.705826,899.694163,0
0.019792,-74.926106,192.874525,-121.973864,0.564258,-0.797797,-5.212244,5.554340,0.963176,5.259689,-5.405823,0.003068,0.599509,-0.024490,-183.411928,188.436973,1607.082218,899.396275,0
0.020833,-126.353004,191.255683,-35.725758,2.249448,1.772604,-6.125019,3.871492,-1.573092,6.195551,-3.751425,-0.033462,0.589384,-0.017021,-216.097827,188.447049,1607.432102,899.181373,0
0.021886,-170.566071,163.795789,42.754356,3.753678,4.115788,-6.319479,1.763268,-3.980708,6.522893,-1.751915,-0.073645,0.597745,-0.017021,-223.110027,188.347782,1608.632680,899.248372,0
0.022924,-181.897229,94.958798,103.421023,4.828128,5.724064,-5.136841,-0.941975,-5.561280,5.331032,0.752809,-0.110175,0.589123,-0.005818,-189.372297,188.480083,1609.748766,897.812395,0
0.023963,-185.662939,10.126690,149.179546,5.721618,6.636485,-3.589093,-3.128558,-6.513300,3.824420,3.061852,-0.161317,0.565344,-0.013287,-135.796829,188.420202,1610.429285,897.605474,0
0.025004,-144.897992,-63.796362,178.811175,6.332358,6.348913,-1.263503,-4.990511,-6.318485,1.587582,4.712693,-0.219765,0.603233,-0.017021,-54.613650,188.495490,1612.699401,897.676917,0
0.026044,-64.649801,-114.669049,201.105682,6.773448,5.230575,1.510537,-6.274102,-5.201057,-1.245185,6.157179,-0.248989,0.606760,-0.046895,41.080258,188.344482,1613.837249,896.815853,0
0.027087,5.651017,-165.058499,169.282766,6.162708,3.466087,3.661509,-6.453208,-3.407291,-3.297368,6.253240,-0.212459,0.594087,-0.035692,122.896796,188.419889,1614.487062,896.057026,0
0.028129,75.441423,-192.542556,121.702273,5.291838,0.980892,5.471183,-5.665889,-0.966593,-5.257224,5.609270,-0.197847,0.606760,-0.024490,186.639954,188.420007,1615.266913,895.573590,0
0.029176,126.947717,-190.814987,35.552652,3.606648,-1.603710,6.379989,-3.874832,1.610108,-6.155316,3.880157,-0.197847,0.595851,-0.028224,221.949774,188.495256,1615.245121,894.531151,0
0.030221,170.026534,-163.367173,-43.050568,2.170278,-3.868788,6.582387,-1.826310,3.962588,-6.465871,1.948246,-0.132093,0.590886,-0.031958,228.057173,188.419980,1615.909057,894.371212,0
0.031256,181.266952,-95.170470,-102.904735,1.050588,-5.512567,5.371969,0.808038,5.506403,-5.366338,-0.531573,-0.095563,0.595132,-0.017021,193.821804,188.344522,1616.461773,894.326163,0
0.032306,184.987292,-10.084663,-149.721970,0.111858,-6.435639,3.828190,3.080442,6.517235,-3.796774,-2.833500,-0.051727,0.587881,-0.031958,140.336815,188.419943,1617.537044,894.296277,0
0.033337,144.687388,64.756538,-178.147160,-0.419712,-6.087712,1.506568,4.834186,6.259932,-1.576724,-4.495015,-0.007891,0.582851,-0.050629,56.914257,188.495361,1617.407794,894.517066,0
0.034379,63.996840,115.145988,-200.798675,-0.872112,-5.072332,-1.215880,6.211061,5.164558,1.260240,-5.900364,0.043251,0.605258,-0.017021,-35.262241,188.419822,1617.176306,893.135585,0
0.035419,-4.216958,164.870989,-169.492804,-0.261372,-3.215537,-3.343041,6.330465,3.444307,3.295636,-6.064025,0.028639,0.600946,0.020321,-117.225809,188.489996,1617.727436,892.690941,0
0.036458,-75.198326,193.176547,-121.235228,0.598188,-0.801347,-5.228119,5.572997,1.003609,5.280672,-5.395150,0.024986,0.580957,-0.017021,-181.715428,188.419911,1617.558011,893.315122,0
0.037500,-126.239579,191.110713,-36.919886,2.226828,1.698048,-6.097238,3.867761,-1.517955,6.166174,-3.769214,-0.055380,0.593891,-0.031958,-216.697257,188.495432,1617.028135,893.471737,0
0.038542,-171.326018,163.735384,40.218371,3.640578,4.016380,-6.319479,1.837896,-3.888814,6.480926,-1.826630,-0.051727,0.591866,-0.046895,-222.872517,188.344504,1615.924959,893.779900,0
0.039583,-180.967144,96.094403,102.891667,4.873368,5.603354,-5.180496,-0.818840,-5.469387,5.393983,0.660305,-0.132093,0.591540,-0.035692,-187.042437,188.344457,1614.660102,894.776286,0
0.040625,-185.742336,12.035473,149.154925,5.755548,6.618734,-3.644654,-3.065124,-6.513300,3.862190,2.972906,-0.183235,0.591801,-0.005818,-137.086169,188.419978,1614.307482,895.238494,0
0.041667,-146.236407,-63.542663,177.481629,6.275808,6.285008,-1.307158,-4.837525,-6.278052,1.658926,4.616631,-0.197847,0.584811,0.005384,-54.093390,188.495325,1612.744012,895.448921,0
0.042708,-63.719716,-114.693210,201.167235,6.762138,5.237676,1.427196,-6.266640,-5.259869,-1.165448,6.100253,-0.245336,0.592715,-0.013287,41.012398,188.347662,1611.438175,896.979403,0
0.043750,3.949642,-164.043703,169.861364,6.162708,3.501590,3.542452,-6.389775,-3.510212,-3.226024,6.242567,-0.234377,0.609831,-0.073035,121.392566,188.344948,1610.934286,897.585029,0
0.044792,74.534023,-193.170763,121.505303,5.223978,1.023496,5.391812,-5.632307,-1.032756,-5.194273,5.552345,-0.263601,0.601338,0.020321,185.667294,188.420093,1609.663861,897.648564,0
0.045833,125.745412,-191.104928,36.549811,3.651888,-1.472350,6.320460,-3.971847,1.466754,-6.050398,4.008239,-0.186888,0.592781,-0.039427,219.676464,188.495669,1607.839542,899.262544,0
0.046875,170.979304,-163.512144,-39.652841,2.226828,-3.783581,6.526827,-1.934519,3.848640,-6.436494,2.040750,-0.128440,0.598595,-0.043161,228.747083,188.344898,1606.816597,899.723658,0
0.047917,180.597745,-96.837634,-102.596970,1.027968,-5.367005,5.403717,0.733410,5.469646,-5.345354,-0.439069,-0.077298,0.572007,-0.024490,191.718144,188.420202,1605.997367,899.846745,0
0.048958,185.395622,-10.737032,-148.552463,0.157098,-6.375284,3.903593,2.987158,6.498856,-3.817758,-2.730323,-0.069992,0.585660,-0.043161,142.349995,188.418426,1604.920050,900.168408,0
0.050000,145.776268,63.729661,-177.617804,-0.487572,-6.098363,1.585940,4.740902,6.245229,-1.635478,-4.413184,-0.007891,0.609243,-0.043161,58.938747,188.495980,1604.001056,900.333083,0
0.051042,64.711417,114.976856,-200.872538,-0.917352,-5.058131,-1.196037,6.166285,5.234398,1.188897,-5.935943,0.017680,0.586444,-0.050629,-36.234901,188.345200,1604.453509,901.615575,0
0.052085,-5.385236,164.726018,-169.480493,-0.272682,-3.300743,-3.283513,6.345391,3.444307,3.224293,-6.071141,0.035945,0.595002,0.001650,-115.280489,188.345353,1603.476693,902.437701,0
0.053125,-74.721941,192.934929,-122.183144,0.620808,-0.822649,-5.184464,5.572997,1.033015,5.247099,-5.448518,0.010374,0.603102,-0.043161,-183.072628,188.420614,1603.593494,902.913747,0
0.054167,-126.307634,191.171117,-36.759849,2.192898,1.726451,-6.069458,3.886418,-1.528983,6.103224,-3.779887,-0.011544,0.591540,-0.005818,-215.996037,188.497822,1602.963861,902.811795,0
0.055213,-170.645468,163.662899,41.609470,3.719748,4.069634,-6.295668,1.826702,-3.921896,6.485123,-1.805283,-0.084604,0.591082,-0.024490,-223.177887,188.344811,1603.050743,902.726699,0
0.056265,-181.806489,94.717180,103.802652,4.884678,5.681461,-5.148747,-0.900930,-5.531874,5.372999,0.749251,-0.110175,0.591017,-0.005818,-189.462777,188.344887,1604.081022,902.391964,0
0.057294,-185.901131,11.117324,149.204167,5.721618,6.632935,-3.628779,-3.053930,-6.487569,3.845403,2.958674,-0.146705,0.591344,0.024056,-136.124819,188.420309,1603.492251,902.497405,0
0.058333,-145.385720,-64.062142,177.764773,6.275808,6.306310,-1.315095,-4.852451,-6.263349,1.658926,4.655767,-0.234377,0.584680,-0.009553,-55.032120,188.495638,1603.528182,902.618639,0
0.059375,-65.250954,-114.463673,200.847160,6.728208,5.287380,1.423228,-6.277834,-5.252517,-1.157055,6.103811,-0.245336,0.606042,-0.039427,39.655198,188.322308,1603.845636,902.132224,0
0.060417,4.097094,-164.321564,169.762879,6.207948,3.494489,3.562295,-6.389775,-3.502860,-3.234418,6.214104,-0.212459,0.609765,-0.058098,121.912826,188.478351,1603.629651,901.963707,0
0.061459,75.089805,-192.796255,121.677652,5.257908,1.069649,5.423560,-5.677083,-1.051135,-5.177486,5.595039,-0.216112,0.600881,-0.031958,186.255414,188.415014,1603.549235,902.711727,0
0.062500,126.040317,-190.947877,37.534659,3.663198,-1.475900,6.352209,-3.949459,1.503511,-6.125939,3.979776,-0.223418,0.594153,-0.031958,221.542614,188.495631,1604.874352,902.136877,0
0.063542,170.661714,-163.427577,-40.354546,2.204208,-3.801333,6.510952,-1.893474,3.826585,-6.419707,2.022961,-0.168623,0.592389,-0.031958,228.328613,188.344751,1604.317389,902.054744,0
0.064584,180.688485,-96.076537,-102.584659,1.039278,-5.409609,5.371969,0.711022,5.480673,-5.345354,-0.431954,-0.095563,0.591082,-0.043161,193.595604,188.269396,1604.172956,902.299938,0
0.065625,185.520390,-12.210902,-148.958713,0.134478,-6.353983,3.840095,2.957307,6.421665,-3.834545,-2.740996,-0.084604,0.598137,-0.050629,142.836325,188.420153,1603.926180,901.756979,0
0.066667,145.730898,64.285382,-177.383902,-0.442332,-6.052209,1.558160,4.729707,6.219499,-1.597707,-4.416742,-0.018850,0.605715,-0.017021,57.457137,188.495568,1603.741410,901.251836,0
0.067709,64.053552,115.013098,-200.761743,-0.894732,-5.036829,-1.156352,6.177479,5.179261,1.138536,-5.907480,0.017680,0.594675,-0.013287,-34.877701,188.420350,1602.505894,901.235693,0
0.068750,-3.615806,164.206539,-169.886743,-0.317922,-3.314944,-3.267638,6.304346,3.488416,3.215899,-6.049794,0.010374,0.609177,-0.050629,-115.959089,188.269369,1602.623210,900.867018,0
0.069792,-74.665229,193.200709,-121.382955,0.598188,-0.836850,-5.152716,5.554340,1.058746,5.192542,-5.377361,-0.007891,0.598660,-0.039427,-181.602328,188.420001,1601.155783,900.702770,0
0.070833,-125.967359,191.231522,-36.759849,2.215518,1.619942,-6.045647,3.938657,-1.437089,6.136797,-3.836813,-0.000585,0.591474,-0.028224,-216.425817,188.495495,1600.939643,902.135574,0
0.071875,-171.530183,163.409200,39.208902,3.640578,3.952475,-6.228202,1.905060,-3.811623,6.438959,-1.847977,-0.044421,0.596700,-0.024490,-223.279677,188.420265,1599.605955,902.227568,0
0.072917,-180.649554,97.036713,102.842425,4.816818,5.553651,-5.188433,-0.733018,-5.362790,5.398180,0.606938,-0.135746,0.581218,-0.020755,-186.714447,188.269429,1597.216692,902.888791,0
0.073959,-185.651596,11.491832,148.982576,5.766858,6.547728,-3.624811,-3.009154,-6.443460,3.878977,2.837707,-0.186888,0.599575,-0.054364,-136.848659,188.420095,1595.541010,903.749741,0
0.075000,-146.826217,-63.192317,176.939963,6.298428,6.277907,-1.414310,-4.744241,-6.255997,1.755450,4.502780,-0.186888,0.601338,-0.046895,-55.190460,188.495647,1593.754647,904.579822,0
0.076042,-64.819939,-114.693210,200.822538,6.796068,5.251877,1.312108,-6.169624,-5.226787,-1.077317,6.021980,-0.252642,0.598856,-0.024490,40.854058,188.420213,1591.909299,905.095546,0
0.077084,4.403342,-163.475901,169.898296,6.196638,3.551294,3.403551,-6.330073,-3.561672,-3.129500,6.221220,-0.289172,0.607871,-0.005818,121.347326,188.269355,1590.675515,906.266727,0
0.078125,74.068980,-193.122439,122.034659,5.246598,1.126454,5.336252,-5.643501,-1.109947,-5.093552,5.580807,-0.205153,0.603821,-0.035692,185.226204,188.420195,1589.586512,906.494319,0
0.079167,125.586617,-190.947877,36.968371,3.685818,-1.387143,6.209340,-3.941996,1.407942,-6.050398,4.004681,-0.175929,0.592650,-0.024490,219.371094,188.495636,1587.794608,907.322183,0
0.080208,171.013332,-162.980584,-39.640530,2.249448,-3.684173,6.518889,-2.001684,3.753070,-6.398724,2.122580,-0.154011,0.594544,-0.031958,228.656603,188.420229,1586.595265,908.575342,0
0.081250,180.110017,-97.888673,-102.572349,1.027968,-5.296000,5.383875,0.662514,5.359373,-5.324371,-0.392817,-0.066339,0.585399,-0.009553,192.012204,188.344856,1585.212832,908.268833,0
0.082292,185.168772,-11.244429,-148.417046,0.157098,-6.290078,3.891687,2.897605,6.362853,-3.830348,-2.676955,-0.048074,0.609700,-0.017021,142.202965,188.420200,1583.472069,908.512616,0
0.083334,146.116543,64.176654,-176.829925,-0.385782,-6.084162,1.641500,4.643886,6.204796,-1.639674,-4.356259,-0.004238,0.599901,-0.005818,59.097087,188.495465,1582.494078,908.840531,0
0.084375,65.732242,114.880208,-200.453978,-0.883422,-5.047480,-1.128572,6.117777,5.197640,1.100766,-5.875459,-0.015197,0.604147,-0.013287,-35.058661,188.420182,1582.339209,908.861870,0
0.085417,-4.511863,163.904517,-169.788258,-0.283992,-3.346897,-3.220015,6.293151,3.503119,3.165539,-6.042678,0.010374,0.599248,-0.017021,-114.771539,188.269359,1581.435805,909.492471,0
0.086458,-74.687914,192.947010,-121.998485,0.620808,-0.868803,-5.069375,5.606579,1.077124,5.175755,-5.395150,0.003068,0.599640,0.005384,-182.846428,188.420278,1581.404935,909.734191,0
0.087500,-126.069441,190.977823,-37.769318,2.204208,1.644794,-6.021835,3.905075,-1.451792,6.140994,-3.815466,-0.018850,0.594283,0.016587,-215.837697,188.495658,1581.679593,909.096166,0
0.088542,-170.917688,163.457523,40.156818,3.663198,3.931173,-6.307573,1.901329,-3.811623,6.417976,-1.894229,-0.059033,0.587293,-0.009553,-223.064787,188.420245,1581.153402,909.629307,0
0.089583,-180.728951,97.338736,102.743940,4.850748,5.528799,-5.176527,-0.744212,-5.392196,5.410770,0.546454,-0.146705,0.585464,-0.031958,-189.937797,188.269449,1581.319466,910.303935,0
0.090625,-185.719651,12.808650,148.711743,5.732928,6.519326,-3.608936,-2.986766,-6.443460,3.870583,2.876844,-0.154011,0.599509,-0.039427,-137.267129,188.420372,1581.986702,909.415835,0
0.091667,-146.020900,-64.062142,177.026137,6.275808,6.267256,-1.378592,-4.774092,-6.267024,1.709287,4.584610,-0.194194,0.594218,-0.002084,-55.167840,188.495676,1582.823591,909.160893,0
0.092709,-65.035446,-114.560321,200.674811,6.796068,5.269628,1.359731,-6.195744,-5.219436,-1.098301,6.057559,-0.241683,0.611660,-0.046895,39.395068,188.420274,1583.385300,908.827509,0
0.093750,3.155667,-163.814166,169.849054,6.174018,3.544193,3.478954,-6.326342,-3.543294,-3.133697,6.217662,-0.234377,0.609112,-0.013287,120.872306,188.269433,1583.709473,908.255558,0
0.094792,74.613420,-192.880821,121.739205,5.280528,1.080300,5.348157,-5.617381,-1.036432,-5.127126,5.548787,-0.230724,0.587555,-0.009553,185.995284,188.420240,1583.999208,907.299639,0
0.095834,125.666015,-190.851229,37.473106,3.685818,-1.401345,6.260932,-3.990504,1.400590,-6.062989,4.026028,-0.234377,0.595655,-0.035692,221.271174,188.495568,1584.243257,907.531324,0
0.096875,170.967962,-163.391335,-39.061932,2.170278,-3.705475,6.538732,-1.979296,3.767773,-6.419707,2.072770,-0.150358,0.594218,-0.020755,228.611363,188.495584,1584.919611,906.778798,0
0.097917,180.155387,-96.704744,-102.609281,1.016658,-5.324402,5.435466,0.621469,5.377752,-5.353747,-0.382144,-0.113828,0.591148,-0.020755,193.256304,188.269481,1584.854120,907.466989,0
0.098958,185.134745,-11.860556,-148.540152,0.123168,-6.364633,3.899624,2.923724,6.458423,-3.872315,-2.684071,-0.037115,0.587489,-0.017021,142.836325,188.495588,1586.182461,908.191798,0
0.100000,146.740381,63.463881,-176.817614,-0.442332,-6.077061,1.657374,4.688662,6.234202,-1.681641,-4.381164,0.006721,0.610745,-0.028224,58.712547,188.495604,1586.893528,908.523901,0
0.101042,64.382485,115.097665,-200.478599,-0.826872,-5.068782,-1.108729,6.128971,5.190289,1.117553,-5.914596,0.024986,0.619695,-0.035692,-35.002111,188.495622,1587.033177,908.761380,0
0.102083,-4.058163,163.650818,-170.046781,-0.306612,-3.346897,-3.251764,6.304346,3.492092,3.199112,-6.028447,0.057863,0.615514,-0.002084,-115.517999,188.269451,1587.389380,908.092937,0
0.103125,-74.007364,193.128224,-122.096970,0.564258,-0.893655,-5.097155,5.580460,1.058746,5.142181,-5.427171,-0.011544,0.599640,0.001650,-181.149928,188.495698,1587.427453,908.007347,0
0.104167,-125.627084,191.255683,-36.833712,2.215518,1.587990,-6.013898,3.912537,-1.400331,6.061257,-3.811908,-0.040768,0.588731,-0.020755,-216.075207,188.495727,1585.886659,908.254003,0
0.105208,-171.337361,163.288391,39.024243,3.674508,3.938274,-6.307573,1.908792,-3.785893,6.443156,-1.894229,-0.069992,0.593369,-0.039427,-223.426707,188.495649,1586.016188,908.300520,0
0.106250,-180.468074,98.353532,102.608523,4.862058,5.557201,-5.160653,-0.691973,-5.355438,5.473720,0.560686,-0.080951,0.589188,-0.039427,-187.200777,188.269465,1586.300851,908.518736,0
0.107292,-185.470116,11.346861,148.551705,5.755548,6.501575,-3.684340,-2.983034,-6.454488,3.891567,2.830592,-0.179582,0.593891,-0.020755,-136.509359,188.495667,1585.520693,909.546741,0
0.108333,-147.030382,-63.578906,176.509091,6.321048,6.320511,-1.438121,-4.755435,-6.314809,1.738663,4.552590,-0.183235,0.600489,-0.005818,-55.586310,188.495673,1585.741795,909.971516,0
0.109375,-66.067614,-114.499916,200.613258,6.762138,5.262528,1.339888,-6.162161,-5.248842,-1.022760,6.000633,-0.227071,0.606172,-0.013287,39.836158,188.495667,1584.934537,910.635079,0
0.110417,4.460054,-163.173878,170.132197,6.162708,3.533542,3.435300,-6.363655,-3.524915,-3.091730,6.182083,-0.212459,0.581284,-0.017021,121.392566,188.344910,1583.812752,910.659220,0
