1-Time,2-VGERA,3-VGERB,4-VGERC,5-VN,6-IGERAN,7-IGERBN,8-IGERCN,9-IGERAT,10-IGERBT,11-IGERCT,12-IN,13-IFD,14-IFAULT,15-VFAULT,16-Speed (rad/s),17-Active Power,18-Reactive Power,19-FAULT 
0.000000,130.829655,67.770333,-186.810802,-0.623292,-6.222980,0.024110,5.751112,5.805973,-0.151038,-5.811246,0.024986,0.601796,-0.061832,100.910156,188.571073,1627.691653,888.704921,0
0.001042,51.750655,122.201814,-196.108628,-0.804252,-4.918791,-2.607539,6.663290,4.679848,2.278337,-6.942759,0.054210,0.620413,-0.073035,50.490177,188.571120,1627.840551,888.459142,0
0.002083,-18.216970,171.722185,-164.481181,-0.283992,-2.898431,-4.992605,6.840449,2.796879,4.459900,-7.100555,0.021333,0.593369,-0.050629,-4.499041,188.646525,1629.189750,888.855272,0
0.003125,-87.069845,184.324962,-110.932130,0.801768,-0.229745,-6.761209,5.739804,0.296004,6.064587,-6.088351,-0.026156,0.596896,-0.058098,-52.758810,188.721931,1628.410713,889.650373,0
0.004167,-135.777595,190.006444,-22.837697,2.419098,2.420094,-7.632757,4.100146,-2.168309,6.917712,-4.325654,-0.066339,0.590037,-0.065566,-85.987590,188.571120,1629.020761,890.000179,0
0.005208,-167.161220,157.410148,53.659182,3.923328,4.602536,-7.322401,1.748084,-4.310871,6.738962,-1.981805,-0.110175,0.584615,-0.054364,-110.846969,188.571158,1629.223147,889.312280,0
0.006250,-189.842970,75.401815,108.407554,4.929918,6.517356,-6.127743,-1.014835,-6.032965,5.662400,0.920103,-0.110175,0.579781,-0.054364,-131.612129,188.646562,1629.230387,888.931739,0
0.007292,-177.978845,0.615704,155.440708,5.823408,7.052601,-4.410155,-2.982425,-6.687434,4.199900,2.998392,-0.208806,0.588273,-0.043161,-122.858189,188.721947,1629.581379,889.022166,0
0.008333,-130.067345,-68.248185,186.808508,6.445458,6.739746,-1.570185,-5.044249,-6.351059,1.689275,5.057438,-0.223418,0.619107,-0.043161,-96.257069,188.571047,1629.715418,889.861834,0
0.009375,-50.271720,-122.077814,196.551443,6.649038,5.473251,1.048711,-5.963965,-5.184715,-0.727913,6.196648,-0.223418,0.599444,-0.017021,-44.366791,188.495700,1629.367886,889.923866,0
0.010417,19.309155,-171.285222,164.639621,6.094848,3.456660,3.429525,-6.201433,-3.334652,-2.876975,6.377537,-0.248989,0.613358,-0.035692,7.919338,188.646495,1629.309708,890.842215,0
0.011458,87.434030,-184.116703,110.855652,5.009088,0.765358,5.210884,-5.115866,-0.822809,-4.554788,5.407668,-0.270907,0.595459,-0.065566,57.660717,188.721880,1630.043180,892.206030,0
0.012500,135.777780,-189.870407,22.798311,3.403068,-1.914635,6.124946,-3.419668,1.681723,-5.383538,3.633425,-0.186888,0.594022,-0.050629,92.065736,188.571181,1630.685050,893.311930,0
0.013542,167.218280,-156.876888,-53.302915,1.966698,-4.100847,5.865607,-1.086452,3.802348,-5.237288,1.328063,-0.161317,0.592193,-0.065566,115.477436,188.495676,1630.382773,894.909495,0
0.014583,190.059280,-75.193555,-108.385119,0.847008,-5.989281,4.692206,1.695313,5.561004,-4.176975,-1.604634,-0.106522,0.591213,-0.028224,136.921195,188.646534,1630.437478,895.428391,0
0.015625,177.740155,-0.876889,-155.690284,-0.035172,-6.588605,2.910847,3.647826,6.233754,-2.633225,-3.682924,-0.077298,0.578736,-0.043161,127.703546,188.646437,1631.176846,896.307298,0
0.016667,130.181280,68.023111,-187.058084,-0.668532,-6.279520,0.053871,5.747343,5.831566,-0.110413,-5.845884,-0.033462,0.591801,-0.043161,101.260766,188.571060,1631.773468,896.237859,0
0.017708,51.602780,122.262000,-196.182813,-0.826872,-5.020563,-2.628796,6.765062,4.720066,2.314900,-6.985095,0.024986,0.605192,-0.009553,51.055677,188.495611,1632.711566,896.541038,0
0.018750,-18.285220,172.023110,-164.567730,-0.216132,-2.943662,-5.030868,6.908297,2.804191,4.468025,-7.131345,-0.007891,0.586314,-0.054364,-4.284151,188.646516,1633.192310,896.914259,0
0.019792,-87.047095,184.180518,-111.401967,0.801768,-0.195821,-6.795221,5.845346,0.266754,6.194587,-6.142233,-0.018850,0.598791,-0.024490,-52.724880,188.571129,1635.382979,896.940830,0
0.020833,-136.278095,189.982370,-23.814463,2.486958,2.442710,-7.671020,4.100146,-2.219496,6.982712,-4.371838,-0.022503,0.601796,-0.024490,-86.847150,188.571026,1636.964657,897.221204,0
0.021875,-167.673095,157.325888,52.521682,3.934638,4.655307,-7.309647,1.740545,-4.365715,6.840525,-1.947167,-0.073645,0.599117,-0.024490,-111.830939,188.495839,1638.791396,897.124852,0
0.022917,-190.775720,76.605518,108.395190,5.009088,6.577665,-6.166006,-1.052528,-6.113402,5.719275,0.908557,-0.139399,0.593891,-0.050629,-131.284139,188.646514,1640.660146,897.816569,0
0.023958,-177.705845,2.529593,156.256741,5.913888,7.124218,-4.354887,-3.012580,-6.789809,4.171462,3.048425,-0.219765,0.613097,-0.039427,-123.910019,188.571040,1642.691879,897.331755,0
0.025000,-130.818095,-66.936148,187.723454,6.490698,6.792517,-1.531921,-5.115866,-6.365684,1.664900,5.188293,-0.227071,0.600424,-0.076769,-97.399379,188.571109,1645.155466,896.544496,0
0.026042,-52.558095,-122.210222,195.945601,6.682968,5.480790,1.086974,-6.031813,-5.228590,-0.756350,6.235135,-0.281866,0.608916,-0.054364,-45.045391,188.495647,1646.479883,896.277029,0
0.027083,17.284405,-171.995407,164.911632,6.083538,3.426505,3.523057,-6.201433,-3.352934,-2.937913,6.400629,-0.278213,0.614665,-0.046895,8.722348,188.646480,1648.017621,895.814326,0
0.028125,86.979030,-183.526888,111.449130,5.020398,0.689972,5.227889,-5.059326,-0.742371,-4.571038,5.373030,-0.241683,0.595655,-0.050629,57.049977,188.571055,1648.441209,894.164353,0
0.029167,136.403405,-190.038925,23.676164,3.335208,-1.963637,6.158958,-3.404590,1.707316,-5.395725,3.587241,-0.194194,0.601796,-0.069301,91.613336,188.571120,1649.070906,893.410876,0
0.030208,167.536780,-156.840777,-52.672345,1.898838,-4.127232,5.818841,-1.007296,3.835254,-5.261663,1.251089,-0.175929,0.594675,-0.050629,116.404856,188.495749,1649.993614,892.410307,0
0.031250,190.810030,-75.735222,-108.100744,0.835698,-6.042052,4.615680,1.706621,5.608535,-4.201350,-1.627726,-0.102869,0.593107,-0.050629,136.649755,188.571076,1651.262718,892.378554,0
0.032292,177.262405,-1.201889,-155.851018,-0.023862,-6.577297,2.825818,3.681750,6.171598,-2.612913,-3.740654,-0.077298,0.612574,-0.050629,128.642276,188.571138,1651.096544,891.365364,0
0.033333,130.283655,67.818481,-187.466101,-0.657222,-6.253134,0.028362,5.811422,5.868129,-0.134788,-5.868976,-0.011544,0.602122,-0.050629,100.717886,188.571161,1651.751493,891.928083,0
0.034375,51.887155,122.430518,-195.972623,-0.872112,-4.933869,-2.616042,6.697214,4.687160,2.323025,-6.965851,0.010374,0.611464,-0.069301,50.399697,188.495758,1651.481461,891.406066,0
0.035417,-18.706095,171.999036,-164.641915,-0.272682,-2.894661,-5.056376,6.866834,2.818816,4.504587,-7.119798,0.014027,0.607544,-0.031958,-5.019301,188.571084,1651.699399,891.445366,0
0.036458,-87.422470,184.132370,-110.524113,0.779148,-0.203360,-6.786718,5.758651,0.255785,6.141775,-6.092200,-0.004238,0.587097,-0.046895,-52.939770,188.495682,1650.448474,891.186495,0
0.037500,-136.039220,190.078666,-22.417316,2.373858,2.454018,-7.671020,4.047375,-2.234121,6.938025,-4.310259,-0.040768,0.592977,-0.046895,-86.145930,188.571138,1649.604210,890.548534,0
0.038542,-167.206720,156.988851,53.869372,3.900708,4.666615,-7.326653,1.733006,-4.369371,6.771462,-1.954864,-0.080951,0.590494,-0.039427,-110.937449,188.495723,1648.624233,890.512418,0
0.039583,-190.434470,74.751815,108.395190,4.963848,6.566357,-6.080977,-1.075144,-6.051246,5.686775,0.958589,-0.164970,0.581153,-0.050629,-131.849639,188.571176,1647.372685,889.977634,0
0.040625,-177.444220,0.314778,155.712719,5.868648,7.060139,-4.337881,-2.978656,-6.617965,4.138962,3.017635,-0.227071,0.562143,-0.050629,-122.609369,188.495716,1644.550531,889.424298,0
0.041667,-129.555470,-68.260222,187.352530,6.468078,6.728438,-1.544676,-5.085712,-6.321809,1.640525,5.103622,-0.230724,0.596112,-0.054364,-95.996939,188.571036,1642.602387,889.505790,0
0.042708,-50.248970,-122.258370,196.452530,6.716898,5.446866,1.057214,-6.005428,-5.188371,-0.723850,6.227438,-0.278213,0.592519,-0.069301,-44.140591,188.495720,1641.597196,889.995023,0
0.043750,19.786905,-171.586147,164.639621,6.060918,3.437813,3.463536,-6.197664,-3.301746,-2.848538,6.335201,-0.300131,0.584746,-0.024490,8.507458,188.571060,1639.342076,890.183292,0
0.044792,87.695655,-184.044481,110.509456,5.054328,0.727665,5.249147,-5.074404,-0.760652,-4.575100,5.376879,-0.245336,0.600750,-0.046895,57.909537,188.495707,1639.130057,891.014057,0
0.045833,135.641280,-189.942629,22.377930,3.357828,-1.914635,6.116443,-3.438514,1.703660,-5.367288,3.618030,-0.219765,0.592258,-0.069301,92.020496,188.495745,1638.386895,891.443291,0
0.046875,167.127280,-156.383370,-53.661475,1.932768,-4.089539,5.780578,-1.093991,3.795035,-5.225100,1.235695,-0.205153,0.590886,-0.054364,115.420886,188.495682,1637.278351,891.437601,0
0.047917,190.400530,-74.471333,-108.422211,0.869628,-6.038282,4.645440,1.687775,5.564660,-4.176975,-1.569996,-0.088257,0.593891,-0.065566,137.045605,188.571064,1635.710801,892.058335,0
0.048958,177.319280,-0.238926,-155.813925,0.010068,-6.565989,2.889590,3.659134,6.189879,-2.621038,-3.721410,-0.066339,0.577429,-0.031958,127.556516,188.495736,1635.530119,892.685898,0
0.050000,129.680780,68.299963,-187.255910,-0.578052,-6.245596,0.066625,5.762420,5.879098,-0.134788,-5.826641,-0.011544,0.561033,-0.054364,101.000636,188.495779,1634.774302,893.075615,0
0.051042,50.670030,122.671259,-196.083900,-0.826872,-4.975331,-2.573528,6.738677,4.683504,2.270212,-6.992792,-0.007891,0.601534,-0.035692,50.535417,188.495756,1634.345237,893.996831,0
0.052083,-18.842595,172.131444,-164.555366,-0.238752,-2.928585,-5.043622,6.912066,2.782254,4.459900,-7.092858,0.024986,0.607740,-0.031958,-4.680001,188.571196,1633.590609,893.704818,0
0.053125,-87.467970,184.216629,-110.944494,0.835698,-0.263669,-6.744203,5.785036,0.263098,6.113337,-6.119141,0.017680,0.608655,-0.039427,-52.894530,188.495738,1633.561785,894.018086,0
0.054167,-136.323595,189.874036,-23.344626,2.453028,2.378632,-7.666769,4.118992,-2.186590,6.885212,-4.333351,-0.022503,0.596112,-0.043161,-86.994180,188.495770,1632.773406,894.225188,0
0.055208,-167.582095,157.121259,52.793693,3.900708,4.621383,-7.352161,1.778238,-4.310871,6.791775,-1.985654,-0.091910,0.592846,-0.028224,-111.830939,188.495727,1632.471967,894.633100,0
0.056250,-190.570970,76.051815,108.704293,5.020398,6.551280,-6.144748,-0.992219,-6.098777,5.739587,0.893162,-0.172276,0.592389,-0.028224,-131.137109,188.495714,1633.316624,895.755435,0
0.057292,-177.444220,2.204593,156.293833,5.891268,7.078986,-4.435664,-2.971117,-6.687434,4.199900,2.975300,-0.208806,0.595786,-0.061832,-123.740369,188.495767,1634.155956,896.711757,0
0.058333,-130.283470,-67.393555,187.352530,6.468078,6.762362,-1.544676,-5.066865,-6.314496,1.713650,5.111320,-0.245336,0.579520,-0.084238,-97.026149,188.495667,1634.228733,897.040402,0
0.059375,-52.296470,-122.294481,195.661226,6.660348,5.492098,1.031705,-5.948888,-5.235902,-0.687288,6.177405,-0.259948,0.606434,-0.065566,-44.954911,188.495667,1633.827101,897.166559,0
0.060417,17.591530,-171.983370,164.565437,6.026988,3.441583,3.438028,-6.144893,-3.345621,-2.872913,6.362142,-0.245336,0.608524,-0.069301,8.824138,188.420287,1634.794249,897.088349,0
0.061458,87.183780,-183.418555,111.597499,5.054328,0.765358,5.181123,-5.055557,-0.848402,-4.534475,5.369181,-0.270907,0.603429,-0.061832,57.219627,188.495655,1633.998686,897.384099,0
0.062500,136.380655,-189.665777,23.651436,3.357828,-1.876942,6.086683,-3.393282,1.652473,-5.367288,3.602635,-0.205153,0.600816,-0.061832,91.624646,188.420361,1633.812113,897.427663,0
0.063542,167.445780,-156.708370,-52.857807,1.864908,-4.036768,5.738064,-1.044990,3.754816,-5.233225,1.289576,-0.157664,0.592585,-0.039427,116.359616,188.495767,1633.576255,898.023302,0
0.064583,190.207155,-76.036148,-108.545853,0.779148,-5.947819,4.611429,1.646312,5.509816,-4.156663,-1.573845,-0.073645,0.592781,-0.050629,136.344385,188.420273,1633.285873,897.376869,0
0.065625,177.307905,-1.177815,-155.937567,-0.057792,-6.483063,2.864081,3.564901,6.116754,-2.665725,-3.605950,-0.048074,0.601338,-0.073035,128.698826,188.495749,1631.568234,898.015916,0
0.066667,130.522530,67.999037,-186.909715,-0.645912,-6.189056,0.130397,5.656879,5.787691,-0.171350,-5.722726,-0.055380,0.606434,-0.065566,100.695266,188.420224,1629.692019,897.533841,0
0.067708,51.841655,122.635148,-195.737704,-0.826872,-4.903714,-2.505504,6.587904,4.716410,2.233650,-6.827298,-0.007891,0.594283,-0.043161,50.399697,188.495620,1627.771966,897.434710,0
0.068750,-18.444470,171.890703,-164.097893,-0.250062,-2.943662,-4.933084,6.765062,2.844410,4.382712,-7.004338,-0.004238,0.613554,-0.065566,-4.793101,188.420301,1625.832259,897.754643,0
0.069792,-87.695470,183.903666,-110.536478,0.824388,-0.263669,-6.642169,5.769959,0.336223,6.011775,-6.053713,-0.026156,0.601142,-0.054364,-53.188590,188.495631,1623.544174,898.031855,0
0.070833,-136.323595,189.488851,-22.380224,2.441718,2.299476,-7.573237,4.103915,-2.120777,6.844587,-4.344897,-0.048074,0.591409,-0.054364,-86.326890,188.420323,1622.136976,898.817827,0
0.071875,-167.229470,157.061073,54.104290,3.900708,4.519611,-7.237372,1.789546,-4.234090,6.730837,-2.081871,-0.110175,0.585856,-0.054364,-110.903519,188.495700,1620.231862,900.185929,0
0.072917,-189.535845,75.197185,109.025760,4.941228,6.423123,-6.110737,-0.954526,-5.923277,5.662400,0.827734,-0.154011,0.577691,-0.050629,-131.374619,188.420396,1616.698125,899.986880,0
0.073958,-177.557970,0.302741,155.687991,5.834718,6.977214,-4.405904,-2.876884,-6.504621,4.143025,2.859839,-0.194194,0.541827,-0.065566,-122.620679,188.495595,1613.077452,899.508324,0
0.075000,-129.919470,-68.657444,186.487041,6.456768,6.694514,-1.655214,-4.931169,-6.241371,1.770525,4.968918,-0.230724,0.550058,-0.080503,-95.951699,188.420341,1610.066933,900.105748,0
0.076049,-49.441345,-123.161148,195.760139,6.649038,5.446866,0.925419,-5.881040,-5.104277,-0.638538,6.115826,-0.270907,0.557505,-0.065566,-43.382821,188.495694,1607.688245,899.966748,0
0.077083,19.639030,-171.297259,163.996687,6.106158,3.471737,3.327490,-6.103431,-3.334652,-2.771350,6.292866,-0.267254,0.578279,-0.050629,8.394358,188.344930,1605.131180,900.413555,0
0.078125,88.002780,-183.851888,110.336358,5.054328,0.852053,5.117352,-5.085712,-0.841090,-4.457288,5.376879,-0.278213,0.563450,-0.035692,58.158357,188.495749,1603.949770,901.144604,0
0.079167,135.937030,-189.027814,22.118284,3.391758,-1.771401,6.010157,-3.464900,1.546441,-5.294163,3.652668,-0.205153,0.592389,-0.046895,92.144906,188.420412,1601.604912,902.567154,0
0.080208,167.138655,-156.359296,-54.106584,1.921458,-3.957612,5.742315,-1.169378,3.692660,-5.212913,1.366550,-0.157664,0.590298,-0.050629,115.262546,188.495863,1600.185254,903.985990,0
0.081250,189.217530,-74.784296,-109.139331,0.858318,-5.857355,4.670949,1.567156,5.454973,-4.181038,-1.466082,-0.069992,0.564364,-0.050629,136.389625,188.344929,1598.205491,905.611484,0
0.082292,177.535405,0.194407,-155.702648,-0.023862,-6.490602,2.949110,3.546054,6.124066,-2.718538,-3.571312,-0.066339,0.560837,-0.069301,127.511276,188.495723,1597.716517,906.881193,0
0.083333,129.805905,69.202740,-186.303872,-0.691152,-6.181517,0.172911,5.653110,5.784035,-0.252600,-5.703483,-0.022503,0.578736,-0.073035,100.853606,188.420240,1596.575699,908.195663,0
0.084375,50.635905,122.899963,-196.071536,-0.838182,-5.050718,-2.428978,6.606750,4.716410,2.188962,-6.900423,-0.015197,0.602710,-0.065566,50.558037,188.495685,1596.866427,909.230496,0
0.085417,-19.001845,171.902740,-163.924795,-0.250062,-2.985125,-4.899073,6.829141,2.870004,4.342087,-7.081312,-0.004238,0.602449,-0.046895,-4.521661,188.344985,1596.989965,910.490440,0
0.086458,-88.025345,183.975888,-110.610662,0.801768,-0.372979,-6.629414,5.818960,0.365473,6.019900,-6.096049,-0.000585,0.591344,-0.091706,-53.403480,188.420305,1597.243427,911.358144,0
0.087500,-136.551095,188.959222,-23.047887,2.475648,2.280629,-7.611500,4.164224,-2.069590,6.860837,-4.425720,-0.011544,0.601665,-0.050629,-86.994180,188.420227,1597.128390,912.615148,0
0.088542,-167.525220,157.097185,53.411899,3.991188,4.523380,-7.339407,1.898857,-4.193871,6.808025,-2.112660,-0.080951,0.597288,-0.031958,-111.751769,188.495723,1597.444045,913.561341,0
0.089583,-189.490345,76.557370,109.334864,5.020398,6.385429,-6.178760,-0.894217,-5.941559,5.751775,0.719971,-0.128440,0.591540,-0.031958,-130.571609,188.344903,1597.786889,915.434530,0
0.090625,-177.603470,1.807370,156.170192,5.846028,7.029985,-4.490933,-2.865576,-6.647215,4.240525,2.844445,-0.201500,0.597680,-0.031958,-123.695129,188.420316,1599.609803,917.143539,0
0.091667,-130.476845,-68.091703,186.623046,6.445458,6.705822,-1.646711,-4.927400,-6.325465,1.774587,4.995859,-0.234377,0.596439,-0.058098,-97.048769,188.420273,1600.856778,917.637741,0
0.092708,-52.000720,-122.667629,195.735411,6.592488,5.495867,0.916916,-5.888579,-5.243215,-0.626350,6.115826,-0.285519,0.609243,-0.028224,-45.068011,188.495673,1602.013428,918.462299,0
0.093750,17.602905,-171.826888,164.046143,6.117468,3.535816,3.301981,-6.122277,-3.433371,-2.751038,6.281320,-0.292825,0.620479,-0.069301,8.394358,188.344948,1602.123152,919.091250,0
0.094792,87.536405,-183.250036,111.597499,5.031708,0.897285,5.130106,-5.081942,-0.947121,-4.445100,5.353787,-0.256295,0.610549,-0.061832,57.524997,188.344927,1601.550480,919.397807,0
0.095833,136.619530,-188.775036,23.762713,3.369138,-1.733708,6.027163,-3.468669,1.498910,-5.265725,3.668063,-0.212459,0.603755,-0.061832,91.873466,188.420520,1601.233380,919.530078,0
0.096875,167.491280,-156.744481,-53.377100,1.864908,-3.904842,5.763573,-1.188224,3.630504,-5.200725,1.362701,-0.132093,0.594087,-0.050629,116.303066,188.495687,1600.752842,919.399478,0
0.097917,189.297155,-76.457444,-109.164059,0.790458,-5.868663,4.649692,1.529463,5.385504,-4.140413,-1.373713,-0.150358,0.586901,-0.050629,135.812815,188.344939,1599.636163,919.470719,0
0.098958,177.239655,-1.286148,-155.987023,-0.103032,-6.456678,2.953362,3.485745,6.113098,-2.686038,-3.532825,-0.088257,0.588143,-0.050629,128.608346,188.344925,1599.352337,918.878505,0
0.100000,130.772780,68.420333,-186.192595,-0.702462,-6.189056,0.189917,5.543799,5.751129,-0.289163,-5.630358,-0.018850,0.605846,-0.050629,100.650026,188.420376,1598.458965,918.718401,0
0.101042,51.796155,122.972185,-195.750068,-0.826872,-4.979101,-2.399218,6.569057,4.734691,2.144275,-6.796509,-0.000585,0.610614,-0.050629,50.546727,188.495759,1597.171742,918.744764,0
0.102083,-18.148720,171.710148,-163.714605,-0.317922,-3.007741,-4.809792,6.734907,2.873660,4.232400,-6.977397,0.035945,0.612313,-0.061832,-4.329391,188.420347,1594.979317,918.277258,0
0.103125,-87.979845,183.686999,-110.487021,0.722598,-0.384287,-6.578397,5.732266,0.372785,5.987400,-6.065259,-0.018850,0.609896,-0.050629,-53.493960,188.344891,1594.214573,918.005421,0
0.104167,-136.460095,188.814777,-22.417316,2.419098,2.220320,-7.522219,4.130300,-1.981840,6.812087,-4.352595,-0.051727,0.594087,-0.073035,-86.575710,188.420352,1592.511454,917.773877,0
0.105208,-167.400095,157.049036,54.401030,3.934638,4.398992,-7.211863,1.883780,-4.142684,6.738962,-2.128055,-0.084604,0.587881,-0.054364,-110.937449,188.495671,1591.128034,917.953550,0
0.106250,-188.694095,75.594407,109.643967,4.997778,6.291196,-6.110737,-0.848985,-5.853809,5.678650,0.727668,-0.164970,0.577625,-0.031958,-131.001389,188.344910,1589.212981,917.197039,0
0.107292,-177.592095,0.206444,155.638534,5.936508,6.916905,-4.418658,-2.790190,-6.515590,4.212087,2.802109,-0.205153,0.576515,-0.065566,-122.552819,188.344885,1586.929800,916.767403,0
0.108333,-129.885345,-69.126889,185.831742,6.400218,6.675668,-1.701980,-4.852013,-6.230402,1.827400,4.891945,-0.281866,0.589906,-0.024490,-95.770739,188.420314,1584.181143,916.991441,0
0.109375,-50.226220,-122.775962,196.093971,6.728208,5.469482,0.823384,-5.798115,-5.257840,-0.585725,6.046550,-0.274560,0.625639,-0.058098,-43.846531,188.495664,1582.688296,917.844662,0
0.110417,19.559405,-171.261147,163.823589,6.049608,3.513200,3.208449,-6.088353,-3.404121,-2.690100,6.246681,-0.281866,0.596766,-0.031958,8.405668,188.344878,1581.114295,918.084392,0
