1-Time,2-VGERA,3-VGERB,4-VGERC,5-VN,6-IGERAN,7-IGERBN,8-IGERCN,9-IGERAT,10-IGERBT,11-IGERCT,12-IN,13-IFD,14-IFAULT,15-VFAULT,16-Speed (rad/s),17-FAULT 
0.000000,69.146335,78.867034,-200.663258,-0.917352,0.150127,-5.819438,5.091650,0.275811,5.733915,-4.929072,-0.026156,0.319461,-0.039427,32.009638,188.194665,0
0.001042,17.537958,151.485347,-171.905682,-0.453642,2.521713,-6.454411,3.281936,-2.120778,6.527090,-3.292462,-0.077298,0.319396,-0.013287,10.961728,188.194618,0
0.002083,-28.784814,199.229080,-104.874432,0.858318,4.658980,-5.882935,0.658783,-4.135089,5.947946,-0.769949,-0.124787,0.290653,-0.050629,-4.295461,188.270058,0
0.003125,-99.981690,194.227586,-49.464394,1.910148,6.160748,-4.632831,-1.927056,-5.862692,4.819036,1.720544,-0.161317,0.297773,-0.017021,-35.002111,188.194598,0
0.004167,-165.575370,144.164320,-0.295833,2.871498,6.661337,-2.708068,-4.128565,-6.285403,2.884361,3.851694,-0.201500,0.304763,-0.031958,-62.915190,188.194569,0
0.005208,-201.122767,83.373211,53.550758,3.889398,5.954832,-0.084834,-5.718128,-5.686256,0.286608,5.509650,-0.256295,0.312275,-0.035692,-78.681330,188.194520,0
0.006250,-174.978303,31.739427,135.367046,5.438868,4.701584,2.328065,-6.650971,-4.340931,-2.134884,6.345744,-0.270907,0.322270,-0.017021,-73.218600,188.345391,0
0.007292,-129.199971,-17.417771,190.260038,6.445458,2.741830,4.074242,-6.192012,-2.510408,-3.931069,6.118042,-0.267254,0.338601,-0.009553,-57.067920,188.194613,0
0.008333,-69.413651,-79.006220,200.699432,6.682968,-0.023837,5.979162,-5.262901,0.290514,-5.735646,5.139634,-0.248989,0.317044,-0.039427,-27.435721,188.194580,0
0.009375,-18.315687,-151.274188,171.781819,6.162708,-2.384772,6.522858,-3.374828,2.676076,-6.503641,3.449657,-0.216112,0.322270,-0.039427,-6.602701,188.194573,0
0.010417,28.460786,-199.489076,105.538447,4.895988,-4.553992,6.038691,-0.792720,4.763902,-5.966465,0.952049,-0.175929,0.312145,-0.028224,8.756278,188.270011,0
0.011458,99.986594,-193.521109,50.226894,3.866778,-6.069960,4.740964,1.778194,6.432692,-4.841751,-1.627390,-0.080951,0.303456,-0.054364,40.446898,188.194696,0
0.012500,165.671014,-144.231021,0.861364,2.939358,-6.577650,2.847949,4.020747,6.877458,-2.915469,-3.794119,-0.044421,0.307964,-0.043161,67.873647,188.269997,0
0.013542,200.401751,-83.174132,-53.477652,1.864908,-5.846293,0.173124,5.632699,6.274635,-0.300929,-5.398708,-0.011544,0.310773,-0.028224,84.442797,188.195364,0
0.014583,174.937837,-30.887979,-135.392425,0.292818,-4.600145,-2.204058,6.535690,4.914607,2.107972,-6.227686,-0.004238,0.328018,-0.013287,78.618147,188.276317,0
0.015625,128.218077,18.160491,-190.420834,-0.691152,-2.615540,-3.978015,6.039418,3.047326,3.979697,-5.992868,0.014027,0.304110,-0.050629,61.415637,188.269651,0
0.016667,67.705837,79.193218,-201.204925,-0.906042,0.121725,-5.815469,5.110307,0.268459,5.746505,-4.968208,-0.004238,0.314888,-0.069301,31.500688,188.269635,0
0.017708,17.038888,151.533671,-171.548675,-0.408402,2.546565,-6.478223,3.319250,-2.139157,6.535483,-3.313810,-0.069992,0.292351,-0.009553,11.267098,188.194163,0
0.018750,-28.807499,199.869368,-104.862122,0.869628,4.673182,-5.930558,0.692365,-4.215956,5.994110,-0.809085,-0.132093,0.310903,-0.013287,-3.865681,188.344903,0
0.019792,-100.696268,193.840997,-50.535417,1.887528,6.199801,-4.684423,-1.904668,-5.899449,4.894576,1.699197,-0.157664,0.307180,-0.043161,-35.194381,188.269581,0
0.020833,-166.437400,144.526747,-0.948295,2.814948,6.725242,-2.696162,-4.102445,-6.292755,2.901147,3.901504,-0.219765,0.309597,-0.024490,-64.068810,188.269695,0
0.021875,-200.986657,84.629625,53.969318,3.878088,6.000986,-0.053085,-5.736785,-5.748744,0.307591,5.506093,-0.248989,0.315933,0.001650,-77.222340,188.194161,0
0.022917,-175.363948,32.319310,135.884091,5.450178,4.722885,2.336002,-6.677090,-4.407095,-2.055147,6.388439,-0.267254,0.325601,-0.035692,-73.523970,188.269704,0
0.023960,-128.973121,-17.611066,190.703220,6.479388,2.677925,4.141708,-6.225595,-2.539814,-3.985626,6.157179,-0.281866,0.342651,-0.054364,-54.568410,188.207605,0
0.025003,-68.177319,-79.706912,201.081061,6.649038,-0.038038,5.979162,-5.277827,0.294190,-5.844761,5.104056,-0.256295,0.332461,-0.043161,-25.648741,188.273436,0
0.026042,-17.419629,-151.564130,171.375569,6.117468,-2.423825,6.590324,-3.449455,2.712833,-6.574985,3.460331,-0.190541,0.313647,-0.020755,-6.161611,188.194027,0
0.027083,28.857773,-200.250173,104.270455,4.884678,-4.575293,6.070440,-0.826302,4.815362,-5.979055,0.937817,-0.186888,0.318285,-0.054364,9.140818,188.344896,0
0.028125,100.134046,-193.509028,49.672917,3.844158,-6.144516,4.756838,1.789388,6.524586,-4.862734,-1.616717,-0.069992,0.300909,-0.073035,39.327208,188.420325,0
0.029167,166.272167,-143.337034,0.885985,2.928048,-6.627354,2.863824,3.998359,6.962000,-2.902879,-3.790561,-0.059033,0.309466,-0.043161,68.970717,188.269536,0
0.030208,200.367723,-82.811705,-53.773106,1.887528,-5.906648,0.188998,5.617773,6.340798,-0.275749,-5.402266,-0.007891,0.314692,-0.024490,82.599267,188.194164,0
0.031250,174.654274,-31.383296,-136.623485,0.258888,-4.610796,-2.215963,6.599124,4.984447,2.133153,-6.330864,0.028639,0.312732,-0.050629,77.057367,188.344871,0
0.032292,128.943997,17.858468,-190.556251,-0.713772,-2.675894,-3.985952,6.136434,3.106138,3.975501,-6.021331,-0.000585,0.329782,-0.024490,60.465597,188.420197,0
0.033333,69.021567,80.002638,-201.217235,-0.928662,0.160778,-5.894841,5.188666,0.272135,5.855619,-5.010902,-0.015197,0.324622,-0.028224,31.998328,188.269415,0
0.034382,17.628698,152.210202,-170.576137,-0.351852,2.582068,-6.513940,3.252085,-2.194293,6.615220,-3.274673,-0.055380,0.324360,-0.039427,11.187928,188.194101,0
0.035417,-29.023007,201.222429,-104.135796,0.903558,4.790341,-5.978181,0.614006,-4.278444,6.036077,-0.762833,-0.077298,0.315215,-0.020755,-4.329391,188.344952,0
0.036458,-100.821035,193.152385,-49.981440,1.921458,6.285008,-4.684423,-1.949445,-5.969289,4.936543,1.773911,-0.161317,0.304501,-0.050629,-35.420581,188.420403,0
0.037500,-168.036693,143.209928,-0.899053,2.792328,6.806899,-2.708068,-4.233043,-6.417730,2.922131,3.915735,-0.208806,0.307506,-0.050629,-63.819990,188.269570,0
0.038542,-200.544299,82.865813,54.006250,3.889398,5.993885,0.006443,-5.792756,-5.741392,0.240444,5.619944,-0.259948,0.314170,-0.043161,-78.590850,188.271079,0
0.039583,-174.955618,31.159544,136.967425,5.450178,4.754838,2.447122,-6.807688,-4.388716,-2.168458,6.516521,-0.285519,0.313059,-0.043161,-72.992400,188.367155,0
0.040625,-128.020351,-18.070140,190.333902,6.490698,2.724079,4.169488,-6.296491,-2.547165,-4.010806,6.164294,-0.263601,0.357741,-0.028224,-56.683380,188.299422,0
0.041666,-67.269919,-79.996854,201.548864,6.660348,-0.069990,6.106157,-5.341260,0.356677,-5.869941,5.210791,-0.238030,0.320375,-0.046895,-26.621401,188.288445,0
0.042708,-17.204121,-151.346673,170.796970,6.094848,-2.480629,6.685570,-3.419604,2.775321,-6.612755,3.453215,-0.216112,0.308617,-0.046895,-6.568771,188.208279,0
0.043750,28.982541,-201.772367,104.147349,4.873368,-4.642749,6.129968,-0.796451,4.881526,-6.025218,0.980511,-0.128440,0.318742,-0.039427,8.824138,188.359704,0
0.044791,100.633116,-192.457990,50.928599,3.889398,-6.148067,4.875896,1.822970,6.561344,-4.908898,-1.659411,-0.113828,0.308356,-0.035692,40.933228,188.441547,0
0.045833,168.223077,-143.409519,1.612311,2.939358,-6.687709,2.887635,4.046867,7.039191,-2.932256,-3.847487,-0.080951,0.313124,-0.024490,68.823687,188.352465,0
0.046875,199.664488,-83.536559,-54.228599,1.853598,-5.935050,0.192967,5.677475,6.362853,-0.296733,-5.462749,-0.029809,0.317240,-0.024490,84.386247,188.272944,0
0.047916,174.994549,-31.624915,-137.226705,0.270198,-4.610796,-2.267555,6.670020,4.984447,2.133153,-6.359326,0.006721,0.326320,-0.024490,78.493737,188.420325,0
0.048971,127.480815,19.392743,-190.408523,-0.747702,-2.523232,-4.077229,6.091657,2.995866,4.030058,-5.982195,-0.029809,0.339124,-0.028224,60.850137,188.420368,0
0.050010,66.628300,81.778531,-201.894319,-0.939972,0.167878,-5.942464,5.211054,0.194944,5.893389,-5.057154,-0.004238,0.324295,-0.028224,30.629818,188.495834,0
0.051050,16.505790,152.149797,-169.862122,-0.340542,2.610470,-6.490128,3.270742,-2.238402,6.627810,-3.278231,-0.069992,0.318481,-0.028224,10.758148,188.269490,0
0.052088,-29.249857,202.696300,-102.387690,0.903558,4.825844,-5.982150,0.669977,-4.337256,6.069650,-0.777065,-0.121134,0.279874,-0.013287,-4.046641,188.420312,0
0.053131,-101.342790,192.210075,-48.922727,1.921458,6.299209,-4.672517,-1.979296,-5.991343,4.902970,1.809490,-0.146705,0.305285,-0.028224,-35.669401,188.495731,0
0.054173,-169.341081,142.255537,-0.455871,2.814948,6.821100,-2.747754,-4.188267,-6.425082,2.926327,3.972661,-0.234377,0.310119,-0.039427,-65.018850,188.495790,0
0.055213,-200.147312,82.696680,54.929546,3.934638,5.997435,-0.005462,-5.830069,-5.759771,0.299198,5.566576,-0.227071,0.316587,-0.031958,-77.097930,188.269687,0
0.056262,-174.785481,31.123301,139.417235,5.529348,4.747737,2.439185,-6.792763,-4.454880,-2.181048,6.527195,-0.278213,0.329456,-0.031958,-73.297770,188.420311,0
0.057299,-128.360626,-18.505053,190.690910,6.456768,2.670825,4.193299,-6.255446,-2.514084,-3.964642,6.164294,-0.270907,0.346636,-0.017021,-54.240420,188.495821,0
0.058338,-68.358799,-81.108297,201.511932,6.694278,-0.066440,6.106157,-5.326334,0.297865,-5.869941,5.175213,-0.230724,0.332722,-0.039427,-25.660051,188.495770,0
0.059383,-17.589766,-152.228579,170.009091,6.083538,-2.494830,6.661759,-3.400948,2.786348,-6.591772,3.446099,-0.212459,0.319984,-0.028224,-6.353881,188.344961,0
0.060421,29.175363,-202.219360,103.396402,4.907298,-4.653399,6.133937,-0.774063,4.892553,-6.088169,0.909355,-0.168623,0.316913,-0.002084,9.174748,188.495785,0
0.061462,101.064131,-192.155967,49.549811,3.855468,-6.165818,4.836210,1.852821,6.495180,-4.883718,-1.616717,-0.117481,0.307702,0.001650,39.847468,188.495770,0
0.062502,169.005709,-142.104782,0.762879,2.894118,-6.737413,2.836044,4.091643,7.002434,-2.886092,-3.875949,-0.040768,0.310315,-0.080503,69.932067,188.495837,0
0.063542,199.914023,-82.074770,-54.179356,1.853598,-5.895997,0.161218,5.707326,6.359177,-0.263159,-5.437844,-0.018850,0.315999,-0.005818,82.429617,188.420401,0
0.064583,174.427424,-30.356420,-137.571402,0.292818,-4.649849,-2.251681,6.662557,4.966068,2.191906,-6.384231,0.028639,0.316979,-0.058098,76.978197,188.495732,0
0.065625,127.492157,18.957831,-190.642425,-0.725082,-2.615540,-4.025638,6.158822,3.095111,3.996484,-6.078256,-0.007891,0.312732,-0.054364,59.922717,188.495808,0
0.066667,66.832465,80.908706,-201.709660,-0.951282,0.146577,-5.990087,5.248368,0.275811,5.901783,-5.042923,-0.022503,0.309074,-0.024490,31.342348,188.495750,0
0.067708,17.118285,152.004826,-170.748485,-0.363162,2.585618,-6.549657,3.308056,-2.190618,6.661384,-3.360062,-0.048074,0.317175,-0.043161,11.402818,188.420349,0
0.068750,-29.193144,202.442601,-103.741856,0.858318,4.840045,-6.029773,0.666246,-4.337256,6.107421,-0.755718,-0.150358,0.306265,-0.043161,-4.363321,188.495756,0
0.069792,-101.603668,192.270479,-50.387690,1.898838,6.316960,-4.688391,-1.971833,-6.017073,4.923953,1.813048,-0.172276,0.306853,-0.039427,-35.748571,188.495678,0
0.070833,-169.794781,142.944148,-1.280682,2.814948,6.824650,-2.727911,-4.244237,-6.461839,2.913737,3.983334,-0.245336,0.312798,-0.028224,-64.509900,188.495776,0
0.071875,-200.056572,83.240321,54.597159,3.889398,6.079092,-0.013399,-5.803950,-5.792853,0.320181,5.623501,-0.278213,0.317175,-0.058098,-78.511680,188.571228,0
0.072917,-175.046358,31.425323,138.260038,5.518038,4.776140,2.451091,-6.826345,-4.440177,-2.193638,6.534310,-0.281866,0.327235,-0.028224,-72.981090,188.495747,0
0.073958,-128.179146,-18.299677,190.493940,6.468078,2.727629,4.185362,-6.281565,-2.503056,-4.040183,6.182083,-0.248989,0.340757,-0.020755,-56.626830,188.498215,0
0.075000,-67.054411,-80.818356,201.930493,6.694278,-0.094842,6.102188,-5.326334,0.323596,-5.878334,5.214349,-0.227071,0.325601,-0.031958,-26.146381,188.495703,0
0.076042,-16.852504,-151.576210,170.242993,6.117468,-2.491280,6.630010,-3.427067,2.745915,-6.608559,3.460331,-0.190541,0.329913,-0.020755,-6.127681,188.646572,0
0.077083,29.379528,-202.702596,102.731629,4.884678,-4.667600,6.133937,-0.788989,4.863147,-6.033612,0.905797,-0.150358,0.335335,-0.035692,9.039028,188.571179,0
0.078125,100.644459,-191.938511,49.365152,3.855468,-6.151617,4.788587,1.849090,6.546641,-4.841751,-1.623832,-0.084604,0.305155,-0.020755,41.001088,188.495761,0
0.079168,169.017052,-142.225591,0.984470,2.905428,-6.669957,2.840012,4.058061,6.965676,-2.894485,-3.829697,-0.040768,0.312406,-0.039427,69.185607,188.495734,0
0.080209,199.369583,-82.352630,-54.573296,1.864908,-5.871145,0.149312,5.666281,6.326095,-0.309323,-5.384476,-0.026156,0.320637,-0.061832,84.284457,188.646418,0
0.081250,174.926494,-31.492025,-137.866856,0.292818,-4.639198,-2.263587,6.658826,4.962392,2.141546,-6.337979,0.006721,0.327235,-0.013287,78.358017,188.571089,0
0.082292,128.490297,18.184653,-190.334660,-0.759012,-2.601339,-4.049449,6.117777,3.062029,4.030058,-6.032004,0.035945,0.337425,-0.009553,61.381707,188.495803,0
0.083334,68.012085,80.920787,-201.598864,-0.928662,0.125275,-5.930558,5.177472,0.231702,5.855619,-5.021576,0.035945,0.333702,-0.031958,31.184008,188.571047,0
0.084375,17.537958,151.944422,-170.366857,-0.363162,2.596269,-6.502034,3.259548,-2.227375,6.569057,-3.296020,-0.044421,0.340822,-0.009553,11.074828,188.721851,0
0.085417,-29.306569,202.164740,-102.990909,0.903558,4.772589,-5.958338,0.632663,-4.322553,6.015093,-0.723697,-0.121134,0.322466,0.001650,-4.057951,188.571105,0
0.086458,-101.388160,192.524178,-49.242803,1.910148,6.231754,-4.652674,-1.990490,-5.910477,4.877790,1.759680,-0.150358,0.303456,-0.050629,-35.522371,188.495702,0
0.087500,-168.864696,142.472993,-0.418939,2.837568,6.721692,-2.688225,-4.210655,-6.392000,2.867574,3.958429,-0.197847,0.306396,-0.017021,-64.747410,188.721922,0
0.088542,-200.249394,82.153039,54.720265,3.923328,5.972583,-0.021337,-5.759173,-5.708310,0.282411,5.573692,-0.248989,0.310773,-0.028224,-77.075310,188.721998,0
0.089583,-174.751453,30.277638,137.435228,5.506728,4.676732,2.375688,-6.733061,-4.362986,-2.218818,6.452480,-0.267254,0.314300,-0.017021,-73.365630,188.571183,0
0.090625,-127.532624,-18.468810,190.592425,6.569868,2.688576,4.181394,-6.206938,-2.543490,-3.985626,6.142947,-0.256295,0.356566,-0.024490,-54.319590,188.571064,0
0.091667,-66.940986,-80.528414,201.314963,6.728208,-0.038038,6.042659,-5.270364,0.316244,-5.823777,5.118287,-0.238030,0.321486,-0.035692,-25.693981,188.721954,0
0.092708,-17.102039,-151.950718,170.452273,6.117468,-2.469978,6.614136,-3.367365,2.694454,-6.579182,3.424752,-0.212459,0.319330,-0.031958,-6.500911,188.797251,0
0.093750,29.458926,-201.566991,103.765720,4.895988,-4.639198,6.070440,-0.777795,4.855795,-6.004235,0.912912,-0.132093,0.317240,-0.050629,9.242608,188.571145,0
0.094792,101.290981,-192.228452,50.251515,3.821538,-6.105463,4.776681,1.841627,6.476801,-4.879521,-1.606043,-0.069992,0.308356,-0.054364,39.892708,188.646734,0
0.095833,168.620064,-142.672584,0.984470,2.894118,-6.641555,2.836044,4.046867,6.939946,-2.907076,-3.787003,-0.026156,0.310969,-0.058098,69.728487,188.721954,0
0.096875,199.709858,-82.606329,-54.770265,1.864908,-5.853393,0.157250,5.658819,6.293014,-0.246372,-5.398708,0.014027,0.316064,-0.046895,82.418307,188.797369,0
0.097917,174.461452,-30.718847,-137.719129,0.258888,-4.607246,-2.315178,6.614049,4.966068,2.170923,-6.316632,0.021333,0.314823,-0.020755,76.910337,188.571051,0
0.098958,127.719007,19.090720,-190.470076,-0.725082,-2.558735,-4.033575,6.080463,3.010569,3.950320,-5.967963,-0.011544,0.338013,-0.035692,59.764377,188.721795,0
0.100000,66.753067,81.210729,-201.475758,-0.894732,0.192730,-5.910715,5.166278,0.250081,5.864012,-5.000229,-0.048074,0.309727,-0.031958,30.889948,188.721867,0
0.101042,16.381023,151.896098,-170.206819,-0.363162,2.617570,-6.442505,3.263279,-2.212672,6.619417,-3.274673,-0.040768,0.311295,-0.031958,10.803388,188.798217,0
0.102083,-29.760270,202.333872,-102.289205,0.880938,4.790341,-5.942464,0.621469,-4.326228,6.044470,-0.730813,-0.128440,0.313582,-0.009553,-4.646071,188.571046,0
0.103125,-101.342790,192.161751,-48.971970,1.932768,6.270807,-4.609020,-1.968102,-5.939883,4.856806,1.805932,-0.161317,0.302346,-0.002084,-35.850361,188.797387,0
0.104166,-169.284368,142.291780,-0.394318,2.860188,6.796248,-2.731879,-4.195729,-6.384648,2.884361,3.947756,-0.205153,0.311818,-0.054364,-64.475970,188.721761,0
0.105208,-199.954489,82.829570,55.101894,3.945948,5.979684,-0.009431,-5.770368,-5.708310,0.290804,5.591481,-0.256295,0.317566,-0.061832,-78.477750,188.797324,0
0.106250,-174.853536,31.703184,138.333902,5.506728,4.712235,2.423311,-6.792763,-4.399743,-2.210425,6.434691,-0.263601,0.317566,-0.028224,-72.947160,188.646424,0
0.107291,-128.610161,-18.299677,190.370834,6.513318,2.631772,4.165519,-6.206938,-2.481002,-3.985626,6.135831,-0.238030,0.336968,-0.035692,-56.739930,188.797291,0
0.108333,-68.131949,-81.120378,201.438069,6.671658,-0.062890,6.070440,-5.259170,0.312568,-5.836367,5.125403,-0.252642,0.326647,-0.009553,-26.508301,188.797329,0
0.109377,-17.011299,-151.745343,169.996781,6.106158,-2.494830,6.586355,-3.322589,2.775321,-6.587575,3.392732,-0.183235,0.322466,-0.024490,-6.116371,188.797378,0
0.110417,29.663091,-202.424735,102.867046,4.873368,-4.678251,6.046628,-0.718093,4.870498,-5.945481,0.863103,-0.146705,0.312406,-0.031958,9.208678,188.646556,0
0.111458,101.075474,-191.769378,49.131250,3.832848,-6.123215,4.721121,1.871478,6.513559,-4.820767,-1.648737,-0.102869,0.302346,-0.046895,41.057638,188.797309,0
0.112500,168.824229,-142.056458,0.221212,2.916738,-6.645105,2.824138,4.046867,6.958325,-2.844125,-3.840371,-0.040768,0.305808,-0.017021,69.061197,188.797257,0
0.113541,199.380926,-81.361996,-54.856440,1.864908,-5.832092,0.129470,5.628968,6.270959,-0.191815,-5.409381,-0.004238,0.313124,-0.035692,84.318387,188.797249,0
0.114583,174.370712,-29.873183,-137.571402,0.270198,-4.603695,-2.247712,6.628975,4.947689,2.166726,-6.316632,-0.004238,0.325536,-0.024490,78.312777,188.797262,0
0.115625,127.129197,19.320258,-190.371591,-0.713772,-2.572936,-4.033575,6.035687,3.017920,3.992287,-5.964405,-0.000585,0.343696,-0.031958,61.178127,188.797365,0
0.116666,66.787095,81.319457,-201.598864,-0.917352,0.132376,-5.918652,5.099113,0.205972,5.826242,-4.953977,-0.037115,0.325405,-0.009553,31.206628,188.797311,0
0.117708,17.095600,151.968584,-170.280682,-0.340542,2.599819,-6.446474,3.211040,-2.190618,6.577450,-3.271115,-0.044421,0.313190,-0.024490,11.142688,188.797333,0
0.118750,-29.646845,201.971445,-103.274053,0.880938,4.740637,-5.926589,0.595350,-4.307850,5.977323,-0.709466,-0.102869,0.316064,-0.035692,-4.159741,188.948075,0
0.119791,-101.819175,192.210075,-49.685985,1.910148,6.270807,-4.605051,-2.012878,-5.892098,4.831626,1.802374,-0.146705,0.304175,-0.024490,-35.782501,188.797365,0
0.120833,-169.102888,142.533398,-0.480492,2.848878,6.760745,-2.656476,-4.229312,-6.355242,2.880164,3.997566,-0.223418,0.308421,-0.028224,-64.917060,188.797284,0
0.121875,-199.988517,82.358415,55.138826,3.923328,5.972583,0.026286,-5.751711,-5.656850,0.232051,5.541671,-0.227071,0.310642,0.001650,-77.041380,188.797239,0
0.122916,-174.694741,30.555498,137.767614,5.484108,4.669631,2.455060,-6.736792,-4.315201,-2.223015,6.427575,-0.248989,0.321290,-0.039427,-73.229910,188.872854,0
0.123958,-127.521281,-18.843318,190.629357,6.479388,2.610470,4.141708,-6.206938,-2.488353,-3.989822,6.089579,-0.263601,0.338405,-0.050629,-53.991600,188.797215,0
0.125000,-66.543999,-80.963327,201.524243,6.694278,-0.112594,6.002974,-5.210662,0.386083,-5.781810,5.068477,-0.234377,0.308486,-0.035692,-25.139791,188.797195,0
0.126042,-16.330749,-151.938638,169.885985,6.106158,-2.480629,6.542701,-3.326320,2.808403,-6.545608,3.357153,-0.164970,0.307572,-0.017021,-5.969341,188.797291,0
0.127083,29.980681,-202.074389,102.325379,4.850748,-4.628547,6.018848,-0.714361,4.848444,-5.966465,0.845313,-0.135746,0.311230,-0.031958,9.502738,188.947941,0
