1-Time,2-VGERA,3-VGERB,4-VGERC,5-VN,6-IGERAN,7-IGERBN,8-IGERCN,9-IGERAT,10-IGERBT,11-IGERCT,12-IN,13-IFD,14-IFAULT,15-VFAULT,16-Speed (rad/s),17-Active Power,18-Reactive Power,19-FAULT 
0.000000,164.491394,-156.891808,-30.703030,2.351238,-3.286542,3.371803,0.252064,3.503119,-3.364515,-0.122421,-0.091910,0.391776,-0.069301,74.874537,188.495736,1046.188189,95.843319,0
0.001042,176.673240,-90.591807,-88.661364,1.242858,-3.744528,2.181227,1.819239,3.984643,-2.214621,-1.606043,-0.106522,0.391122,-0.054364,75.428727,188.420242,1046.327554,97.178376,0
0.002083,181.006075,-15.412341,-141.178410,0.281508,-3.804883,1.101773,2.796858,4.028752,-1.026957,-2.676955,-0.026156,0.393017,-0.024490,66.980157,188.495718,1045.724501,97.297818,0
0.003125,139.787428,51.407139,-171.597917,-0.295302,-2.991869,-0.461849,3.449848,3.293602,0.437689,-3.217748,-0.069992,0.393931,-0.031958,43.907757,188.420303,1045.003184,98.100644,0
0.004167,64.461882,102.557686,-194.778788,-0.759012,-2.011992,-2.132623,3.938657,2.286446,2.166726,-3.751425,-0.055380,0.398047,-0.024490,10.498018,188.420206,1044.807597,98.952388,0
0.005208,2.690624,155.000891,-165.639584,-0.238752,-0.591881,-2.981900,3.259548,0.908040,2.930524,-3.157264,-0.055380,0.405037,-0.028224,-12.902371,188.420359,1045.452909,99.194038,0
0.006250,-60.793351,186.604535,-116.163258,0.699978,1.012845,-3.751805,2.315511,-0.768102,3.782453,-2.289150,-0.080951,0.397720,-0.024490,-36.280141,188.495667,1045.855192,99.611074,0
0.007292,-115.906561,185.481011,-38.766477,2.113728,2.425855,-3.704182,0.923710,-2.146509,3.744683,-0.972746,-0.110175,0.393605,-0.017021,-57.542940,188.420215,1046.566730,99.981901,0
0.008333,-164.452463,157.429152,30.616099,3.448308,3.391531,-3.192235,-0.408389,-3.138961,3.354390,0.350773,-0.132093,0.394062,-0.020755,-69.180930,188.495731,1046.913318,100.605655,0
0.009375,-177.065323,90.923776,88.525190,4.556688,3.902771,-2.037377,-1.997953,-3.649890,2.200300,1.827279,-0.164970,0.390012,-0.046895,-71.126250,188.420291,1047.261593,101.185994,0
0.010417,-181.352789,15.816795,141.153031,5.529348,3.902771,-0.902362,-2.994228,-3.686648,1.025226,2.930211,-0.212459,0.394323,-0.043161,-60.426990,188.495606,1047.923027,101.279763,0
0.011458,-139.725812,-51.123494,171.757197,6.185328,3.139461,0.653323,-3.643487,-2.973552,-0.435223,3.499467,-0.175929,0.394977,-0.043161,-37.331971,188.420251,1049.082801,101.666962,0
0.012500,-64.366239,-102.213637,194.987311,6.581178,2.120531,2.316159,-4.061400,-1.889206,-2.176851,3.972661,-0.212459,0.397851,-0.024490,-4.838341,188.420276,1049.570047,101.494414,0
0.013542,-2.685721,-154.668922,165.934281,6.049608,0.707521,3.133687,-3.427067,-0.576963,-2.995206,3.385616,-0.183235,0.404122,-0.035692,20.394268,188.420251,1051.365695,101.493901,0
0.014583,60.174417,-186.502104,116.765720,5.133498,-0.932708,3.891687,-2.453180,1.132261,-3.805168,2.489039,-0.179582,0.399745,-0.050629,39.553408,188.495667,1051.833256,101.649612,0
0.015625,115.480449,-185.366499,39.590530,3.708438,-2.274713,3.855970,-1.050185,2.532721,-3.771594,1.147730,-0.161317,0.396479,-0.035692,62.999037,188.420291,1052.679864,100.866063,0
0.016667,164.525421,-157.266316,-29.915152,2.339928,-3.279442,3.439268,0.252064,3.510471,-3.389695,-0.157999,-0.113828,0.397132,-0.024490,73.800087,188.420314,1053.112959,100.375111,0
0.017708,176.900090,-91.220014,-88.341288,1.254168,-3.794232,2.212976,1.849090,4.003021,-2.214621,-1.670084,-0.077298,0.395107,-0.035692,75.541827,188.420330,1053.803771,99.543401,0
0.018750,181.108157,-15.859335,-141.042993,0.247578,-3.868788,1.058118,2.819246,4.094915,-1.056334,-2.684071,-0.062686,0.375967,-0.013287,65.702127,188.495738,1054.647849,99.960266,0
0.019792,139.878168,51.829970,-171.462501,-0.329232,-3.069975,-0.477724,3.490893,3.319332,0.387328,-3.271115,-0.069992,0.416077,-0.073035,41.396938,188.495691,1055.316065,100.642662,0
0.020833,63.781332,102.654333,-194.852652,-0.781632,-2.022643,-2.168340,3.946120,2.315852,2.149939,-3.843929,-0.029809,0.374073,-0.065566,8.903308,188.420285,1056.344392,101.399965,0
0.021875,2.010074,154.626383,-165.984281,-0.204822,-0.638035,-2.946183,3.330444,0.963176,2.917934,-3.189285,-0.044421,0.408891,-0.031958,-14.519701,188.420386,1056.537231,102.358330,0
0.022917,-60.543816,186.846154,-116.421781,0.722598,0.987993,-3.771648,2.378944,-0.738696,3.790846,-2.367422,-0.066339,0.400007,-0.046895,-36.495031,188.495595,1057.156260,103.286899,0
0.023958,-115.668368,185.577659,-39.665152,2.113728,2.379702,-3.700214,1.005800,-2.091372,3.769863,-1.036788,-0.124787,0.398831,-0.005818,-57.599490,188.420314,1057.265219,104.288461,0
0.025000,-165.121670,157.417071,29.705114,3.425688,3.441235,-3.271607,-0.371075,-3.146313,3.434127,0.329426,-0.128440,0.398308,-0.043161,-70.832190,188.420238,1058.171477,104.937712,0
0.026042,-176.838473,92.059381,88.414394,4.534068,3.920523,-2.092937,-1.960639,-3.635187,2.271643,1.827279,-0.186888,0.394519,-0.039427,-70.549440,188.420251,1058.525752,105.410530,0
0.027083,-181.500241,16.529569,141.325379,5.551968,3.959576,-0.890456,-3.005422,-3.723405,1.033619,2.915980,-0.183235,0.407062,-0.024490,-61.037730,188.495589,1058.909126,105.603846,0
0.028125,-140.429047,-51.292626,171.252463,6.151398,3.174964,0.645385,-3.621098,-2.944146,-0.380666,3.467446,-0.190541,0.374595,-0.020755,-37.739131,188.420175,1058.180585,105.995809,0
0.029167,-63.991936,-102.237798,195.368940,6.592488,2.120531,2.332034,-4.109908,-1.951694,-2.151671,4.008239,-0.208806,0.424177,-0.031958,-5.098471,188.420175,1058.753755,107.002028,0
0.030208,-1.982486,-154.234009,166.155872,6.083538,0.760775,3.129719,-3.464381,-0.569612,-2.949042,3.389174,-0.190541,0.395499,-0.031958,18.810868,188.420314,1058.255438,107.296093,0
0.031250,60.265157,-186.985340,116.716478,5.167428,-0.907856,3.923436,-2.520344,1.132261,-3.842938,2.517501,-0.172276,0.406996,0.001650,40.412968,188.495622,1059.004484,107.557037,0
0.032292,115.219572,-185.390661,40.082955,3.685818,-2.260512,3.891687,-1.139737,2.510667,-3.796774,1.186867,-0.157664,0.397067,-0.050629,62.229957,188.420415,1059.243413,108.091065,0
0.033333,164.956437,-157.447530,-29.188826,2.362548,-3.322045,3.411488,0.266989,3.558256,-3.444252,-0.161557,-0.135746,0.398308,-0.028224,75.100737,188.420254,1060.363937,108.071821,0
0.034375,176.741295,-92.210648,-88.119697,1.254168,-3.815534,2.248693,1.893866,4.036103,-2.285965,-1.645179,-0.088257,0.395826,-0.017021,75.451347,188.421150,1061.102344,108.782291,0
0.035417,181.403062,-16.415056,-141.227652,0.247578,-3.836835,1.066055,2.867754,4.113294,-1.052137,-2.708976,-0.055380,0.400529,-0.028224,67.138497,188.502714,1061.658533,108.510276,0
0.036458,140.207100,51.358815,-171.647160,-0.340542,-3.066425,-0.509472,3.535669,3.389171,0.416705,-3.356504,-0.044421,0.414705,-0.065566,43.670247,188.420557,1063.376333,108.307225,0
0.037500,63.747305,102.424796,-195.320455,-0.826872,-2.026193,-2.211995,3.972239,2.312176,2.221283,-3.829697,-0.055380,0.400268,-0.013287,9.909898,188.420390,1063.771500,107.533445,0
0.038542,1.476977,154.868001,-166.095076,-0.238752,-0.641585,-3.053335,3.375220,0.871282,3.031245,-3.221306,-0.040768,0.409675,-0.039427,-12.981541,188.420426,1065.239594,106.157693,0
0.039583,-60.850063,186.834073,-116.335606,0.699978,1.069649,-3.866894,2.412527,-0.775454,3.878977,-2.353191,-0.055380,0.390077,-0.061832,-36.087871,188.495736,1066.301764,105.579417,0
0.040625,-115.486888,185.734710,-39.603599,2.113728,2.472009,-3.771648,0.964755,-2.205321,3.853797,-0.976304,-0.124787,0.401313,-0.039427,-57.689970,188.345126,1067.949967,104.167316,0
0.041667,-164.667970,158.069440,29.409659,3.414378,3.526442,-3.315261,-0.475554,-3.249234,3.455111,0.365004,-0.168623,0.397851,-0.013287,-69.260100,188.345187,1069.294762,103.206026,0
0.042708,-177.450968,92.216432,87.872728,4.511448,4.037682,-2.077063,-2.087505,-3.763839,2.217086,1.930457,-0.146705,0.396806,-0.050629,-71.397690,188.420446,1071.139135,101.438631,0
0.043750,-181.727091,17.181938,141.226894,5.563278,4.051883,-0.878551,-3.083781,-3.830002,1.025226,3.008484,-0.179582,0.404971,-0.024490,-60.540090,188.495816,1073.188042,100.917944,0
0.044795,-139.612387,-50.821471,172.618940,6.241878,3.221118,0.760474,-3.837518,-3.002958,-0.523354,3.588413,-0.179582,0.390469,-0.058098,-36.800401,188.284001,1075.572996,99.487506,0
0.045833,-64.116704,-101.742481,195.565910,6.581178,2.085029,2.411405,-4.165878,-1.933315,-2.290162,4.093627,-0.227071,0.415946,-0.017021,-4.171051,188.345824,1077.442446,97.994067,0
0.046875,-1.710266,-154.705165,166.365152,6.094848,0.672018,3.268619,-3.505426,-0.488745,-3.091730,3.456773,-0.219765,0.373746,-0.005818,20.631778,188.420291,1079.649304,96.731895,0
0.047917,60.616774,-186.767884,116.457955,5.122188,-1.017914,4.014713,-2.531538,1.187397,-3.922675,2.567311,-0.186888,0.405037,-0.017021,39.440308,188.495694,1081.071602,96.591005,0
0.048958,114.924667,-185.934301,39.381250,3.651888,-2.430925,3.963122,-1.076304,2.595209,-3.939462,1.161962,-0.157664,0.396348,-0.035692,63.281787,188.420244,1083.299765,96.098976,0
0.050000,164.253201,-157.858281,-29.287311,2.385168,-3.435654,3.510703,0.311765,3.653825,-3.469432,-0.222041,-0.117481,0.402750,-0.073035,73.664367,188.269518,1084.546675,95.001916,0
0.051042,177.523927,-92.162325,-87.405682,1.299408,-3.953995,2.252662,1.957300,4.105942,-2.260785,-1.751915,-0.084604,0.400268,-0.035692,76.005537,188.420144,1085.913457,93.528937,0
0.052083,181.595885,-17.611066,-141.129167,0.281508,-3.953995,1.014464,2.964769,4.172106,-1.035351,-2.865521,-0.040768,0.407127,-0.039427,65.679507,188.495618,1088.052322,92.135220,0
0.053125,140.207100,50.331938,-172.484281,-0.329232,-3.151632,-0.549158,3.643879,3.414901,0.509032,-3.491702,-0.066339,0.412549,-0.050629,41.283838,188.495656,1090.203538,90.680401,0
0.054173,63.656565,102.328149,-195.431251,-0.781632,-1.980040,-2.315178,4.024479,2.249689,2.301020,-3.907970,-0.048074,0.408891,-0.039427,8.326498,188.344882,1091.370312,89.401626,0
0.055212,1.363552,155.145861,-166.045834,-0.250062,-0.549278,-3.132706,3.438653,0.863931,3.123572,-3.292462,-0.069992,0.391188,-0.028224,-14.836381,188.420280,1093.054589,89.252277,0
0.056250,-60.679926,187.389794,-116.212500,0.666048,1.137104,-3.930392,2.401333,-0.885726,3.958714,-2.374538,-0.037115,0.387530,-0.046895,-36.234901,188.495577,1094.667504,88.155304,0
0.057292,-115.021846,186.230027,-38.754167,2.170278,2.546565,-3.835146,0.949830,-2.275160,3.870583,-0.965631,-0.077298,0.396740,-0.054364,-57.837000,188.495622,1095.354350,87.583242,0
0.058334,-164.667970,158.154006,29.705114,3.459618,3.565495,-3.350978,-0.445703,-3.330100,3.526455,0.404140,-0.128440,0.399876,-0.028224,-70.651230,188.344898,1096.937598,87.306043,0
0.059375,-177.700503,92.288918,87.392614,4.500138,4.108687,-2.092937,-2.124819,-3.800596,2.246463,1.951804,-0.164970,0.398569,-0.061832,-71.160180,188.423655,1097.672516,87.261617,0
0.060417,-182.067366,18.124248,141.374622,5.585898,4.126439,-0.858708,-3.147214,-3.870435,1.012636,3.068968,-0.194194,0.404449,-0.028224,-61.116900,188.513017,1098.805426,86.615999,0
0.061459,-140.633212,-49.456329,172.446591,6.117468,3.260171,0.756506,-3.830055,-3.087501,-0.540141,3.695149,-0.205153,0.410916,-0.065566,-37.614721,188.310954,1100.873484,86.245517,0
0.062500,-64.876651,-101.259245,195.947538,6.581178,2.113431,2.470934,-4.191998,-1.966397,-2.365702,4.164784,-0.263601,0.412810,-0.061832,-5.109781,188.365223,1102.508764,85.704710,0
0.063542,-2.277391,-154.536032,166.463637,6.049608,0.647166,3.367834,-3.527814,-0.499773,-3.167270,3.499467,-0.208806,0.402097,-0.058098,18.788248,188.433974,1103.711880,85.444722,0
0.064584,60.026964,-187.335686,116.433334,5.122188,-1.053417,4.098053,-2.520344,1.249885,-4.006609,2.560195,-0.186888,0.397263,-0.035692,40.073668,188.512078,1104.975269,84.462570,0
0.065625,114.799899,-186.175920,38.654924,3.685818,-2.480629,4.006776,-1.121081,2.676076,-3.922675,1.147730,-0.135746,0.397002,-0.039427,62.399607,188.423400,1105.352475,83.712555,0
0.066667,164.173804,-157.967009,-29.952083,2.362548,-3.499559,3.550389,0.352811,3.760422,-3.490416,-0.211367,-0.088257,0.399419,-0.054364,74.863227,188.346579,1106.652398,83.609041,0
0.067709,177.818832,-91.437470,-87.257955,1.310718,-3.989497,2.236788,2.024464,4.223566,-2.294358,-1.840861,-0.073645,0.400203,-0.039427,76.163877,188.420182,1108.653181,83.119461,0
0.068750,181.958845,-17.768118,-141.350758,0.258888,-3.996598,1.018432,3.031934,4.267675,-0.997580,-2.897541,-0.055380,0.401052,-0.005818,67.251597,188.495680,1110.044266,82.800595,0
0.069802,139.050165,50.295696,-174.232387,-0.419712,-3.155182,-0.695996,3.819253,3.466362,0.567786,-3.541512,-0.051727,0.409152,-0.046895,42.561868,188.495644,1111.368199,82.670422,0
0.070847,63.554482,102.448958,-195.505114,-0.781632,-1.976490,-2.390581,4.084180,2.271743,2.393347,-3.993358,-0.037115,0.412745,-0.043161,9.480118,188.344833,1113.125605,82.205211,0
0.071893,0.705687,157.006321,-165.171781,-0.272682,-0.435669,-3.291450,3.446116,0.790416,3.262063,-3.264000,-0.051727,0.373093,-0.035692,-13.603591,188.420188,1114.365376,80.918855,0
0.072926,-61.190338,186.785749,-115.646212,0.699978,1.243613,-3.974046,2.345362,-0.937187,4.046844,-2.321170,-0.095563,0.386288,-0.031958,-36.065251,188.495716,1115.003498,79.929582,0
0.073966,-115.736423,186.628697,-37.412311,2.181588,2.670825,-3.934360,0.905053,-2.422190,3.958714,-0.898032,-0.106522,0.391645,-0.065566,-58.255470,188.420238,1117.046930,78.640011,0
0.075011,-163.692515,158.202330,31.859470,3.493548,3.675553,-3.386696,-0.557644,-3.425670,3.459307,0.493086,-0.128440,0.398308,-0.065566,-68.762460,188.344905,1117.382681,77.075563,0
0.076045,-178.880124,90.198921,87.232576,4.545378,4.225846,-2.085000,-2.262880,-3.932923,2.204496,2.090560,-0.164970,0.396740,-0.020755,-72.449520,188.495707,1119.417206,75.634654,0
0.077085,-182.169449,17.653093,141.251516,5.551968,4.154841,-0.826959,-3.251693,-3.962329,0.958079,3.179261,-0.208806,0.405298,-0.039427,-60.336510,188.495749,1121.299739,74.672495,0
0.078125,-139.748497,-48.671070,173.886932,6.185328,3.324076,0.859689,-3.997967,-3.146313,-0.611485,3.801884,-0.197847,0.408630,-0.035692,-37.037911,188.495568,1123.317898,74.035379,0
0.079167,-65.421091,-100.812252,195.984470,6.637728,2.159585,2.550306,-4.255431,-1.951694,-2.458029,4.232383,-0.227071,0.415750,-0.046895,-4.544281,188.344932,1124.695356,72.902018,0
0.080208,-3.003311,-155.309210,166.549811,6.094848,0.576160,3.478954,-3.613636,-0.437285,-3.347728,3.556393,-0.186888,0.411569,-0.054364,20.145448,188.495618,1127.261437,71.360559,0
0.081250,59.607292,-186.900774,116.827273,5.133498,-1.177677,4.201237,-2.490493,1.371184,-4.140903,2.588658,-0.168623,0.400725,-0.024490,39.089698,188.495658,1129.416612,69.900227,0
0.082292,114.799899,-186.792046,38.445644,3.651888,-2.597788,4.074242,-1.027796,2.812078,-4.027593,1.090805,-0.157664,0.394062,-0.065566,63.519297,188.495595,1131.621848,68.447444,0
0.083333,163.266404,-158.317355,-30.456818,2.362548,-3.634470,3.538483,0.442363,3.867019,-3.503006,-0.335892,-0.146705,0.396871,-0.043161,73.257207,188.269527,1132.910831,66.543877,0
0.084375,178.680862,-89.891115,-86.445455,1.367268,-4.120858,2.272505,2.173719,4.293406,-2.252391,-1.933365,-0.080951,0.396479,-0.031958,77.091297,188.495653,1133.890963,65.336516,0
0.085417,181.981530,-16.994940,-140.870644,0.236268,-4.021450,0.939061,3.166263,4.293406,-0.951417,-2.997161,-0.080951,0.403273,-0.039427,65.351517,188.495680,1134.879368,64.315211,0
0.086458,139.560578,49.123848,-173.961554,-0.408402,-3.247489,-0.688059,3.864030,3.495768,0.626540,-3.623342,-0.037115,0.413725,-0.046895,41.182048,188.495741,1136.203324,63.231710,0
0.087500,65.267200,100.878441,-195.899054,-0.860802,-1.987140,-2.473921,4.162539,2.271743,2.464691,-4.036052,-0.066339,0.412549,-0.028224,9.186058,188.344970,1137.298027,61.885501,0
0.088542,3.155667,155.484127,-166.489016,-0.283992,-0.464071,-3.370821,3.524475,0.805119,3.337603,-3.388524,-0.033462,0.410785,-0.061832,-14.123851,188.495607,1139.366589,61.301890,0
0.089583,-59.625073,187.317309,-116.532576,0.666048,1.264914,-4.069292,2.393870,-0.988647,4.143368,-2.392327,-0.069992,0.400856,-0.054364,-35.839051,188.495763,1141.350992,60.703412,0
0.090625,-114.794996,187.136095,-38.520265,2.158968,2.763132,-4.001826,0.878934,-2.429541,4.030058,-0.898032,-0.095563,0.395695,-0.043161,-58.040580,188.498154,1142.267806,60.358983,0
0.091667,-163.998763,158.588919,30.640720,3.448308,3.796263,-3.410507,-0.572569,-3.535942,3.543241,0.517991,-0.146705,0.395238,-0.043161,-70.232760,188.344887,1144.343692,59.808767,0
0.092708,-179.050261,90.198921,86.432387,4.522758,4.247148,-2.069126,-2.288999,-3.988059,2.221283,2.126138,-0.172276,0.397132,-0.028224,-72.087600,188.495680,1145.222946,59.420047,0
0.093750,-182.328244,17.012805,140.820644,5.551968,4.190344,-0.815053,-3.318857,-3.977032,0.920308,3.253976,-0.201500,0.394585,-0.031958,-60.890700,188.495816,1145.927101,58.592487,0
0.094792,-139.555674,-48.912688,173.886932,6.196638,3.352478,0.871595,-4.042743,-3.149988,-0.678632,3.844578,-0.230724,0.396087,-0.028224,-37.207561,188.495772,1146.602167,57.822581,0
0.095833,-65.148871,-100.341097,196.341478,6.603798,2.134733,2.633646,-4.333790,-1.936991,-2.487406,4.278635,-0.230724,0.402881,-0.046895,-5.754451,188.344834,1147.257599,57.414093,0
0.096875,-3.661176,-155.224643,166.599054,6.072228,0.597462,3.554357,-3.673338,-0.422582,-3.351925,3.591971,-0.205153,0.410720,-0.046895,18.087028,188.495779,1147.666844,57.236865,0
0.097917,58.949427,-187.577304,117.159659,5.144808,-1.191878,4.244891,-2.535270,1.363833,-4.124116,2.588658,-0.194194,0.406017,-0.020755,39.847468,188.495626,1147.622218,57.145632,0
0.098958,114.482309,-186.767884,38.876515,3.651888,-2.658143,4.121865,-1.012871,2.867215,-4.048576,1.101478,-0.143052,0.395826,-0.050629,62.693667,188.495653,1148.285659,56.693785,0
0.100002,163.425199,-158.534811,-30.444508,2.339928,-3.687724,3.574200,0.520722,3.951561,-3.578546,-0.385702,-0.084604,0.395369,-0.031958,74.456067,188.420318,1150.019470,56.223840,0
0.101042,179.009795,-89.480364,-86.223864,1.333338,-4.167011,2.193133,2.278197,4.366921,-2.239801,-1.986733,-0.102869,0.394454,-0.043161,77.113917,188.495756,1151.086116,55.569047,0
0.102084,182.197037,-16.173438,-140.636743,0.258888,-4.078254,0.966841,3.207309,4.344866,-0.922040,-3.064760,-0.069992,0.401509,-0.050629,67.059327,188.495665,1152.175131,55.103116,0
0.103125,138.732575,49.341304,-174.515531,-0.397092,-3.282992,-0.767430,3.934926,3.466362,0.697884,-3.705173,-0.029809,0.416273,-0.076769,42.810688,188.495778,1153.025783,54.047643,0
0.104167,64.450540,100.528094,-196.329925,-0.815562,-2.019093,-2.525513,4.214778,2.290122,2.506658,-4.146346,-0.029809,0.398112,-0.050629,10.565878,188.420292,1154.635070,54.105920,0
0.105209,3.280434,156.003606,-166.562879,-0.261372,-0.428568,-3.454162,3.576714,0.720577,3.442521,-3.399198,-0.044421,0.408303,-0.013287,-12.404731,188.495758,1155.886081,52.616082,0
0.106250,-59.352853,187.281066,-117.123485,0.677358,1.367873,-4.144695,2.405064,-1.047459,4.231499,-2.374538,-0.102869,0.400268,-0.031958,-35.567611,188.495732,1157.068436,51.486427,0
0.107292,-115.271381,187.281066,-38.803409,2.136348,2.880291,-4.025638,0.841620,-2.576571,4.118188,-0.830433,-0.124787,0.394454,-0.028224,-58.345950,188.495655,1159.119156,49.769634,0
0.108333,-163.340898,159.011751,30.542235,3.448308,3.849517,-3.410507,-0.691973,-3.631512,3.560028,0.599822,-0.128440,0.395695,-0.050629,-68.762460,188.495745,1160.314264,48.307037,0
0.109375,-180.184511,89.172045,85.927652,4.500138,4.403360,-2.025471,-2.449448,-4.090980,2.183513,2.289799,-0.190541,0.395761,-0.017021,-73.410870,188.495665,1162.290538,46.362584,0
0.110417,-182.339586,16.577892,140.463637,5.551968,4.250698,-0.727745,-3.415873,-4.035844,0.836374,3.346480,-0.212459,0.399419,-0.054364,-59.974590,188.495653,1163.539789,45.013326,0
0.111459,-138.058464,-48.803960,175.278031,6.241878,3.359579,1.010495,-4.177073,-3.127934,-0.787746,3.994008,-0.219765,0.370284,-0.017021,-36.167041,188.495752,1165.374480,43.461374,0
