1-Time,2-VGERA,3-VGERB,4-VGERC,5-VN,6-IGERAN,7-IGERBN,8-IGERCN,9-IGERAT,10-IGERBT,11-IGERCT,12-IN,13-IFD,14-IFAULT,15-VFAULT,16-Speed (rad/s),17-Active Power,18-Reactive Power,19-FAULT 
0.000000,-153.218586,167.611631,4.719863,0.348047,2.486286,-6.422236,3.284921,-2.527261,6.348199,-3.127666,-0.064826,0.624392,-0.022156,-48.978502,188.495711,1555.765889,930.729798,0
0.001042,-183.389387,119.327894,73.401112,1.654126,4.706317,-5.964365,0.675286,-4.787015,5.908196,-0.515487,-0.021072,0.607649,-0.048173,-56.611646,188.495725,1556.224171,930.212317,0
0.002083,-187.513859,40.166526,127.305927,2.689981,5.898896,-4.692956,-1.625060,-5.979558,4.566616,1.757795,0.033621,0.609785,0.000144,-53.932165,188.565781,1556.668029,929.617724,0
0.003125,-158.518251,-28.847153,170.845367,3.455614,6.394275,-2.714300,-3.971799,-6.522658,2.573658,4.038692,0.066437,0.620672,-0.040740,-38.091702,188.570991,1557.285188,929.797104,0
0.004167,-104.922705,-95.993376,178.938380,3.680800,5.759456,-0.187834,-5.618768,-5.797258,-0.040481,5.645601,0.102898,0.626666,-0.037023,-16.768435,188.495781,1557.718055,929.589075,0
0.005208,-21.393657,-141.399585,185.172188,3.894726,4.306345,2.326367,-6.484781,-4.376841,-2.486384,6.422401,0.139360,0.628319,-0.033307,8.495245,188.495622,1558.789065,928.901422,0
0.006250,54.248043,-166.463436,149.020965,3.151613,2.222084,4.321376,-6.175491,-2.200641,-4.388753,6.003539,0.106545,0.631696,-0.025873,26.621148,188.571103,1559.061184,928.366154,0
0.007292,108.804082,-192.173263,65.842772,1.552792,-0.390581,6.005687,-5.139369,0.442701,-6.097003,4.929727,0.084667,0.622739,-0.044457,41.088095,188.495636,1559.891014,927.784879,0
0.008333,152.930291,-167.790622,-4.952867,0.201676,-2.478511,6.451293,-3.318423,2.618901,-6.355828,3.079116,0.059144,0.615642,-0.018440,49.070247,188.495687,1560.324402,927.233640,0
0.009375,183.315790,-119.201516,-73.500447,-1.104403,-4.702211,5.928012,-0.743583,4.893846,-5.885628,0.493591,0.037267,0.601931,-0.051890,57.108691,188.495617,1560.294589,926.663026,0
0.010417,187.564562,-38.865647,-126.457433,-2.185296,-5.905798,4.677044,1.595424,6.044612,-4.574245,-1.802537,-0.050241,0.614746,-0.022156,53.731194,188.646514,1560.644073,925.312966,0
0.011458,157.936158,30.265483,-170.069782,-2.995965,-6.320449,2.727004,3.895769,6.561127,-2.576973,-4.091050,-0.093995,0.559144,-0.040740,36.877482,188.571098,1560.724968,925.561707,0
0.012500,103.504417,96.589555,-178.818986,-3.176114,-5.718655,0.135128,5.558203,5.904089,-0.005971,-5.659881,-0.112226,0.596005,-0.033307,14.518449,188.495776,1560.355286,924.797907,0
0.013542,19.489473,141.114888,-185.198614,-3.378782,-4.364620,-2.297310,6.401019,4.495066,2.405421,-6.474759,-0.145042,0.620672,-0.051890,-7.874359,188.495622,1560.316331,924.511392,0
0.014583,-55.598531,166.037799,-148.974480,-2.601890,-2.346410,-4.316848,6.130390,2.356845,4.355241,-6.093975,-0.123164,0.631971,-0.018440,-26.675761,188.646332,1559.548850,924.825580,0
0.015625,-108.832479,191.841587,-65.565406,-1.003069,0.299280,-5.976629,5.105867,-0.267508,6.054864,-5.088705,-0.108580,0.621154,-0.048173,-39.915551,188.571151,1559.111881,925.636285,0
0.016667,-152.540591,168.151901,4.817077,0.303010,2.486286,-6.422236,3.350645,-2.474091,6.343886,-3.161937,-0.075764,0.616400,-0.040740,-48.089094,188.474060,1558.619607,926.127388,0
0.017708,-183.106889,119.480579,73.194533,1.654126,4.636597,-5.956189,0.706215,-4.783217,5.925451,-0.587836,-0.006487,0.608270,-0.037023,-57.197079,188.687156,1558.361261,926.903062,0
0.018750,-187.886757,40.154781,126.844164,2.701241,5.880548,-4.692956,-1.578666,-5.968164,4.601126,1.677830,0.033621,0.613644,-0.037023,-51.579175,188.551786,1557.760193,927.812493,0
0.019792,-158.190553,-28.506548,170.918277,3.545688,6.357580,-2.767446,-3.898342,-6.461892,2.599541,4.012037,0.062790,0.615504,-0.033307,-36.616861,188.556056,1556.792477,927.711211,0
0.020833,-105.306903,-95.605790,178.780409,3.782133,5.722761,-0.191922,-5.583973,-5.820046,0.037166,5.664641,0.135714,0.623634,-0.003573,-17.736651,188.476875,1556.793187,928.469569,0
0.021875,-21.653555,-141.352605,185.099278,3.872208,4.335700,2.281398,-6.473182,-4.437608,-2.421678,6.426209,0.117483,0.628595,-0.029590,8.337629,188.564759,1556.383290,929.556278,0
0.022917,53.796046,-166.345986,149.762217,3.106575,2.280796,4.268230,-6.194821,-2.287993,-4.349929,6.030193,0.099252,0.630111,-0.044457,27.105256,188.566715,1556.243638,930.605209,0
0.023958,108.837982,-191.679973,66.887816,1.541533,-0.379572,5.989334,-5.116172,0.397126,-6.066806,4.979229,0.117483,0.630042,-0.022156,42.405319,188.570970,1555.952727,931.202544,0
0.025000,152.862491,-168.354383,-4.163009,0.212935,-2.533553,6.434940,-3.360951,2.656880,-6.420535,3.098155,0.081021,0.617847,-0.048173,48.597398,188.495186,1557.356238,931.268541,0
0.026042,183.191491,-119.530376,-73.075139,-1.115662,-4.698542,5.977070,-0.739717,4.840676,-5.907197,0.531670,0.026329,0.607512,-0.025873,57.266308,188.495734,1556.825342,931.726921,0
0.027083,188.039159,-39.946188,-126.275157,-2.151518,-5.924146,4.766982,1.572227,6.063601,-4.608755,-1.779690,-0.046595,0.601862,-0.037023,54.676893,188.571180,1557.428937,932.055204,0
0.028125,158.196056,29.384607,-170.215602,-2.984706,-6.360813,2.767886,3.918966,6.572521,-2.572659,-4.121513,-0.075764,0.584223,-0.044457,36.787415,188.571151,1558.155673,931.659627,0
0.029167,104.205013,96.025794,-179.098474,-3.164855,-5.762689,0.188274,5.608463,5.934472,0.002656,-5.713191,-0.108580,0.613782,-0.033307,16.792631,188.495720,1559.381585,931.580691,0
0.030208,19.896270,141.056163,-185.259372,-3.288707,-4.309578,-2.305487,6.451279,4.514056,2.444245,-6.493798,-0.137749,0.576231,-0.003573,-8.031975,188.495756,1560.110060,931.470471,0
0.031250,-55.248233,166.202230,-148.731447,-2.624408,-2.273020,-4.329112,6.126524,2.353047,4.385438,-6.120630,-0.126811,0.609096,-0.014723,-26.450594,188.571084,1560.687483,931.496703,0
0.032292,-108.561281,191.876822,-65.358827,-0.958032,0.350653,-6.054304,5.082670,-0.316880,6.102315,-5.054434,-0.079410,0.617158,-0.018440,-39.701642,188.571223,1561.363371,930.672482,0
0.033333,-152.359792,168.187136,4.987200,0.325528,2.493625,-6.442677,3.296519,-2.512070,6.378396,-3.116243,-0.050241,0.617227,0.003860,-48.775852,188.495640,1562.038206,930.092620,0
0.034375,-182.948690,119.292659,73.145927,1.597829,4.713656,-5.956189,0.683018,-4.787015,5.899568,-0.519294,0.026329,0.606340,-0.014723,-56.645421,188.495693,1562.083218,929.060471,0
0.035417,-187.864157,39.731961,126.467462,2.689981,5.898896,-4.680692,-1.663721,-5.998547,4.575243,1.742564,0.059144,0.606134,-0.022156,-54.010973,188.571140,1562.712981,928.277854,0
0.036458,-158.484351,-28.788428,170.578030,3.523169,6.397944,-2.706124,-3.960200,-6.484679,2.569344,4.042500,0.099252,0.590149,-0.025873,-38.102960,188.571020,1563.293938,927.940883,0
0.037500,-104.888805,-95.558810,178.999139,3.748356,5.719092,-0.151041,-5.607170,-5.858025,-0.018913,5.630370,0.106545,0.615228,-0.025873,-17.139960,188.495644,1563.369955,927.858650,0
0.038542,-21.687455,-141.141195,185.512435,3.849689,4.354048,2.326367,-6.473182,-4.380639,-2.443247,6.445248,0.135714,0.627837,-0.014723,8.056171,188.495676,1563.817207,927.051369,0
0.039583,53.570047,-166.369476,149.677155,3.162872,2.207406,4.337729,-6.210286,-2.272802,-4.397381,6.037809,0.121129,0.625977,-0.025873,26.362206,188.571006,1564.462089,926.726476,0
0.040625,108.385985,-191.914873,67.313124,1.541533,-0.372233,6.046568,-5.131636,0.469286,-6.148768,4.948766,0.091960,0.628457,-0.033307,41.088095,188.495662,1565.979931,925.575147,0
0.041667,152.975491,-168.131228,-3.543273,0.224195,-2.562909,6.430852,-3.322289,2.641688,-6.398966,3.063885,0.059144,0.623152,-0.025873,49.025214,188.495607,1565.650485,924.960436,0
0.042708,183.440089,-120.070646,-72.540465,-1.104403,-4.691203,5.919836,-0.697189,4.882453,-5.894256,0.501207,0.026329,0.610061,-0.018440,57.164983,188.495759,1566.475984,924.204092,0
0.043750,187.914860,-40.474713,-126.238702,-2.151518,-5.949832,4.705660,1.591558,6.097782,-4.600127,-1.775882,-0.050241,0.611163,-0.003573,53.855035,188.570980,1566.910721,924.054093,0
0.044792,158.455954,28.456751,-170.154844,-3.018484,-6.412186,2.710652,3.938296,6.629489,-2.594228,-4.083434,-0.090349,0.612266,-0.022156,37.102648,188.571053,1567.244624,924.511468,0
0.045833,104.826509,95.544249,-178.818986,-3.153596,-5.759019,0.163745,5.585266,5.896493,0.028539,-5.686536,-0.108580,0.600484,-0.007290,14.743615,188.495738,1566.977918,923.519629,0
0.046875,20.743764,140.821263,-185.478102,-3.333744,-4.360950,-2.338192,6.455145,4.498864,2.461500,-6.486183,-0.115872,0.601655,-0.025873,-7.840584,188.493963,1567.311242,922.854971,0
0.047917,-54.728437,166.002564,-149.302575,-2.635668,-2.269351,-4.308671,6.126524,2.322664,4.394065,-6.052089,-0.145042,0.588357,-0.040740,-26.574436,188.570694,1567.147465,921.594557,0
0.048958,-108.301383,191.865077,-65.686922,-1.036847,0.313958,-6.029775,5.071071,-0.324476,6.089374,-5.008740,-0.101287,0.618122,-0.014723,-39.724159,188.570555,1566.930271,920.816797,0
0.050000,-152.133793,168.551232,5.169475,0.325528,2.530320,-6.422236,3.269456,-2.565240,6.374082,-3.142897,-0.024718,0.613850,-0.044457,-47.953994,188.495360,1567.501811,920.761184,0
0.051042,-183.016489,119.210444,72.987955,1.597829,4.676961,-5.911219,0.636624,-4.806005,5.877999,-0.500255,0.008098,0.599244,-0.044457,-57.309662,188.495427,1567.648951,920.287395,0
0.052083,-188.259654,39.438336,126.139367,2.667463,5.917243,-4.701132,-1.621194,-5.949174,4.579557,1.746371,0.033621,0.605031,-0.003573,-51.657983,188.495461,1567.154958,920.179040,0
0.053125,-158.088854,-28.858898,170.541575,3.534429,6.350241,-2.722476,-3.956334,-6.526456,2.543462,4.061539,0.077375,0.580158,0.011294,-36.493020,188.570696,1567.617505,920.103661,0
0.054167,-104.753206,-95.335655,179.108504,3.669540,5.726431,-0.146953,-5.607170,-5.835237,-0.014599,5.611331,0.102898,0.597314,0.003860,-17.657843,188.495354,1567.216500,919.874835,0
0.055208,-21.337158,-140.906294,185.427373,3.804652,4.313684,2.285486,-6.504111,-4.395831,-2.447560,6.471903,0.139360,0.620534,-0.011006,8.191271,188.570626,1567.410289,920.151120,0
0.056250,53.570047,-166.134576,150.017402,3.185390,2.229423,4.337729,-6.179357,-2.250014,-4.397381,6.034001,0.146652,0.626597,-0.014723,26.868831,188.495161,1567.505515,919.751391,0
0.057292,108.216486,-191.691718,67.689826,1.620348,-0.383242,6.034303,-5.139369,0.435105,-6.084061,4.960190,0.102898,0.628251,-0.007290,42.349027,188.570734,1566.607569,919.907006,0
0.058333,152.659093,-168.718478,-2.874931,0.257972,-2.562909,6.455381,-3.364817,2.634092,-6.403280,3.090540,0.055498,0.619362,-0.018440,48.631173,188.495170,1566.888515,919.941652,0
0.059375,183.406189,-120.505212,-72.017943,-1.059366,-4.720559,5.928012,-0.739717,4.909038,-5.889942,0.447897,-0.017425,0.611715,-0.022156,57.311341,188.570747,1567.571628,918.983663,0
0.060417,188.231258,-41.132434,-125.886304,-2.162777,-5.920476,4.730189,1.595424,6.097782,-4.552676,-1.821576,-0.057533,0.612266,0.000144,54.688151,188.495365,1568.069160,917.787234,0
0.061458,158.568954,27.763796,-170.373574,-2.973447,-6.419524,2.694299,3.938296,6.580116,-2.507953,-4.091050,-0.101287,0.612059,-0.014723,36.967548,188.570645,1568.015253,916.223006,0
0.062500,105.391505,94.980488,-179.062019,-3.142336,-5.810392,0.122864,5.608463,5.888898,0.037166,-5.690344,-0.126811,0.626459,-0.014723,17.119122,188.495238,1568.358368,915.782081,0
0.063542,21.500859,140.715558,-185.551012,-3.322485,-4.346272,-2.362720,6.451279,4.464683,2.508952,-6.463336,-0.126811,0.617916,-0.018440,-7.761775,188.495191,1568.701357,914.683856,0
0.064583,-53.993942,166.155249,-149.399789,-2.624408,-2.254673,-4.374082,6.114926,2.277089,4.437203,-6.082551,-0.137749,0.605582,-0.037023,-26.259203,188.495260,1569.753026,914.030083,0
0.065625,-107.939785,191.841587,-65.893501,-1.036847,0.402026,-6.062480,5.063339,-0.396636,6.089374,-5.001124,-0.079410,0.611715,-0.037023,-39.510251,188.570653,1570.268046,913.054839,0
0.066667,-152.145093,168.574722,4.877835,0.336788,2.559676,-6.397707,3.176669,-2.648794,6.374082,-3.070548,-0.093995,0.611508,-0.025873,-48.685785,188.495300,1571.161563,911.585247,0
0.067708,-183.061689,119.609774,72.757073,1.631607,4.735673,-5.894867,0.567034,-4.862973,5.839175,-0.443138,-0.035656,0.596694,-0.044457,-56.746746,188.495331,1571.968021,910.355115,0
0.068750,-188.112755,39.215180,125.908485,2.689981,5.983294,-4.615281,-1.752642,-6.025132,4.545047,1.864415,0.044560,0.576231,0.000144,-54.146073,188.495338,1573.556551,909.129118,0
0.069792,-158.439152,-29.363933,170.201329,3.534429,6.412622,-2.628449,-4.025924,-6.537850,2.530520,4.130080,0.059144,0.593525,-0.018440,-38.046669,188.570566,1574.404228,908.811649,0
0.070833,-104.335109,-95.382635,179.387992,3.748356,5.719092,-0.028397,-5.688359,-5.820046,-0.096560,5.717950,0.106545,0.597797,-0.040740,-16.881018,188.495233,1575.986622,907.952370,0
0.071875,-20.873861,-140.659649,185.949895,3.815911,4.218277,2.436747,-6.500245,-4.376841,-2.538149,6.502366,0.139360,0.637897,-0.003573,8.078687,188.495305,1577.161922,907.284549,0
0.072917,53.773446,-166.181556,149.822975,3.196650,2.159703,4.411315,-6.187089,-2.196844,-4.479342,6.049233,0.135714,0.611783,0.007577,26.182073,188.495233,1578.267046,906.661811,0
0.073958,107.741889,-192.243733,67.398186,1.586570,-0.471309,6.067009,-5.131636,0.526255,-6.148768,4.952574,0.091960,0.625081,-0.014723,40.998029,188.495227,1579.716616,905.768899,0
0.075000,152.625193,-168.471833,-2.862780,0.257972,-2.632629,6.492174,-3.283628,2.702455,-6.398966,3.079116,0.099252,0.616744,-0.033307,49.104022,188.494943,1580.256783,905.171113,0
0.076042,183.643488,-120.845817,-71.677697,-1.115662,-4.724228,5.981158,-0.666260,4.958411,-5.898570,0.444090,0.019036,0.605238,-0.040740,57.266308,188.495383,1581.121445,904.993010,0
0.077083,188.265157,-41.719684,-125.995669,-2.083962,-6.008544,4.726101,1.661148,6.112974,-4.552676,-1.848231,-0.039302,0.615297,-0.040740,53.900069,188.495197,1581.707241,904.687221,0
0.078125,159.020951,27.141310,-170.373574,-3.052262,-6.415855,2.686123,3.973091,6.629489,-2.525208,-4.167207,-0.079410,0.613713,-0.025873,37.361590,188.570821,1583.258362,904.629038,0
0.079167,105.888702,94.557668,-179.025564,-3.243670,-5.744341,0.094247,5.612329,5.881302,0.067363,-5.736038,-0.123164,0.601931,-0.037023,15.160173,188.495240,1584.094342,903.974013,0
0.080208,22.088455,140.621598,-185.733287,-3.333744,-4.338933,-2.366809,6.459011,4.445693,2.521893,-6.505222,-0.112226,0.624737,-0.037023,-7.401509,188.495099,1584.857968,903.635051,0
0.081250,-53.293346,166.026054,-149.667126,-2.624408,-2.273020,-4.378170,6.138122,2.258100,4.441517,-6.063512,-0.145042,0.627148,-0.037023,-26.326753,188.495197,1584.958608,902.909206,0
0.082292,-107.532988,192.276152,-66.330961,-1.048106,0.420373,-6.070657,5.040142,-0.415626,6.080746,-4.963046,-0.086703,0.617295,-0.029590,-39.566542,188.569293,1585.100043,902.089706,0
0.083333,-151.919095,168.739152,4.379617,0.303010,2.618387,-6.434500,3.223063,-2.660188,6.387023,-3.062933,-0.035656,0.608890,0.000144,-47.965253,188.495640,1585.463384,901.741786,0
0.084375,-183.321587,119.586284,72.404675,1.654126,4.739342,-5.915307,0.543837,-4.862973,5.826234,-0.439330,0.000805,0.600139,-0.040740,-57.332179,188.570359,1585.469897,901.514333,0
0.085417,-188.338754,39.297395,125.604693,2.678722,5.950268,-4.639810,-1.768106,-6.040324,4.497596,1.860607,0.029975,0.613437,-0.029590,-51.669241,188.494858,1585.540424,900.947530,0
0.086458,-158.450451,-29.363933,170.116267,3.556947,6.408953,-2.603920,-4.076184,-6.537850,2.487383,4.156735,0.091960,0.595936,-0.025873,-36.436728,188.494775,1585.873689,900.297612,0
0.087500,-104.402909,-95.112500,179.436599,3.770874,5.777803,-0.036573,-5.696091,-5.763077,-0.113815,5.721758,0.124775,0.554941,-0.022156,-17.353868,188.494609,1585.706955,899.437094,0
0.088542,-20.331464,-140.671394,186.034957,3.860949,4.207269,2.432659,-6.531174,-4.308479,-2.576973,6.498558,0.139360,0.611646,-0.018440,8.416437,188.570749,1585.782000,898.516988,0
0.089583,54.044644,-166.369476,149.883733,3.129094,2.156034,4.460372,-6.187089,-2.151269,-4.513852,6.098735,0.117483,0.628457,-0.007290,26.801281,188.495151,1586.756028,898.442059,0
0.090625,107.538491,-192.490379,66.972877,1.609088,-0.519012,6.087449,-5.046582,0.552840,-6.174650,4.941151,0.113837,0.619156,-0.011006,42.112603,188.495727,1587.141016,898.166152,0
0.091667,152.523494,-168.648008,-3.045055,0.257972,-2.695010,6.524879,-3.272030,2.763221,-6.442104,3.044846,0.026329,0.615160,0.003860,48.698723,188.495653,1588.200564,897.660566,0
0.092708,184.016385,-120.552192,-71.580483,-1.059366,-4.852660,5.956629,-0.616001,5.045762,-5.958962,0.375548,0.008098,0.606340,-0.025873,57.502732,188.571008,1589.954846,897.406585,0
0.093750,188.231258,-41.649214,-125.558209,-2.095221,-6.048908,4.623898,1.750069,6.181336,-4.509538,-1.951043,-0.010133,0.613024,-0.029590,54.721926,188.495653,1591.363872,896.083787,0
0.094792,159.167850,27.141310,-170.385726,-3.029743,-6.452550,2.616625,4.062012,6.678862,-2.482070,-4.266211,-0.064826,0.617433,-0.007290,37.181456,188.495607,1593.033423,895.461453,0
0.095833,106.024301,94.123103,-179.353659,-3.209892,-5.806723,0.004308,5.743777,5.907887,0.132069,-5.861697,-0.119518,0.638310,-0.063040,17.445613,188.498615,1595.220246,894.908830,0
0.096875,22.461353,140.527637,-186.012776,-3.311226,-4.335264,-2.505805,6.513137,4.392523,2.638364,-6.596610,-0.137749,0.630180,-0.040740,-7.446542,188.501172,1597.394254,893.711472,0
0.097917,-52.513652,166.578070,-149.460547,-2.590631,-2.148258,-4.500814,6.192248,2.170748,4.596812,-6.105398,-0.123164,0.628595,-0.029590,-25.921453,188.495703,1599.915065,892.451456,0
0.098958,-107.069691,192.886892,-66.391719,-1.036847,0.541465,-6.176948,5.016946,-0.552350,6.218786,-4.932583,-0.104934,0.616675,-0.003573,-39.431443,188.495759,1602.548605,890.897077,0
0.100000,-152.664890,168.210626,3.966460,0.325528,2.728471,-6.463117,3.110945,-2.747540,6.477612,-2.960121,-0.046595,0.610681,-0.022156,-48.843402,188.495756,1604.316347,889.789058,0
0.101042,-184.078682,120.091320,72.052276,1.609088,4.871443,-5.960277,0.462649,-4.984506,5.865058,-0.344134,-0.028364,0.598348,0.003860,-56.904362,188.569862,1606.855336,888.851598,0
0.102083,-188.180555,39.614511,125.604693,2.678722,6.042005,-4.594841,-1.868626,-6.123878,4.467399,1.986265,0.029975,0.597935,-0.003573,-54.146073,188.494321,1608.781268,887.558941,0
0.103125,-159.230146,-29.446149,169.909688,3.511910,6.500689,-2.530334,-4.223097,-6.579627,2.379539,4.263355,0.055498,0.608821,0.007577,-38.069185,188.494368,1610.742680,886.046716,0
0.104167,-103.928312,-94.971560,179.716087,3.725837,5.752117,0.069718,-5.812075,-5.812450,-0.217346,5.824570,0.088314,0.543228,-0.055607,-16.340619,188.494118,1612.783332,885.553786,0
0.105208,-20.037666,-140.518709,186.691147,3.883467,4.232955,2.583920,-6.581434,-4.281894,-2.723641,6.555676,0.128422,0.575542,-0.044457,8.450212,188.569992,1614.869530,884.494475,0
0.106250,53.999445,-166.486926,149.349060,3.196650,2.038610,4.570752,-6.194821,-2.044927,-4.634637,6.079695,0.117483,0.628319,-0.025873,26.058232,188.501120,1616.186786,882.825114,0
0.107294,106.973495,-193.629645,66.012895,1.552792,-0.665791,6.214181,-5.054314,0.704756,-6.291122,4.914496,0.099252,0.619087,-0.048173,40.682795,188.495743,1618.580874,881.439639,0
0.108336,152.557393,-168.060758,-3.567577,0.235454,-2.812433,6.520791,-3.152180,2.899946,-6.506810,2.903955,0.048206,0.617295,-0.033307,49.374222,188.495647,1620.253688,879.507769,0
0.109375,184.411883,-120.469977,-71.507573,-1.048106,-4.966413,5.997510,-0.492285,5.152104,-5.967590,0.299392,-0.002841,0.610337,-0.063040,57.401407,188.495745,1621.981061,878.640950,0
0.110417,188.208658,-41.050219,-125.473147,-2.128999,-6.103950,4.640250,1.784864,6.280082,-4.531107,-2.019584,-0.061180,0.609303,-0.051890,53.922585,188.495721,1623.557536,878.711991,0
