1-Time,2-VGERA,3-VGERB,4-VGERC,5-VN,6-IGERAN,7-IGERBN,8-IGERCN,9-IGERAT,10-IGERBT,11-IGERCT,12-IN,13-IFD,14-IFAULT,15-VFAULT,16-Speed (rad/s),17-Active Power,18-Reactive Power,19-FAULT 
0.000000,-135.522903,184.172095,-19.619935,-0.113585,3.484327,-4.202488,0.435240,-3.167714,4.264213,-0.402596,-0.112733,0.414661,-0.108307,-114.197976,188.646551,1252.148487,-19.708890,0
0.001042,-169.524378,138.507496,46.497311,1.215013,4.240238,-3.104285,-1.332326,-3.842336,3.181976,1.361212,-0.178364,0.411353,-0.112023,-139.236490,188.721900,1252.298939,-19.731565,0
0.002083,-196.406901,62.482045,99.381386,2.284646,4.717270,-1.672195,-2.910645,-4.306592,1.778451,3.136374,-0.163779,0.397642,-0.100873,-152.138530,188.646583,1252.015027,-19.575832,0
0.003125,-167.659891,0.057317,156.008176,3.354280,4.141162,-0.199879,-3.762256,-3.824201,0.332650,3.847953,-0.243995,0.425409,-0.115740,-121.741054,188.571002,1251.405873,-18.510981,0
0.004167,-122.279390,-59.583844,189.644003,3.973542,3.150405,1.678732,-4.409481,-2.834030,-1.544354,4.582242,-0.233057,0.435744,-0.115740,-80.828302,188.646478,1250.795948,-17.746359,0
0.005208,-48.264880,-117.016944,189.060723,4.007319,1.524828,3.167140,-4.167245,-1.339706,-2.994382,4.374068,-0.222118,0.427545,-0.112023,-21.654548,188.721949,1250.132404,-16.585177,0
0.006250,19.568572,-166.404711,161.707310,3.500651,-0.155790,4.152707,-3.421612,0.325087,-4.114665,3.685198,-0.214826,0.430163,-0.126890,28.309897,188.721824,1250.214968,-16.616892,0
0.007292,77.876187,-182.424905,96.440681,2.149535,-2.122628,4.462456,-1.790304,2.142214,-4.351405,2.038726,-0.156487,0.420035,-0.115740,73.309420,188.570997,1249.980616,-15.961418,0
0.008333,135.697905,-184.139676,19.933756,0.708344,-3.502350,4.241206,-0.310393,3.571252,-4.190760,0.471738,-0.149195,0.414385,-0.119457,115.539396,188.721840,1249.380629,-15.585561,0
0.009375,169.654180,-138.240177,-46.462978,-0.642772,-4.265600,3.074617,1.491238,4.256755,-3.146571,-1.227725,-0.105440,0.411973,-0.160340,139.271944,188.721813,1248.763947,-14.869444,0
0.010417,196.367204,-62.120767,-99.395660,-1.678627,-4.775657,1.739073,3.084696,4.731892,-1.764183,-2.980178,-0.076271,0.420035,-0.134323,154.155449,188.646514,1247.682727,-14.449918,0
0.011458,167.382895,0.515372,-156.192573,-2.759520,-4.151846,0.202393,3.917383,4.209604,-0.347975,-3.706897,-0.076271,0.400329,-0.112023,122.429491,188.571084,1247.472268,-13.550640,0
0.012500,122.036295,60.156533,-189.281575,-3.390041,-3.117055,-1.619900,4.492693,3.190417,1.516346,-4.524456,-0.061686,0.435193,-0.086006,80.176998,188.722252,1246.978110,-13.706238,0
0.013542,47.761886,117.425203,-189.074997,-3.435078,-1.528173,-3.136466,4.303446,1.699720,3.080516,-4.274646,-0.028871,0.430852,-0.104590,22.939676,188.722201,1246.501430,-13.459360,0
0.014583,-19.958567,166.014309,-161.636522,-2.860854,0.178132,-4.118011,3.576738,0.056689,4.116251,-3.585777,-0.050748,0.437398,-0.115740,-29.028751,188.571342,1246.338452,-12.812473,0
0.015625,-77.983683,182.668734,-95.337001,-1.611071,2.119283,-4.411669,1.953000,-1.731422,4.344535,-1.950659,-0.079917,0.418037,-0.130607,-72.801117,188.571404,1246.357291,-12.279310,0
0.016668,-136.042700,183.655315,-19.097413,-0.147362,3.491666,-4.174329,0.484444,-3.080666,4.238848,-0.451801,-0.138256,0.414798,-0.104590,-114.850959,188.722170,1245.371510,-10.858162,0
0.017708,-170.315373,137.544405,46.825406,1.203754,4.262255,-3.080148,-1.313401,-3.824201,3.114336,1.349857,-0.156487,0.412938,-0.093440,-139.833182,188.797650,1244.613721,-10.847691,0
0.018750,-196.180902,61.742110,99.830998,2.284646,4.713600,-1.672195,-2.906860,-4.324727,1.765768,3.056889,-0.203887,0.413214,-0.126890,-152.419989,188.571370,1244.146279,-9.913810,0
0.019792,-166.891496,-1.070204,156.664366,3.309243,4.126485,-0.183788,-3.788751,-3.715391,0.358015,3.817673,-0.225764,0.395575,-0.112023,-121.718537,188.568162,1242.686503,-9.518091,0
0.020833,-121.499696,-60.911031,188.939206,4.007319,3.095363,1.666664,-4.322427,-2.837657,-1.506306,4.544392,-0.218472,0.439740,-0.104590,-81.177310,188.721728,1241.899962,-8.522946,0
0.021875,-47.044488,-118.003525,189.024268,3.996060,1.484464,3.215412,-4.148320,-1.346960,-3.019746,4.317293,-0.229410,0.424169,-0.130607,-20.821432,188.797188,1241.530741,-8.288114,0
0.022917,20.596865,-166.075851,161.488580,3.444354,-0.177807,4.108457,-3.349698,0.314206,-4.059708,3.632209,-0.229410,0.428578,-0.126890,29.210563,188.571093,1240.319359,-7.985136,0
0.023958,78.520283,-182.800745,95.383486,2.138276,-2.115289,4.398093,-1.771379,2.156722,-4.342950,2.012231,-0.171072,0.422584,-0.048839,73.253129,188.571026,1240.173575,-7.969813,0
0.025000,136.116002,-183.376251,19.374779,0.674567,-3.458316,4.140638,-0.283898,3.509593,-4.169623,0.494448,-0.130964,0.416039,-0.104590,115.145354,188.721851,1239.319017,-7.021043,0
0.026042,170.490375,-137.558966,-46.863983,-0.575216,-4.228905,3.078640,1.457173,4.260382,-3.074704,-1.265575,-0.101794,0.413627,-0.130607,140.172610,188.721918,1238.976041,-7.719813,0
0.027083,195.971706,-61.451301,-100.076153,-1.656109,-4.661903,1.727005,3.050632,4.713757,-1.721908,-2.953683,-0.083563,0.416865,-0.141757,153.018359,188.570951,1238.320630,-7.605079,0
0.028125,166.964798,1.725108,-156.557123,-2.737001,-4.100474,0.186302,3.868179,4.162453,-0.326838,-3.710682,-0.076271,0.390821,-0.112023,122.136774,188.495515,1237.839998,-7.690238,0
0.029167,121.008002,61.331034,-188.941328,-3.412560,-3.102377,-1.559559,4.458629,3.237568,1.482527,-4.407121,-0.068979,0.410182,-0.130607,79.175007,188.721819,1236.508786,-6.189273,0
0.030208,46.767492,118.059433,-188.941328,-3.446337,-1.517165,-3.124398,4.292092,1.699720,3.042469,-4.229226,-0.058040,0.416452,-0.115740,21.284702,188.721636,1235.674211,-5.599937,0
0.031250,-20.681762,166.166994,-161.028939,-2.838335,0.178132,-4.029511,3.519964,0.063943,4.044383,-3.563067,-0.050748,0.423893,-0.115740,-29.839350,188.571712,1234.612361,-5.012687,0
0.032292,-78.944177,182.339873,-94.850934,-1.532256,2.078919,-4.395578,1.922720,-1.687898,4.319170,-1.943089,-0.094502,0.421344,-0.097156,-73.071317,188.495510,1234.001872,-4.275943,0
0.033334,-136.562496,183.079809,-18.696408,-0.068547,3.421946,-4.097897,0.488229,-3.055277,4.154298,-0.429091,-0.130964,0.415763,-0.089723,-114.794668,188.721775,1232.777693,-4.434523,0
0.034375,-170.258873,137.286015,47.663871,1.215013,4.152171,-3.015785,-1.275552,-3.722645,3.072061,1.323362,-0.185656,0.413696,-0.074856,-139.765632,188.721780,1231.236355,-3.839025,0
0.035417,-196.034003,61.131369,100.803131,2.239609,4.676905,-1.684264,-2.884151,-4.241306,1.744631,3.034179,-0.211179,0.403292,-0.093440,-151.688197,188.570930,1230.081436,-3.560635,0
0.036459,-166.654197,-2.185980,156.712973,3.354280,4.104468,-0.224015,-3.678988,-3.686375,0.353788,3.757113,-0.211179,0.423273,-0.112023,-120.705288,188.495553,1229.112843,-3.050252,0
0.037500,-120.313203,-61.874121,189.012116,4.018579,3.077015,1.606323,-4.250513,-2.714339,-1.451349,4.438412,-0.211179,0.379590,-0.119457,-79.454787,188.721708,1226.619191,-2.868088,0
0.038542,-45.869295,-118.567285,188.635415,3.917245,1.528498,3.038412,-4.076406,-1.296182,-2.960562,4.249163,-0.192949,0.423893,-0.104590,-20.742624,188.721717,1225.080581,-2.677371,0
0.039583,21.433060,-166.580886,160.880996,3.444354,-0.126435,3.995820,-3.330773,0.288817,-3.996296,3.609499,-0.196595,0.435399,-0.089723,29.379437,188.570926,1224.178210,-1.854569,0
0.040625,79.469476,-182.096045,95.286273,2.093238,-2.027221,4.361888,-1.767594,2.066047,-4.283765,2.038726,-0.185656,0.421413,-0.130607,74.682936,188.495644,1223.085884,-0.388517,0
0.041667,136.805297,-183.059136,19.253263,0.663307,-3.381257,4.128570,-0.352027,3.415291,-4.114665,0.532298,-0.145548,0.417623,-0.093440,116.113570,188.721833,1221.787858,0.719632,0
0.042708,170.230477,-137.359301,-47.556628,-0.642772,-4.144507,3.042435,1.434464,4.133437,-3.091614,-1.178520,-0.112733,0.416521,-0.097156,139.587177,188.646344,1220.236706,2.492676,0
0.043750,195.790908,-60.946266,-101.096894,-1.656109,-4.603191,1.694823,2.978718,4.691995,-1.806458,-2.942328,-0.083563,0.389374,-0.115740,153.626308,188.571000,1220.371293,3.810821,0
0.044792,166.445002,2.265379,-156.909522,-2.669446,-4.074787,0.206416,3.758415,4.093540,-0.331065,-3.665262,-0.090856,0.435813,-0.141757,121.461275,188.571013,1219.158519,4.023808,0
0.045833,120.239607,62.282380,-188.686143,-3.311226,-3.054674,-1.587718,4.401855,3.154147,1.499437,-4.384411,-0.058040,0.418106,-0.086006,78.555799,188.721833,1218.220043,3.535155,0
0.046875,45.400201,118.799369,-188.576778,-3.367522,-1.524504,-3.056012,4.242887,1.696093,2.945237,-4.161096,-0.047102,0.407426,-0.123173,21.993977,188.646310,1216.565428,4.636288,0
0.047917,-21.924754,166.131759,-160.737298,-2.815817,0.174462,-3.993306,3.451835,0.096586,3.947151,-3.517647,-0.036163,0.422997,-0.078573,-30.053258,188.571055,1215.020560,5.528732,0
0.048958,-79.746472,182.316383,-94.133986,-1.532256,2.031216,-4.331215,1.881086,-1.655255,4.255758,-1.909024,-0.094502,0.414523,-0.100873,-74.208407,188.570892,1213.900407,5.907380,0
0.050000,-136.822394,182.621754,-18.574891,-0.102325,3.377912,-4.077783,0.461734,-2.997245,4.128933,-0.413951,-0.120025,0.416314,-0.119457,-115.425134,188.721802,1213.019114,6.178800,0
0.051042,-170.756070,136.745744,47.858298,1.215013,4.115476,-2.943376,-1.249057,-3.733526,3.034014,1.285512,-0.152841,0.413972,-0.115740,-140.092123,188.571038,1212.753190,6.471615,0
0.052084,-195.695005,60.802509,101.507928,2.250869,4.555813,-1.644036,-2.831161,-4.176020,1.757313,2.966049,-0.196595,0.404050,-0.104590,-151.857072,188.571015,1211.578900,7.421988,0
0.053125,-166.123101,-2.573565,157.320557,3.320502,4.020070,-0.203902,-3.633568,-3.621089,0.336878,3.707908,-0.225764,0.420655,-0.086006,-120.840388,188.570901,1210.421776,7.424794,0
0.054167,-119.793407,-62.825467,188.355926,3.905986,3.047659,1.598278,-4.246728,-2.717966,-1.476714,4.389208,-0.189302,0.431954,-0.108307,-79.556112,188.721829,1209.791867,7.601523,0
0.055209,-44.445505,-119.495141,188.574656,3.939764,1.506481,3.054503,-4.065051,-1.249031,-2.884467,4.241593,-0.233057,0.398538,-0.108307,-19.312816,188.570906,1208.958997,8.238994,0
0.056250,22.856850,-166.193301,160.552901,3.478132,-0.119096,3.947548,-3.296709,0.303325,-3.907519,3.545154,-0.229410,0.421413,-0.104590,30.336395,188.571008,1207.279229,8.428319,0
0.057292,80.237871,-182.389670,94.301987,2.115757,-2.016213,4.285456,-1.763809,2.062420,-4.216125,1.963026,-0.174718,0.420793,-0.134323,74.671677,188.646315,1206.057533,8.146899,0
0.058333,137.234695,-182.507120,18.791499,0.640789,-3.340893,4.084320,-0.336887,3.393529,-4.021661,0.509588,-0.141902,0.417141,-0.089723,115.854629,188.721708,1204.763968,7.909828,0
0.059375,170.659874,-136.736816,-48.066998,-0.608994,-4.074787,3.002208,1.396614,4.122556,-3.057794,-1.208800,-0.116379,0.413283,-0.119457,140.307710,188.570998,1204.475746,7.617525,0
0.060417,195.418010,-60.723110,-101.728781,-1.667368,-4.515124,1.698846,2.933299,4.604947,-1.726136,-2.862843,-0.054394,0.414109,-0.100873,152.421667,188.570968,1202.534154,7.631570,0
0.061458,166.151203,2.770414,-157.164707,-2.691964,-3.972042,0.222507,3.701641,4.064524,-0.314155,-3.540357,-0.039809,0.391303,-0.112023,121.326175,188.646417,1200.955588,8.248527,0
0.062500,119.606811,63.057551,-188.309442,-3.299967,-2.999632,-1.515309,4.341296,3.161401,1.461389,-4.320066,-0.017932,0.400467,-0.119457,77.475000,188.721773,1199.951818,9.143412,0
0.063542,44.315409,119.292659,-188.382352,-3.277448,-1.458453,-2.975557,4.163404,1.634434,2.881825,-4.123246,-0.061686,0.415556,-0.086006,19.866153,188.571008,1198.741240,9.265522,0
0.064583,-23.111246,166.331425,-160.154018,-2.793298,0.137768,-3.916875,3.421556,0.132856,3.887966,-3.476012,-0.050748,0.420379,-0.108307,-31.089024,188.571027,1197.621779,10.104205,0
0.065625,-80.492267,181.705643,-94.036772,-1.498478,2.005529,-4.254783,1.922720,-1.589969,4.166980,-1.878744,-0.112733,0.417003,-0.097156,-74.253441,188.646277,1195.975256,10.681607,0
0.066667,-137.489090,182.034503,-18.076673,-0.068547,3.264158,-4.009397,0.526078,-2.928332,4.048611,-0.463156,-0.116379,0.417348,-0.104590,-115.323809,188.721695,1194.564423,11.736823,0
0.067708,-170.326673,136.710509,48.806128,1.215013,4.005392,-2.991648,-1.218778,-3.617462,3.029787,1.228737,-0.185656,0.413696,-0.100873,-139.788148,188.571065,1193.046865,12.960705,0
0.068750,-195.412507,60.614589,102.419304,2.284646,4.471415,-1.623923,-2.732753,-4.092599,1.740403,2.886565,-0.211179,0.405910,-0.108307,-151.226606,188.496930,1191.513482,13.688241,0
0.069792,-165.931002,-3.019876,157.332708,3.320502,3.943011,-0.236084,-3.531375,-3.530414,0.391835,3.613284,-0.192949,0.399847,-0.059989,-120.108597,188.576940,1189.594031,14.545669,0
0.070833,-119.115411,-63.412718,188.440988,3.939764,2.988948,1.501733,-4.136965,-2.667188,-1.417529,4.317293,-0.247641,0.404394,-0.082290,-77.979946,188.721681,1188.085794,15.132465,0
0.071875,-43.733610,-119.812256,187.991376,3.973542,1.477125,2.945890,-3.913654,-1.234523,-2.837965,4.101548,-0.222118,0.414936,-0.115740,-18.941292,188.570962,1185.900049,15.243252,0
0.072917,23.862544,-166.663101,159.884559,3.399317,-0.108087,3.871116,-3.266429,0.259801,-3.844106,3.522444,-0.211179,0.408460,-0.100873,30.662887,188.495582,1184.952257,16.307150,0
0.073958,81.232265,-181.320874,94.229077,2.172053,-1.924476,4.160752,-1.748669,1.968118,-4.093528,2.008446,-0.152841,0.410389,-0.138040,75.943868,188.646322,1183.132679,17.995526,0
0.075000,137.777091,-181.908125,18.317584,0.629529,-3.234478,3.971684,-0.359597,3.270211,-4.008978,0.577718,-0.145548,0.417554,-0.082290,116.676487,188.721722,1181.960751,19.920469,0
0.076042,170.298276,-136.877756,-48.674582,-0.654031,-3.983050,2.961981,1.336055,3.970222,-3.007064,-1.095250,-0.116379,0.415350,-0.104590,139.339494,188.570897,1179.521510,21.429263,0
0.077083,195.022513,-60.664385,-102.652308,-1.689887,-4.478429,1.674710,2.865170,4.525153,-1.755728,-2.756863,-0.076271,0.417485,-0.078573,153.097167,188.495546,1178.040474,22.868484,0
0.078126,165.597507,3.310685,-157.517105,-2.782039,-3.924339,0.266757,3.644867,3.952087,-0.411387,-3.468442,-0.076271,0.431610,-0.097156,120.763258,188.646353,1176.129937,24.055147,0
0.079170,119.098314,64.232052,-187.896285,-3.311226,-2.973945,-1.511287,4.235318,3.081607,1.444479,-4.195161,-0.032517,0.413145,-0.052556,76.945859,188.577172,1173.917364,24.118458,0
0.080208,43.705213,119.950380,-187.811223,-3.333744,-1.454784,-2.915217,4.102845,1.717855,2.835322,-4.036191,-0.047102,0.339766,-0.086006,20.282711,188.570631,1172.741191,25.494091,0
0.081250,-24.218638,166.272700,-159.655800,-2.804557,0.108412,-3.820329,3.368567,0.158245,3.824554,-3.385172,-0.065333,0.406255,-0.108307,-31.505582,188.495379,1171.074539,25.802477,0
0.082292,-81.599659,181.423763,-93.222610,-1.487219,1.928470,-4.154215,1.900011,-1.550072,4.065521,-1.897669,-0.134610,0.422653,-0.108307,-75.446823,188.721088,1169.751380,26.868286,0
0.083333,-137.952387,181.552958,-17.736426,-0.102325,3.223794,-3.936988,0.552573,-2.834030,4.006336,-0.463156,-0.112733,0.418106,-0.089723,-116.134408,188.646455,1168.417895,27.594403,0
0.084375,-170.756070,136.264199,49.194982,1.271309,3.928333,-2.887058,-1.150649,-3.519533,3.012877,1.156822,-0.163779,0.415281,-0.123173,-139.698082,188.571089,1167.037080,28.826954,0
0.085417,-195.017010,60.215258,103.184859,2.329684,4.427381,-1.631968,-2.717613,-4.030940,1.748858,2.826005,-0.211179,0.414661,-0.126890,-151.282898,188.495723,1165.920113,29.675157,0
0.086458,-165.467705,-3.430951,157.879533,3.399317,3.851274,-0.264243,-3.455676,-3.483263,0.391835,3.522444,-0.236703,0.403843,-0.112023,-120.333763,188.721933,1164.531616,30.196205,0
0.087500,-118.979812,-64.258358,187.760494,3.917245,2.926567,1.501733,-4.023417,-2.612783,-1.387937,4.234023,-0.236703,0.384207,-0.097156,-78.452796,188.571125,1162.907098,30.381769,0
0.088545,-42.626217,-121.339108,187.796949,3.962282,1.440430,2.861413,-3.890944,-1.230896,-2.753415,4.052343,-0.203887,0.425685,-0.108307,-17.263801,188.571073,1161.770909,31.473283,0
0.089583,25.105536,-166.381221,159.422796,3.466873,-0.053045,3.802730,-3.190731,0.227158,-3.717282,3.435389,-0.182010,0.396815,-0.074856,31.833752,188.495799,1159.421170,32.176200,0
0.090625,82.305758,-181.414834,93.062517,2.172053,-1.873104,4.108457,-1.741099,1.913713,-4.051253,1.993306,-0.149195,0.416245,-0.119457,76.045193,188.721858,1158.535393,33.106308,0
0.091667,138.116089,-181.367854,17.795062,0.652048,-3.139072,3.915366,-0.352027,3.226687,-3.920201,0.596643,-0.127317,0.417072,-0.112023,116.406287,188.571109,1157.149764,33.511725,0
0.092708,170.592074,-136.278760,-49.452289,-0.687809,-3.894983,2.885549,1.317130,3.923071,-2.930969,-1.072540,-0.098148,0.413076,-0.115740,139.789827,188.571183,1155.950071,33.647476,0
0.093750,194.627015,-60.323780,-103.490773,-1.746183,-4.390362,1.662641,2.789471,4.438105,-1.747273,-2.703873,-0.068979,0.408804,-0.112023,151.779943,188.514838,1154.535347,34.211900,0
0.094792,165.450608,3.604310,-157.869504,-2.782039,-3.858288,0.302961,3.531319,3.890428,-0.381795,-3.392742,-0.076271,0.407633,-0.138040,120.718225,188.595884,1153.179355,34.129052,0
0.095833,118.759317,64.525677,-187.592493,-3.378782,-2.929912,-1.434855,4.170974,3.027202,1.364157,-4.070256,-0.050748,0.407426,-0.093440,76.427976,188.598656,1150.869871,34.833926,0
0.096875,43.185416,120.584610,-187.580341,-3.378782,-1.476801,-2.822694,4.027146,1.601791,2.725408,-3.941566,-0.047102,0.430301,-0.115740,18.233696,188.581926,1148.529904,34.440111,0
0.097917,-25.337331,166.613305,-158.817334,-2.815817,0.068048,-3.711716,3.330717,0.180007,3.748459,-3.313257,-0.072625,0.400949,-0.108307,-32.698964,188.513089,1146.938756,34.987177,0
0.098958,-82.526253,180.989197,-92.444903,-1.453441,1.862420,-4.069738,1.858377,-1.513802,4.010563,-1.871174,-0.079917,0.413076,-0.119457,-75.593181,188.728950,1145.837468,35.481868,0
0.100000,-138.381784,181.118392,-17.007326,-0.034769,3.124718,-3.876647,0.545003,-2.739728,3.917559,-0.478296,-0.120025,0.412456,-0.086006,-116.044342,188.577306,1144.026330,36.267501,0
0.101042,-170.383173,136.240709,49.996992,1.237532,3.840266,-2.850853,-1.101445,-3.417977,2.919872,1.096262,-0.145548,0.411353,-0.112023,-139.371590,188.570989,1141.927550,36.720330,0
0.102083,-194.621512,60.332709,104.278510,2.273387,4.353992,-1.611855,-2.562431,-3.925757,1.740403,2.731380,-0.189302,0.413972,-0.097156,-150.618657,188.495796,1140.101169,37.597234,0
0.103136,-164.495912,-5.028273,159.155459,3.331761,3.792562,-0.232061,-3.342128,-3.450620,0.421427,3.442959,-0.203887,0.424996,-0.126890,-118.903956,188.722016,1139.006423,38.904298,0
0.104179,-117.386523,-66.301990,187.237972,3.883467,2.827491,1.457483,-3.928793,-2.518481,-1.332979,4.124258,-0.236703,0.402810,-0.112023,-76.088548,188.646422,1136.563894,39.595763,0
0.105214,-42.106420,-121.785418,187.104304,3.951023,1.440430,2.809117,-3.769826,-1.198253,-2.690002,3.961503,-0.218472,0.406530,-0.108307,-16.881018,188.571051,1134.767090,39.743993,0
0.106254,26.461527,-166.909747,158.511420,3.410576,-0.038367,3.665957,-3.141526,0.256174,-3.675007,3.374829,-0.192949,0.399089,-0.115740,32.847001,188.571042,1133.731969,39.720202,0
0.107296,83.752148,-180.956779,91.993170,2.115757,-1.847417,4.052139,-1.684325,1.902832,-3.949793,1.947886,-0.196595,0.408873,-0.126890,77.767717,188.721965,1132.136699,39.948131,0
0.108339,138.805384,-180.533958,16.555592,0.618270,-3.124394,3.814798,-0.370952,3.154147,-3.865244,0.630708,-0.138256,0.414316,-0.115740,117.565894,188.646534,1130.846782,41.140075,0
0.109380,170.592074,-135.515335,-50.473029,-0.721587,-3.803246,2.861413,1.249002,3.788872,-2.867557,-0.985485,-0.116379,0.417141,-0.112023,139.530886,188.571098,1128.512293,42.440740,0
0.110426,194.299317,-58.973104,-105.459344,-1.712405,-4.287617,1.622414,2.683493,4.340176,-1.743046,-2.647098,-0.065333,0.416865,-0.093440,152.117693,188.646563,1127.046325,43.516436,0
