1-Time,2-VGERA,3-VGERB,4-VGERC,5-VN,6-IGERAN,7-IGERBN,8-IGERCN,9-IGERAT,10-IGERBT,11-IGERCT,12-IN,13-IFD,14-IFAULT,15-VFAULT,16-Speed (rad/s),17-FAULT 
0.000000,-134.133959,-66.212543,183.132198,6.377598,6.185600,-0.838865,-5.247976,-6.160428,1.151126,4.965300,-0.223418,0.576253,-0.043161,-37.275421,188.420309,0
0.001042,-53.602206,-118.836961,196.513826,6.671658,5.102765,1.756589,-6.438283,-5.098136,-1.543150,6.210546,-0.241683,0.598595,-0.020755,-43.247101,188.420300,0
0.002083,15.144690,-169.818375,163.693750,6.038298,3.309875,3.919467,-6.688285,-3.388912,-3.633103,6.406228,-0.256295,0.610941,-0.058098,-45.203731,188.269476,0
0.003125,82.349005,-186.055110,114.648296,5.110878,0.760775,5.649770,-5.647232,-0.782805,-5.479648,5.559460,-0.234377,0.608001,-0.024490,-36.958741,188.269481,0
0.004167,132.153925,-189.836433,27.304546,3.470928,-1.823828,6.514921,-3.927071,1.687299,-6.318987,3.876599,-0.190541,0.601730,-0.031958,-18.432961,188.420278,0
0.005208,167.134197,-160.612727,-49.649053,1.989318,-3.911391,6.340303,-1.770339,3.889073,-6.356757,1.830837,-0.175929,0.597092,-0.031958,4.639438,188.420188,0
0.006250,185.509047,-83.198294,-105.194508,0.960108,-5.651028,5.133854,1.151324,5.605648,-5.139716,-0.887358,-0.106522,0.591670,-0.024490,15.282148,188.269462,0
0.007292,179.962565,-5.143573,-152.381061,0.010068,-6.407237,3.542452,3.196114,6.454747,-3.595333,-2.993603,-0.066339,0.600881,-0.054364,32.722168,188.269545,0
0.008333,134.626590,65.324340,-183.502273,-0.600672,-6.045108,1.010495,5.173740,6.079820,-1.102498,-4.857915,-0.018850,0.600032,-0.024490,42.855928,188.344834,0
0.009375,55.558019,119.036039,-196.317614,-0.804252,-4.976475,-1.549241,6.296883,5.010177,1.579189,-6.131624,-0.007891,0.613881,-0.028224,46.316787,188.420238,0
0.010417,-13.721974,170.464448,-163.768372,-0.250062,-3.098378,-3.807366,6.520765,3.175978,3.677535,-6.295285,0.035945,0.624333,-0.024490,50.524107,188.269534,0
0.011458,-82.139937,186.024652,-114.735228,0.699978,-0.556378,-5.505919,5.502101,0.687495,5.486310,-5.395150,-0.022503,0.607152,-0.046895,42.301738,188.269492,0
0.012500,-132.977024,189.818056,-26.714394,2.362548,1.943018,-6.343291,3.793134,-1.841421,6.350829,-3.758540,-0.015197,0.597288,-0.065566,22.350898,188.344880,0
0.013542,-167.367486,160.739320,50.559280,3.810228,4.055433,-6.148830,1.580431,-4.010114,6.346632,-1.687874,-0.095563,0.592650,-0.005818,0.771418,188.420381,0
0.014583,-186.354831,82.503386,105.255303,4.862058,5.816371,-4.934443,-1.225559,-5.708310,5.104411,1.101478,-0.124787,0.583243,-0.046895,-11.907091,188.344947,0
0.015625,-179.900949,3.578840,152.220266,5.778168,6.487374,-3.370821,-3.289007,-6.461839,3.572618,3.111662,-0.168623,0.568284,-0.073035,-28.363141,188.269568,0
0.016667,-134.179329,-65.922601,183.624622,6.366288,6.189150,-0.842833,-5.270364,-6.248646,1.159520,4.954626,-0.190541,0.632760,-0.054364,-37.761751,188.344862,0
0.017708,-53.624891,-118.969851,196.464584,6.626418,5.056612,1.720872,-6.348730,-5.054027,-1.547347,6.174968,-0.274560,0.592062,-0.024490,-42.297061,188.420061,0
0.018750,15.518992,-170.023751,163.644508,6.038298,3.256621,3.911530,-6.609926,-3.274964,-3.616317,6.391996,-0.256295,0.578475,-0.024490,-45.565651,188.345050,0
0.019792,82.768678,-185.583955,114.069697,5.076948,0.750124,5.621990,-5.639770,-0.797508,-5.433485,5.530997,-0.234377,0.582525,-0.002084,-35.805121,188.269492,0
0.020833,132.187953,-189.993485,26.270455,3.436998,-1.781224,6.495078,-3.927071,1.690975,-6.314790,3.855252,-0.216112,0.596570,-0.043161,-18.794881,188.344952,0
0.021875,166.691839,-160.274461,-50.461553,2.000628,-3.858137,6.340303,-1.781533,3.885397,-6.331577,1.877089,-0.150358,0.595459,-0.028224,5.125768,188.420274,0
0.022917,185.679185,-82.449278,-105.219129,0.948798,-5.665229,5.141791,1.087890,5.579918,-5.122929,-0.901589,-0.113828,0.588992,-0.035692,16.130398,188.420298,0
0.023958,179.837797,-4.056292,-152.368750,0.021378,-6.364633,3.566263,3.140144,6.447395,-3.595333,-2.950909,-0.059033,0.584484,-0.039427,33.581728,188.269608,0
0.025000,134.603905,65.795495,-183.465341,-0.600672,-6.030907,1.062087,5.166278,6.054090,-1.182235,-4.829452,-0.044421,0.606303,-0.009553,42.980338,188.344963,0
0.026042,55.104319,119.144767,-196.194508,-0.792942,-4.930321,-1.537336,6.244644,5.013853,1.512042,-6.085372,0.024986,0.610027,-0.020755,46.690017,188.420323,0
0.027083,-13.790029,170.271153,-163.731440,-0.238752,-3.158732,-3.684340,6.502108,3.223762,3.627175,-6.263265,0.014027,0.614534,-0.013287,49.630617,188.420274,0
0.028125,-82.083224,185.964248,-114.932197,0.688668,-0.623834,-5.434485,5.505832,0.687495,5.486310,-5.384476,-0.015197,0.610222,-0.054364,43.161298,188.269499,0
0.029167,-132.716147,189.528114,-27.576136,2.362548,1.864911,-6.303605,3.830447,-1.767906,6.300468,-3.769214,-0.018850,0.600881,-0.046895,23.515828,188.344966,0
0.030208,-167.798501,161.089666,49.759091,3.787608,3.980877,-6.144861,1.636402,-3.951302,6.313059,-1.723452,-0.102869,0.595786,-0.050629,0.782728,188.420253,0
0.031250,-185.515486,83.796042,105.723106,4.850748,5.773768,-4.990004,-1.206902,-5.645823,5.158968,0.976954,-0.143052,0.589188,-0.024490,-13.207741,188.420491,0
0.032292,-180.195854,4.654040,152.515720,5.778168,6.469622,-3.418444,-3.195722,-6.476542,3.622978,3.051178,-0.175929,0.599183,-0.031958,-28.476241,188.269527,0
0.033333,-135.109414,-65.729307,182.873675,6.377598,6.203351,-0.922205,-5.206931,-6.171455,1.205683,4.901259,-0.186888,0.605584,-0.061832,-37.218871,188.344919,0
0.034375,-54.691086,-118.945689,196.612311,6.671658,5.092114,1.641500,-6.333804,-5.112839,-1.455020,6.153621,-0.238030,0.591736,-0.035692,-43.314961,188.420242,0
0.035417,14.622935,-169.685486,163.509091,6.060918,3.288573,3.879781,-6.613657,-3.377885,-3.544973,6.367091,-0.274560,0.601534,-0.024490,-45.215041,188.420336,0
0.036458,82.405718,-186.067191,114.168182,5.099568,0.796278,5.578335,-5.658426,-0.845293,-5.429288,5.573692,-0.241683,0.602710,-0.039427,-36.902191,188.269534,0
0.037500,132.029158,-189.582734,26.147349,3.403068,-1.713769,6.455392,-3.949459,1.599081,-6.285413,3.908619,-0.197847,0.596896,-0.039427,-18.150211,188.344927,0
0.038542,166.964059,-160.407351,-50.818561,1.966698,-3.840386,6.340303,-1.803921,3.844964,-6.314790,1.884205,-0.175929,0.595002,-0.031958,5.103148,188.420305,0
0.039583,184.998635,-82.098931,-105.489962,0.948798,-5.629726,5.149728,1.076696,5.550512,-5.097749,-0.869569,-0.099216,0.597092,-0.095440,15.564898,188.495736,0
0.040625,179.815112,-3.150224,-152.110228,0.077928,-6.378835,3.566263,3.114024,6.421665,-3.578546,-2.943794,-0.037115,0.569264,-0.013287,32.733478,188.269440,0
0.041667,133.991410,66.774049,-182.923675,-0.544122,-6.069960,1.026369,5.114039,6.065117,-1.152858,-4.800990,-0.033462,0.598072,-0.002084,42.799378,188.344983,0
0.042708,54.106179,119.362224,-196.539205,-0.804252,-4.994226,-1.561147,6.293151,5.006501,1.495255,-6.110277,0.028639,0.611268,-0.028224,46.328097,188.420358,0
0.043750,-14.720114,170.367800,-163.620644,-0.238752,-3.176484,-3.735931,6.494645,3.223762,3.635569,-6.256149,0.010374,0.613815,-0.017021,50.377077,188.495631,0
0.044792,-82.604979,186.060895,-114.698296,0.688668,-0.638035,-5.494014,5.561803,0.687495,5.469523,-5.444960,-0.029809,0.610680,-0.050629,42.380908,188.269592,0
0.045833,-132.818229,189.648923,-27.292993,2.396478,1.879113,-6.343291,3.856567,-1.775258,6.300468,-3.783445,-0.066339,0.599444,-0.035692,22.599718,188.420256,0
0.046875,-167.685076,161.137990,49.697538,3.821538,3.998629,-6.144861,1.643865,-3.943950,6.334042,-1.741241,-0.102869,0.602514,-0.017021,1.269058,188.420242,0
0.047917,-185.787706,83.699395,105.686175,4.873368,5.812821,-4.970161,-1.206902,-5.616417,5.184148,1.001859,-0.146705,0.590364,-0.028224,-11.805301,188.495685,0
0.048958,-180.116456,5.306409,152.589584,5.800788,6.483823,-3.418444,-3.229305,-6.516975,3.601995,3.047620,-0.190541,0.596308,-0.028224,-28.397071,188.269563,0
0.050000,-135.302237,-64.980291,183.242993,6.388908,6.192701,-0.878551,-5.244244,-6.160428,1.167913,4.897701,-0.201500,0.609112,-0.054364,-37.784371,188.420347,0
0.051042,-55.553116,-118.873203,196.193751,6.603798,5.067262,1.669280,-6.363655,-5.186354,-1.450823,6.164294,-0.259948,0.610680,-0.035692,-42.229201,188.420341,0
0.052083,13.613452,-170.011670,163.582955,6.026988,3.356028,3.844064,-6.628583,-3.418318,-3.528186,6.356418,-0.278213,0.611986,-0.039427,-45.373381,188.495694,0
0.053125,82.156183,-185.535632,114.672917,5.076948,0.767875,5.554524,-5.628575,-0.863672,-5.378928,5.530997,-0.256295,0.606760,-0.017021,-35.850361,188.344829,0
0.054167,132.426145,-189.618977,26.898296,3.414378,-1.713769,6.431581,-3.949459,1.591729,-6.293807,3.883714,-0.212459,0.596439,-0.050629,-18.828811,188.344813,0
0.055208,167.032114,-160.552322,-50.424621,1.989318,-3.748078,6.300617,-1.788996,3.811882,-6.251840,1.898436,-0.150358,0.592389,0.005384,5.351968,188.420287,0
0.056250,184.998635,-82.642572,-105.563826,0.914868,-5.569371,5.153697,1.043114,5.517430,-5.106143,-0.830433,-0.073645,0.578866,-0.035692,16.379218,188.495682,0
0.057292,179.792427,-3.138143,-151.913258,0.055308,-6.279427,3.613886,3.039397,6.355501,-3.603727,-2.876194,-0.062686,0.587163,-0.058098,33.434698,188.344970,0
0.058333,134.320343,66.906939,-182.455872,-0.544122,-6.020256,1.093835,5.024486,6.109226,-1.186431,-4.754738,0.010374,0.583047,-0.031958,42.742828,188.420278,0
0.059375,53.607109,119.386386,-196.416099,-0.804252,-4.937422,-1.450027,6.218524,4.955041,1.432305,-5.996426,-0.007891,0.618323,-0.024490,46.757877,188.420227,0
0.060417,-15.253211,169.715432,-163.608334,-0.204822,-3.190685,-3.600999,6.475989,3.256844,3.526455,-6.177876,0.014027,0.602514,-0.054364,49.517517,188.495729,0
0.061458,-82.865857,186.193785,-114.205872,0.711288,-0.698389,-5.370988,5.546877,0.768361,5.381393,-5.384476,0.010374,0.597027,-0.028224,43.172608,188.344957,0
0.062500,-132.330501,189.286496,-26.886743,2.351238,1.815208,-6.244076,3.849104,-1.650282,6.199748,-3.822582,-0.037115,0.598921,-0.028224,23.583688,188.345021,0
0.063542,-167.639706,160.932614,50.042235,3.866778,3.888570,-6.121050,1.722223,-3.859408,6.308862,-1.812398,-0.062686,0.596439,-0.035692,0.918448,188.420314,0
0.064583,-184.494661,83.868528,106.166288,4.873368,5.727614,-5.017784,-1.109886,-5.561280,5.142181,0.859545,-0.157664,0.588469,-0.050629,-13.264291,188.495669,0
0.065625,-180.468074,4.786930,152.454167,5.778168,6.448321,-3.497816,-3.102438,-6.410379,3.643962,2.951559,-0.172276,0.579193,-0.050629,-28.453621,188.420220,0
0.066667,-135.755937,-65.656821,182.048864,6.400218,6.157198,-0.989671,-5.109915,-6.116319,1.289617,4.794523,-0.252642,0.600620,-0.039427,-37.128391,188.420361,0
0.067708,-55.530431,-118.933608,196.341478,6.615108,5.120517,1.578003,-6.281565,-5.160624,-1.358496,6.110927,-0.252642,0.608132,-0.039427,-43.224481,188.420432,0
0.068750,13.295862,-169.383463,163.361364,6.015678,3.352478,3.693258,-6.553955,-3.455076,-3.477826,6.299492,-0.259948,0.623875,-0.061832,-44.887051,188.495716,0
0.069792,81.793223,-185.982625,115.005303,5.099568,0.877934,5.498963,-5.658426,-0.944538,-5.315977,5.577249,-0.234377,0.609243,-0.069301,-36.913501,188.420240,0
0.070833,132.346748,-188.761233,27.920076,3.448308,-1.628562,6.356178,-4.001698,1.514539,-6.193086,3.954871,-0.201500,0.599183,-0.020755,-18.546061,188.420314,0
0.071875,167.724007,-160.926830,-49.562879,1.989318,-3.712576,6.292680,-1.874817,3.753070,-6.318987,1.958919,-0.157664,0.595786,-0.020755,4.933498,188.420330,0
0.072917,183.887070,-84.225171,-105.957765,0.926178,-5.530318,5.169571,0.983412,5.462294,-5.114536,-0.755718,-0.091910,0.589514,-0.013287,15.723238,188.495776,0
0.073958,180.314182,-4.177101,-152.048675,0.032688,-6.254575,3.598012,2.983426,6.340798,-3.612120,-2.844174,-0.059033,0.591148,-0.024490,32.620378,188.420424,0
0.075000,135.114318,66.713644,-181.864963,-0.555432,-5.998955,1.089867,5.017023,6.087172,-1.261972,-4.687138,-0.007891,0.568545,-0.024490,42.663658,188.420325,0
0.076042,54.389742,119.374305,-196.613069,-0.872112,-4.937422,-1.430184,6.177479,5.050610,1.415518,-5.999984,0.006721,0.588861,-0.024490,46.282857,188.420349,0
0.077083,-14.708771,169.727513,-163.374432,-0.227442,-3.197785,-3.573219,6.438675,3.315656,3.501274,-6.184992,0.024986,0.600097,-0.024490,50.071707,188.495680,0
0.078125,-82.933912,186.242108,-113.885796,0.722598,-0.701940,-5.335270,5.513295,0.823498,5.339426,-5.455633,-0.015197,0.605388,-0.046895,42.505318,188.420238,0
0.079167,-132.387214,189.105283,-26.246591,2.373858,1.786805,-6.220265,3.860298,-1.646607,6.216535,-3.794119,-0.033462,0.594675,-0.028224,22.396138,188.420377,0
0.080208,-167.344801,160.751401,50.694697,3.855468,3.892120,-6.101207,1.733417,-3.818975,6.287878,-1.776820,-0.077298,0.593434,0.001650,0.952378,188.420332,0
0.081250,-184.426606,83.179916,106.153978,4.873368,5.674360,-5.005878,-1.098692,-5.495117,5.154771,0.895123,-0.154011,0.562993,-0.024490,-12.088051,188.495852,0
0.082292,-180.343306,3.699649,152.220266,5.766858,6.416368,-3.454162,-3.091244,-6.410379,3.690126,2.940885,-0.205153,0.587816,-0.054364,-28.329211,188.495761,0
0.083333,-135.166127,-66.272947,182.085796,6.343668,6.157198,-0.981734,-5.080064,-6.072210,1.339978,4.808755,-0.201500,0.574032,-0.028224,-37.614721,188.345008,0
0.084375,-54.759141,-118.994012,196.366099,6.649038,5.109866,1.570065,-6.266640,-5.186354,-1.350103,6.110927,-0.230724,0.605388,-0.050629,-42.229201,188.495738,0
0.085417,13.806275,-169.540515,163.398296,6.004368,3.405732,3.693258,-6.542761,-3.477130,-3.456842,6.310166,-0.267254,0.613358,-0.046895,-44.966221,188.495792,0
0.086458,82.201553,-185.728926,114.943750,5.099568,0.892135,5.475152,-5.643501,-0.995999,-5.299190,5.555902,-0.248989,0.610288,-0.002084,-35.974771,188.495700,0
0.087500,132.403460,-188.845799,28.104735,3.482238,-1.617911,6.364115,-4.016624,1.503511,-6.180496,3.972661,-0.216112,0.603233,-0.046895,-19.383001,188.344977,0
0.088542,167.542527,-160.914749,-49.353599,1.978008,-3.694824,6.300617,-1.900937,3.683231,-6.293807,2.001613,-0.179582,0.605846,-0.043161,4.865638,188.495644,0
0.089583,183.909755,-84.962106,-106.130114,0.892248,-5.494815,5.181477,0.908785,5.440240,-5.173290,-0.702350,-0.124787,0.592585,-0.043161,16.401838,188.495750,0
0.090625,180.234785,-4.865712,-152.331819,0.021378,-6.254575,3.657541,2.949844,6.289338,-3.666677,-2.755228,-0.048074,0.602057,-0.039427,33.457318,188.495658,0
0.091667,135.999033,66.085437,-181.606440,-0.555432,-5.991854,1.169239,4.938664,6.032035,-1.299742,-4.640886,-0.037115,0.606172,-0.020755,42.641038,188.420354,0
0.092708,55.750842,119.313900,-196.317614,-0.792942,-4.955173,-1.374624,6.170016,5.061637,1.365158,-5.911038,0.006721,0.617016,-0.028224,46.723947,188.495808,0
0.093750,-13.506466,169.510056,-163.472917,-0.227442,-3.233288,-3.505753,6.412555,3.370792,3.396357,-6.152971,0.021333,0.608263,0.012853,49.212147,188.495721,0
0.094792,-82.310074,186.447484,-114.673675,0.688668,-0.762294,-5.279710,5.505832,0.867607,5.310049,-5.416497,-0.007891,0.602253,-0.043161,43.297017,188.495752,0
0.095833,-132.262446,189.008635,-26.899053,2.373858,1.694498,-6.196453,3.923732,-1.587795,6.182961,-3.868834,-0.015197,0.596504,-0.035692,23.651548,188.420247,0
0.096875,-167.957296,161.041343,50.485417,3.855468,3.828215,-6.144861,1.796851,-3.756487,6.304665,-1.865766,-0.069992,0.593107,-0.050629,0.669628,188.495644,0
0.097917,-183.575919,83.941013,106.597159,4.884678,5.574952,-5.025721,-1.020334,-5.451008,5.184148,0.809735,-0.128440,0.584484,-0.046895,-13.524421,188.495729,0
0.098958,-180.547471,3.192251,152.134091,5.755548,6.419918,-3.577188,-3.039005,-6.406703,3.681732,2.891075,-0.164970,0.595067,-0.043161,-28.431001,188.495944,0
0.100000,-135.597142,-67.311905,180.916288,6.354978,6.132346,-1.073011,-5.020362,-6.112643,1.398731,4.712693,-0.230724,0.579062,-0.031958,-36.924811,188.420256,0
0.101042,-54.021878,-119.320197,196.809281,6.592488,5.184422,1.474819,-6.270371,-5.171651,-1.282955,6.093137,-0.263601,0.591931,-0.005818,-43.235791,188.495778,0
0.102083,14.566222,-168.839822,163.324432,6.015678,3.458986,3.673415,-6.591269,-3.539618,-3.356122,6.327955,-0.241683,0.602318,-0.035692,-44.717401,188.495667,0
0.103125,82.303635,-186.369214,114.623675,5.144808,0.980892,5.475152,-5.669621,-0.995999,-5.324371,5.602154,-0.248989,0.600032,-0.028224,-37.049221,188.495821,0
0.104167,132.074528,-188.507534,27.747727,3.459618,-1.518504,6.348240,-4.061400,1.426321,-6.167906,4.033144,-0.230724,0.602841,-0.065566,-18.783571,188.420329,0
0.105208,167.928172,-160.950992,-49.538258,2.023248,-3.691274,6.336335,-1.964370,3.631771,-6.352560,2.015845,-0.161317,0.602710,-0.050629,4.741228,188.495745,0
0.106250,183.059067,-84.962106,-106.524053,0.903558,-5.484164,5.217194,0.860277,5.399806,-5.227847,-0.648982,-0.124787,0.598007,-0.031958,15.757168,188.495799,0
0.107292,180.507005,-4.793227,-152.381061,0.010068,-6.307829,3.713101,2.893873,6.322420,-3.712841,-2.737438,-0.051727,0.597615,-0.050629,32.665618,188.495653,0
0.108333,136.112458,66.327055,-181.298675,-0.566742,-6.038008,1.200987,4.927470,6.061441,-1.350103,-4.640886,-0.026156,0.604801,-0.035692,42.720208,188.420323,0
0.109375,56.091117,119.386386,-196.465342,-0.781632,-5.019078,-1.334938,6.196136,5.105746,1.310601,-6.007100,0.028639,0.613031,-0.031958,46.226307,188.495732,0
0.110417,-12.871286,169.655027,-163.300569,-0.204822,-3.265241,-3.513690,6.446138,3.396523,3.400554,-6.220570,0.021333,0.616624,-0.013287,49.743717,188.495709,0
0.111458,-82.037854,186.326675,-115.067614,0.711288,-0.772945,-5.351145,5.565534,0.852904,5.368803,-5.448518,-0.015197,0.610614,-0.046895,42.629728,188.495649,0
0.112500,-132.670777,188.682451,-27.699243,2.317308,1.705149,-6.204390,3.897612,-1.562064,6.250108,-3.868834,-0.022503,0.598529,-0.031958,22.667578,188.495731,0
0.113542,-167.979981,161.246718,49.906818,3.798918,3.845967,-6.160736,1.811776,-3.793245,6.292075,-1.862208,-0.084604,0.595002,-0.031958,1.122028,188.494440,0
0.114583,-184.040961,84.545058,106.523296,4.884678,5.638857,-5.041595,-1.001677,-5.539226,5.192542,0.827524,-0.132093,0.578540,-0.046895,-12.246391,188.495917,0
0.115625,-180.638211,3.905024,152.183334,5.766858,6.427019,-3.529565,-3.046467,-6.417730,3.706912,2.919538,-0.183235,0.588600,-0.024490,-28.340521,188.495986,0
0.116667,-135.585799,-66.756183,181.704167,6.400218,6.142997,-1.005545,-5.094990,-6.108967,1.356764,4.798081,-0.223418,0.558224,-0.043161,-37.569481,188.420459,0
0.117708,-54.350811,-119.308116,196.649243,6.682968,5.148919,1.502600,-6.266640,-5.123866,-1.320726,6.064674,-0.274560,0.572138,-0.020755,-42.330991,188.495930,0
0.118750,14.656962,-169.298897,163.361364,6.004368,3.430584,3.673415,-6.505447,-3.425670,-3.427465,6.285261,-0.252642,0.582851,-0.031958,-44.977531,188.495915,0
0.119792,82.768678,-185.885978,114.254356,5.088258,0.899236,5.475152,-5.647232,-0.962917,-5.294994,5.570134,-0.285519,0.599705,-0.031958,-35.974771,188.495747,0
0.120833,132.017815,-188.954527,26.762879,3.425688,-1.575308,6.356178,-4.076326,1.459402,-6.205676,3.994008,-0.219765,0.596766,-0.028224,-19.202041,188.420549,0
0.121875,167.247622,-160.552322,-50.400000,1.966698,-3.709025,6.352209,-1.941982,3.683231,-6.260233,1.973151,-0.143052,0.598203,0.001650,5.204938,188.496083,0
0.122917,183.807672,-83.717773,-106.450190,0.971418,-5.487715,5.189414,0.901322,5.418185,-5.190076,-0.695234,-0.106522,0.595198,-0.031958,16.560178,188.495868,0
0.123958,180.166730,-3.778431,-152.270266,0.055308,-6.251025,3.705164,2.946113,6.337123,-3.679267,-2.755228,-0.044421,0.583113,-0.043161,33.479938,188.495910,0
0.125000,135.647415,66.641159,-181.569508,-0.600672,-5.984754,1.216862,4.953590,6.028360,-1.295546,-4.630213,-0.000585,0.592977,-0.043161,42.708898,188.420513,0
0.126042,55.115662,119.652165,-196.280682,-0.826872,-5.033279,-1.366687,6.147628,5.083692,1.323191,-5.996426,0.014027,0.604082,-0.046895,46.712637,188.494945,0
0.127083,-13.529151,169.691270,-163.399054,-0.204822,-3.275891,-3.501785,6.442406,3.348738,3.429931,-6.156529,0.017680,0.616624,-0.031958,49.132977,188.495043,0
