1-Time,2-VGERA,3-VGERB,4-VGERC,5-VN,6-IGERAN,7-IGERBN,8-IGERCN,9-IGERAT,10-IGERBT,11-IGERCT,12-IN,13-IFD,14-IFAULT,15-VFAULT,16-Speed (rad/s),17-Active Power,18-Reactive Power,19-FAULT 
0.000000,158.489854,-139.050583,8.717763,0.494418,-5.472800,0.928226,5.132929,6.177538,-0.799703,-5.202039,-0.093995,0.194456,0.007577,103.402922,188.495611,1009.558706,-1290.240724,0
0.001042,198.288191,-81.734933,-44.312132,-0.608994,-4.291230,-1.598240,6.165185,4.878655,1.754043,-6.066419,-0.090349,0.201415,-0.018440,119.479809,188.570957,1009.931639,-1289.683746,0
0.002083,172.422662,-34.473013,-125.679726,-2.140259,-2.397782,-3.625953,6.188382,3.002489,3.833276,-6.150191,-0.115872,0.222636,0.007577,95.218120,188.571000,1009.676907,-1290.449598,0
0.003125,126.025169,7.668083,-186.231506,-3.288707,-0.408928,-4.950508,5.256645,0.856673,4.933286,-5.042109,-0.086703,0.224497,0.000144,64.539185,188.571033,1009.149288,-1289.569346,0
0.004167,71.344830,68.260590,-195.053619,-3.525153,2.372532,-5.915307,3.547818,-1.877820,5.985843,-3.461855,-0.068472,0.181916,0.007577,37.755631,188.495723,1008.972958,-1289.559348,0
0.005208,24.811738,143.945435,-167.129078,-2.962187,4.416429,-5.956189,1.514235,-3.913497,5.903882,-1.333271,-0.021072,0.155045,0.007577,9.474720,188.571020,1009.042551,-1288.940518,0
0.006250,-18.060179,189.891915,-102.530791,-1.723664,5.854862,-4.562136,-1.149526,-5.455447,4.609753,1.328410,0.019036,0.153185,-0.025873,-21.733356,188.571125,1009.618786,-1289.413426,0
0.007292,-92.831785,185.734181,-52.149960,-0.811661,6.816264,-3.086320,-3.496265,-6.351752,2.944641,3.635962,0.066437,0.186464,0.029877,-67.115663,188.571033,1009.195221,-1288.937233,0
0.008333,-159.693443,138.131655,-8.282425,0.089083,6.383266,-0.801054,-5.166432,-6.044122,0.748937,5.277142,0.110191,0.191769,-0.033307,-104.144293,188.495644,1010.462474,-1289.140419,0
0.009375,-197.921091,81.262317,44.990503,1.181235,5.128307,1.713148,-6.148428,-4.673078,-1.822065,6.122483,0.143006,0.195834,0.007577,-117.181432,188.571158,1009.575369,-1288.920026,0
0.010417,-172.089461,33.953416,126.637586,2.802574,3.300909,3.720421,-6.202554,-2.823498,-3.741689,6.206256,0.150299,0.199279,-0.007290,-96.488632,188.495693,1008.993968,-1289.219993,0
0.011458,-125.646768,-7.999760,186.059260,3.872208,1.264352,4.971389,-5.220557,-0.692873,-4.919346,5.037248,0.110191,0.199555,-0.025873,-63.940815,188.571044,1007.501171,-1289.028621,0
0.012500,-70.808231,-68.827167,195.112256,4.086135,-1.480414,6.017951,-3.523328,2.030225,-6.023669,3.476033,0.084667,0.217055,-0.029590,-35.896329,188.495595,1007.469549,-1289.448861,0
0.013542,-24.851434,-144.018722,166.798860,3.500651,-3.498624,5.997510,-1.493611,4.081094,-5.820922,1.332218,0.019036,0.207685,-0.018440,-8.752508,188.571064,1005.842040,-1289.492481,0
0.014583,18.517679,-190.458492,102.905371,2.307165,-4.893024,4.681132,1.177882,5.604055,-4.621696,-1.329463,-0.035656,0.200726,-0.029590,22.849609,188.571105,1006.189323,-1290.241219,0
0.015625,93.390984,-185.396393,52.901242,1.372643,-5.843417,3.094936,3.501424,6.515552,-2.878937,-3.591321,-0.057533,0.185224,-0.003573,66.813367,188.571087,1004.628405,-1290.439199,0
0.016667,160.184843,-138.369372,8.802825,0.505677,-5.410419,0.838287,5.194787,6.139559,-0.631467,-5.255348,-0.086703,0.192871,-0.025873,105.271804,188.495588,1003.297057,-1291.731717,0
0.017708,197.677995,-82.122519,-45.101991,-0.575216,-4.173807,-1.663650,6.118792,4.810292,1.814436,-6.081650,-0.112226,0.200519,-0.011006,117.442053,188.495607,1002.310949,-1292.236513,0
0.018750,172.433962,-34.907578,-126.931348,-2.185296,-2.331732,-3.658658,6.130390,2.941723,3.824649,-6.176846,-0.141395,0.211337,0.000144,95.353220,188.495718,1002.283940,-1292.748823,0
0.019792,126.092968,7.785533,-186.219354,-3.299967,-0.357555,-4.917803,5.190921,0.769321,4.950541,-4.950721,-0.093995,0.216849,-0.048173,62.456395,188.495555,1000.625298,-1293.126580,0
0.020833,71.661228,69.223681,-195.187288,-3.547671,2.387210,-5.923484,3.497558,-1.870224,6.016040,-3.397122,-0.053887,0.198797,-0.011006,36.550990,188.495660,1000.456856,-1293.468858,0
0.021875,25.670532,144.368256,-166.557949,-2.973447,4.354048,-5.931660,1.483306,-3.981859,5.860744,-1.264730,-0.024718,0.209407,-0.025873,9.024387,188.495620,999.154354,-1294.321373,0
0.022917,-18.512176,190.338225,-102.275606,-1.734924,5.843854,-4.553959,-1.242313,-5.444053,4.545047,1.396951,0.019036,0.188669,-0.025873,-22.510181,188.495720,998.210630,-1294.506836,0
0.023958,-94.040877,185.099951,-52.356539,-0.744105,6.808925,-3.020910,-3.527194,-6.332763,2.884249,3.685464,0.055498,0.184190,-0.014723,-66.124930,188.571006,997.546765,-1294.771460,0
0.025000,-160.574837,137.885010,-8.185212,0.111601,6.328224,-0.727468,-5.178030,-6.009941,0.692858,5.303797,0.099252,0.191425,0.000144,-104.977409,188.495589,997.061191,-1295.186094,0
0.026042,-197.649892,81.297552,45.853272,1.169976,5.102620,1.790822,-6.129097,-4.612312,-1.856575,6.160561,0.128422,0.197350,-0.007290,-115.245001,188.495604,996.594408,-1295.669131,0
0.027083,-172.089461,34.082611,127.634023,2.689981,3.264214,3.704068,-6.163892,-2.789317,-3.797768,6.210063,0.099252,0.207823,-0.007290,-94.270742,188.495618,996.466623,-1296.502327,0
0.028125,-125.601569,-8.269895,186.593934,3.849689,1.179954,4.938684,-5.170298,-0.673883,-4.897777,5.029632,0.113837,0.222498,-0.007290,-61.925575,188.571078,996.444011,-1296.416205,0
0.029167,-70.909930,-69.649318,195.063649,4.086135,-1.473075,6.013863,-3.527194,2.041619,-6.036610,3.426531,0.077375,0.209132,-0.011006,-35.434737,188.495718,996.177025,-1296.641597,0
0.030208,-24.794935,-144.864363,166.446462,3.489392,-3.458260,6.001598,-1.497478,4.103882,-5.816608,1.294140,0.008098,0.204584,0.011294,-8.437275,188.495568,996.000752,-1296.967027,0
0.031250,19.206975,-190.728627,102.018299,2.284646,-4.915041,4.648427,1.204945,5.626842,-4.548362,-1.348503,-0.053887,0.198246,-0.003573,23.435042,188.495571,995.530632,-1296.769865,0
0.032292,94.215879,-184.973572,52.147838,1.338865,-5.825070,3.111289,3.497558,6.469977,-2.870309,-3.610361,-0.053887,0.185775,-0.033307,67.376283,188.495631,995.476892,-1296.173123,0
0.033333,160.953238,-137.406281,8.146635,0.449381,-5.414089,0.838287,5.187055,6.128166,-0.687546,-5.224886,-0.119518,0.192596,-0.003573,104.990346,188.495752,996.353875,-1295.045729,0
0.034375,197.361597,-80.760098,-45.660967,-0.608994,-4.181146,-1.675914,6.149721,4.783707,1.874829,-6.066419,-0.093995,0.197832,-0.014723,118.657952,188.495680,995.871389,-1294.770193,0
0.035417,171.880266,-33.509922,-127.939937,-2.174036,-2.361088,-3.687275,6.188382,2.994893,3.837590,-6.161615,-0.104934,0.213610,-0.040740,94.936662,188.495551,996.892011,-1294.128963,0
0.036458,125.256774,8.960034,-186.316567,-3.345004,-0.331869,-4.893274,5.206386,0.792108,4.989364,-4.965952,-0.093995,0.227735,-0.029590,63.987527,188.495620,997.702645,-1293.943630,0
0.037500,70.237437,70.362947,-195.320956,-3.525153,2.383541,-5.948013,3.551684,-1.965171,6.102315,-3.427584,-0.068472,0.209683,-0.037023,36.899998,188.495551,998.621888,-1295.097727,0
0.038542,24.099842,144.485706,-166.011124,-2.950928,4.478810,-5.919396,1.479440,-4.004647,5.865058,-1.226652,-0.010133,0.199830,0.026161,8.911803,188.495745,998.632992,-1294.869716,0
0.039583,-19.404870,191.536216,-100.926770,-1.723664,5.854862,-4.611193,-1.226849,-5.493426,4.618381,1.435030,0.055498,0.191700,-0.033307,-22.656539,188.495693,1000.017493,-1295.492814,0
0.040625,-94.379875,184.395250,-51.226433,-0.766624,6.805256,-3.000469,-3.565855,-6.378338,2.871308,3.670233,0.084667,0.182261,-0.011006,-67.836196,188.495774,1000.501631,-1295.147801,0
0.041667,-162.021228,136.604804,-7.674842,0.077824,6.368588,-0.751996,-5.216691,-6.036526,0.718741,5.353299,0.099252,0.188944,-0.040740,-105.472775,188.495566,1001.666783,-1295.294874,0
0.042708,-197.005797,80.040835,46.460856,1.192494,5.076934,1.696795,-6.156160,-4.608514,-1.830692,6.171985,0.110191,0.196316,-0.033307,-116.550966,188.420191,1002.014272,-1294.523134,0
0.043750,-171.806963,32.790660,128.982858,2.791315,3.260545,3.761302,-6.221884,-2.808306,-3.780513,6.236718,0.128422,0.210303,-0.014723,-96.072074,188.495761,1003.243940,-1294.134830,0
0.044792,-124.607175,-9.362181,186.265839,3.860949,1.176284,5.004094,-5.189628,-0.628309,-4.932287,5.006785,0.099252,0.205205,-0.029590,-62.927566,188.495788,1002.882778,-1294.050843,0
0.045833,-69.373140,-70.718114,195.513261,4.074875,-1.480414,6.050656,-3.496265,2.072002,-6.062493,3.464609,0.048206,0.177920,0.007577,-34.804271,188.495693,1003.966364,-1294.095015,0
0.046875,-23.540643,-144.652953,165.693058,3.511910,-3.502294,6.017951,-1.466549,4.111478,-5.820922,1.237022,0.026329,0.203206,0.011294,-7.930650,188.420177,1003.594744,-1293.769347,0
0.047917,19.952770,-192.220243,100.754525,2.262128,-4.970083,4.656603,1.220409,5.645832,-4.535421,-1.394197,-0.035656,0.207616,-0.014723,23.750275,188.495640,1003.955856,-1294.039588,0
0.048958,94.566177,-184.221892,51.528103,1.338865,-5.821400,3.094936,3.505290,6.462381,-2.835799,-3.637016,-0.064826,0.185224,-0.022156,67.500125,188.495696,1003.568795,-1293.853978,0
0.050000,162.433528,-136.713326,7.794236,0.494418,-5.425097,0.805582,5.187055,6.116772,-0.678918,-5.270580,-0.093995,0.191769,-0.044457,106.577769,188.495593,1004.039837,-1294.199329,0
0.051042,196.751401,-80.090632,-46.523736,-0.608994,-4.085740,-1.684090,6.122658,4.719143,1.926594,-6.093074,-0.101287,0.197626,-0.014723,116.766553,188.420204,1003.349499,-1294.378844,0
0.052083,171.846366,-32.946162,-129.057890,-2.162777,-2.350079,-3.670923,6.180650,2.945521,3.833276,-6.150191,-0.119518,0.222843,0.003860,95.150570,188.495580,1003.299190,-1294.300308,0
0.053125,124.544878,9.347620,-186.292264,-3.311226,-0.298844,-4.885098,5.144528,0.769321,4.967796,-4.935490,-0.064826,0.231387,-0.007290,61.758379,188.495512,1002.839186,-1293.740461,0
0.054167,69.604641,71.044158,-195.478928,-3.446337,2.438583,-5.931660,3.520755,-1.946182,6.041922,-3.381890,-0.057533,0.195007,-0.025873,35.886749,188.495747,1002.447276,-1292.801068,0
0.055208,24.054643,144.967251,-165.500754,-2.872113,4.434776,-5.886691,1.402117,-3.981859,5.826234,-1.203805,0.008098,0.187222,-0.011006,8.483987,188.420276,1002.052358,-1292.251070,0
0.056250,-20.037666,191.959037,-100.817405,-1.667368,5.909904,-4.553959,-1.269376,-5.520011,4.579557,1.442645,0.019036,0.175371,-0.044457,-23.534688,188.495618,1002.010467,-1292.440306,0
0.057292,-95.193469,183.937195,-51.785410,-0.766624,6.735536,-2.955500,-3.561989,-6.328965,2.802287,3.704503,0.081021,0.187153,0.007577,-66.766655,188.495747,1000.915850,-1292.491967,0
0.058333,-162.699223,136.475609,-7.431808,0.122861,6.331894,-0.731556,-5.189628,-5.968164,0.623838,5.292374,0.110191,0.191356,-0.029590,-106.238341,188.495674,999.707055,-1291.953545,0
0.059375,-196.836298,80.440166,47.493748,1.203754,5.007214,1.790822,-6.121365,-4.562939,-1.899713,6.133907,0.128422,0.198797,0.003860,-114.535726,188.495689,998.905079,-1292.131643,0
0.060417,-171.716564,33.236970,129.760565,2.825093,3.198164,3.728597,-6.125231,-2.755136,-3.832278,6.164369,0.110191,0.198521,-0.014723,-94.158159,188.495703,997.798237,-1292.427515,0
0.061458,-124.754074,-9.385671,186.472417,3.928504,1.132251,4.975477,-5.104574,-0.575138,-4.940915,4.945860,0.095606,0.223394,-0.011006,-61.486501,188.495711,996.787930,-1292.724718,0
0.062500,-69.949436,-71.610735,195.063649,4.119912,-1.509770,6.026127,-3.484667,2.113779,-6.053865,3.422723,0.091960,0.206927,0.018727,-34.961888,188.495669,996.203683,-1293.086719,0
0.063542,-23.823141,-145.439868,165.267750,3.523169,-3.491285,5.940276,-1.431753,4.115276,-5.756215,1.248445,0.040913,0.206169,-0.037023,-7.919392,188.495615,995.924730,-1292.671237,0
0.064583,20.551666,-192.173263,100.790980,2.295906,-4.896693,4.607545,1.270669,5.664821,-4.509538,-1.420852,-0.035656,0.189633,-0.007290,24.403258,188.495774,995.689907,-1292.920318,0
0.065625,95.752669,-183.822561,51.673923,1.293828,-5.814061,3.037702,3.528487,6.473775,-2.827171,-3.633208,-0.010133,0.186670,-0.022156,68.119333,188.495629,996.052278,-1292.872732,0
0.066667,163.326222,-136.102585,7.478293,0.460640,-5.406750,0.785141,5.233449,6.093984,-0.622839,-5.266772,-0.112226,0.192320,-0.014723,106.375120,188.495598,995.733950,-1292.841033,0
0.067708,196.502803,-79.843987,-47.362202,-0.608994,-4.052714,-1.778118,6.161319,4.658376,1.917966,-6.081650,-0.075764,0.197212,-0.014723,117.937419,188.420233,995.350498,-1292.350838,0
0.068750,171.563868,-32.957907,-130.345968,-2.252852,-2.302376,-3.691363,6.169051,2.918935,3.859159,-6.142575,-0.064826,0.207547,-0.007290,94.677720,188.495633,995.379223,-1292.654361,0
0.069792,124.364080,10.099300,-186.255809,-3.333744,-0.232793,-4.897363,5.109733,0.678171,4.980737,-4.874564,-0.090349,0.221327,-0.029590,63.503419,188.495611,994.196032,-1292.941765,0
0.070833,69.175244,72.488794,-195.211591,-3.525153,2.409227,-5.960277,3.435700,-1.961373,6.046236,-3.359043,-0.072118,0.212370,0.000144,36.247016,188.495564,994.411849,-1292.831819,0
0.071875,23.467046,145.202151,-164.735198,-2.950928,4.486149,-5.858074,1.347992,-4.042626,5.839175,-1.127648,-0.013779,0.200864,-0.014723,8.326370,188.421680,993.836688,-1293.477877,0
0.072917,-20.726962,192.922127,-99.614390,-1.689887,5.913574,-4.529431,-1.331234,-5.554192,4.545047,1.545457,0.026329,0.191080,-0.007290,-23.568463,188.495577,993.392010,-1294.242048,0
0.073958,-95.769766,183.079809,-50.655305,-0.732846,6.808925,-2.930971,-3.581320,-6.344157,2.772091,3.734966,0.113837,0.183088,-0.025873,-68.545470,188.495736,993.378323,-1294.089755,0
0.075000,-164.450712,135.136678,-6.799921,0.156639,6.375927,-0.690674,-5.301746,-6.006143,0.597955,5.353299,0.124775,0.189220,-0.018440,-106.632382,188.495579,994.336641,-1294.721515,0
0.076042,-196.192202,79.101235,48.052725,1.203754,5.007214,1.848056,-6.152294,-4.536353,-1.960105,6.179601,0.124775,0.196730,-0.029590,-115.920500,188.420195,994.044076,-1295.008936,0
0.077083,-171.354966,32.003744,131.243069,2.802574,3.231189,3.777654,-6.206420,-2.751338,-3.858160,6.232910,0.124775,0.206927,-0.014723,-95.779357,188.495633,995.294552,-1295.474173,0
0.078125,-123.624082,-10.689367,186.290142,3.860949,1.058861,5.012270,-5.092975,-0.533361,-4.979738,4.942052,0.143006,0.223601,-0.037023,-62.252067,188.495577,995.298691,-1295.441343,0
0.079167,-68.107548,-72.926176,195.574019,4.119912,-1.557473,6.103802,-3.469202,2.151758,-6.118571,3.453186,0.059144,0.209201,-0.063040,-34.038705,188.495524,996.629257,-1295.822698,0
0.080208,-22.749648,-145.263693,164.429284,3.489392,-3.502294,5.956629,-1.389226,4.191234,-5.782098,1.191328,0.004452,0.199279,-0.033307,-7.311442,188.420216,996.323050,-1296.409822,0
0.081250,21.455660,-193.747095,99.272021,2.250869,-4.955405,4.656603,1.313196,5.740779,-4.531107,-1.447507,-0.002841,0.181021,-0.037023,24.662199,188.495615,997.467807,-1297.120280,0
0.082292,96.125566,-182.824235,50.483059,1.282569,-5.810392,2.964116,3.605809,6.458583,-2.758151,-3.697941,-0.061180,0.185086,-0.014723,68.141849,188.495770,996.610935,-1297.074616,0
0.083333,164.806512,-135.022044,6.712738,0.438121,-5.399411,0.748348,5.248913,6.078793,-0.575388,-5.304850,-0.097641,0.188531,-0.011006,107.714860,188.495696,996.815584,-1297.318642,0
0.084375,195.813507,-78.739956,-48.042695,-0.631512,-4.049045,-1.794470,6.114926,4.662174,1.952476,-6.039764,-0.115872,0.198108,-0.003573,116.079795,188.495703,996.626823,-1296.584426,0
0.085417,171.337869,-31.478035,-131.354556,-2.219074,-2.265681,-3.756774,6.172917,2.892350,3.859159,-6.157807,-0.104934,0.202931,-0.033307,94.734012,188.495729,997.169151,-1296.364034,0
0.086458,123.358386,10.897961,-186.328719,-3.333744,-0.181421,-4.913715,5.047875,0.651586,4.976423,-4.840294,-0.064826,0.209407,-0.037023,60.587513,188.495656,996.828772,-1295.841152,0
0.087500,67.807953,73.123025,-195.563990,-3.491375,2.471608,-5.964365,3.451164,-1.991757,6.093687,-3.320965,-0.057533,0.192527,-0.033307,34.670850,188.495787,996.989670,-1296.162154,0
0.088542,22.664752,145.542757,-164.066856,-2.894632,4.460462,-5.825369,1.305464,-4.008445,5.787410,-1.112416,-0.028364,0.185499,-0.018440,7.662129,188.495647,996.707784,-1295.077332,0
0.089583,-21.416257,193.626828,-98.678711,-1.678627,5.924582,-4.500814,-1.358297,-5.539001,4.519164,1.556881,0.051852,0.173786,-0.025873,-24.491646,188.495734,996.830167,-1294.639049,0
0.090625,-96.413861,182.656989,-50.047721,-0.744105,6.746544,-2.890090,-3.604516,-6.328965,2.724640,3.754005,0.062790,0.184466,-0.014723,-67.419638,188.495716,996.463682,-1294.444722,0
0.091667,-165.015708,134.631642,-6.411068,0.134120,6.346572,-0.666146,-5.243754,-5.949174,0.567759,5.372338,0.117483,0.189082,0.007577,-107.409207,188.495611,995.974946,-1294.327871,0
0.092708,-195.808005,78.513984,49.073465,1.226272,4.948502,1.811263,-6.136829,-4.517364,-1.908340,6.122483,0.150299,0.197557,-0.014723,-113.736385,188.495642,996.172972,-1292.883907,0
0.093750,-171.162867,31.498709,132.105838,2.858871,3.168808,3.802183,-6.144562,-2.720955,-3.879729,6.183408,0.102898,0.209201,0.022444,-94.023059,188.495575,995.809290,-1292.684314,0
0.094792,-123.239884,-11.018228,186.593934,3.905986,1.077209,4.991830,-5.019519,-0.514371,-4.945228,4.873511,0.117483,0.193285,-0.011006,-60.788484,188.495665,995.052776,-1292.032293,0
0.095833,-67.745951,-73.713092,195.270227,4.074875,-1.520778,6.026127,-3.407344,2.106184,-6.027982,3.365606,0.077375,0.171030,-0.014723,-34.263872,188.495622,994.061747,-1290.537787,0
0.096875,-22.659249,-145.968394,164.003976,3.478132,-3.553666,5.928012,-1.315770,4.164648,-5.782098,1.157057,0.048206,0.205205,-0.022156,-7.581642,188.571815,993.993481,-1290.295943,0
0.097917,22.201455,-193.829310,99.223414,2.228350,-4.995769,4.603457,1.347992,5.699002,-4.500911,-1.493201,-0.017425,0.194112,-0.025873,25.484057,188.495506,993.490696,-1290.028421,0
0.098958,96.860061,-182.413160,50.264329,1.327606,-5.814061,2.923235,3.609676,6.458583,-2.697759,-3.758867,-0.061180,0.181365,-0.033307,68.580924,188.495640,992.870791,-1290.558248,0
0.100000,165.846106,-134.528754,6.895013,0.460640,-5.399411,0.719731,5.268244,6.101580,-0.575388,-5.285811,-0.104934,0.192251,-0.007290,107.827443,188.495678,993.392976,-1290.451264,0
0.101042,195.553609,-79.162776,-49.112042,-0.654031,-4.045376,-1.790382,6.099461,4.593812,1.995614,-6.070227,-0.126811,0.198246,0.003860,117.081786,188.571027,992.808768,-1291.072304,0
0.102083,171.224870,-32.335421,-132.630482,-2.320407,-2.273020,-3.736333,6.172917,2.884754,3.893669,-6.142575,-0.108580,0.209614,-0.018440,94.486329,188.495591,992.780438,-1291.663357,0
0.103125,123.765184,11.121116,-186.231506,-3.322485,-0.177751,-4.942332,5.059473,0.625000,4.928972,-4.813639,-0.086703,0.214713,-0.014723,63.199445,188.495696,992.234927,-1291.328534,0
0.104167,68.361650,74.450211,-195.272349,-3.446337,2.489956,-5.972541,3.482093,-2.041129,6.141139,-3.332388,-0.042949,0.206238,0.007577,35.774166,188.495720,992.735403,-1292.297814,0
0.105208,22.698651,146.000812,-163.605093,-2.838335,4.519174,-5.817192,1.286134,-4.050222,5.778783,-1.055299,-0.010133,0.206238,-0.022156,7.740938,188.571169,992.141947,-1292.848694,0
0.106250,-22.218552,194.437234,-98.496436,-1.622331,5.957607,-4.529431,-1.393092,-5.611161,4.506223,1.583536,0.029975,0.191218,-0.014723,-24.615487,188.495808,992.540690,-1293.785085,0
0.107292,-97.216156,181.764368,-50.254299,-0.710327,6.772230,-2.845120,-3.654776,-6.340359,2.724640,3.818739,0.091960,0.184466,0.007577,-69.311036,188.495660,992.477256,-1294.315537,0
0.108333,-166.914096,134.020902,-6.228793,0.134120,6.357580,-0.613000,-5.294014,-5.990951,0.559131,5.379954,0.095606,0.190804,-0.007290,-107.825765,188.495656,993.551501,-1294.653574,0
0.109375,-195.209109,78.443514,49.766110,1.215013,4.959511,1.893025,-6.117499,-4.490779,-1.955792,6.221487,0.124775,0.197694,0.003860,-115.233742,188.495633,993.525032,-1295.833184,0
0.110417,-171.061168,31.463474,133.551887,2.813834,3.132113,3.859417,-6.206420,-2.732348,-3.888357,6.210063,0.139360,0.207272,-0.014723,-95.509158,188.495564,994.385450,-1296.183814,0
