1-Time,2-VGERA,3-VGERB,4-VGERC,5-VN,6-IGERAN,7-IGERBN,8-IGERCN,9-IGERAT,10-IGERBT,11-IGERCT,12-IN,13-IFD,14-IFAULT,15-VFAULT,16-Speed (rad/s),17-Active Power,18-Reactive Power,19-FAULT 
0.000000,-183.882166,117.755463,13.430492,3.188178,5.294480,0.411239,-5.400962,-4.929051,-0.044931,5.249928,-0.241683,0.198348,-0.043161,-207.807597,188.495691,994.053440,-1278.834617,0
0.001044,-193.534634,62.968564,83.219318,4.466208,3.913422,2.879698,-6.233057,-3.319073,-2.617504,6.061117,-0.227071,0.198022,-0.017021,-183.988738,188.495685,993.704612,-1279.424585,0
0.002084,-161.174480,15.128184,155.310228,5.846028,1.953668,4.403634,-5.632307,-1.492225,-4.224837,5.630617,-0.259948,0.213700,-0.046895,-120.177719,188.495653,993.250040,-1280.191023,0
0.003125,-99.527990,-33.871963,207.482576,6.875238,-0.499574,5.554524,-4.259163,0.985231,-5.299190,4.221710,-0.197847,0.191228,-0.046895,-37.784371,188.495633,993.137567,-1280.573744,0
0.004166,-54.180673,-105.415076,188.844319,6.502008,-2.885361,6.010911,-2.322582,3.418577,-5.916104,2.421439,-0.157664,0.174505,-0.024490,37.381888,188.495658,992.429473,-1280.662444,0
0.005207,-9.037521,-180.087144,138.949432,5.619828,-4.653399,5.621990,-0.255403,5.212343,-5.492238,0.386351,-0.157664,0.199198,-0.035692,111.846926,188.495593,992.602368,-1281.864510,0
0.006248,47.175911,-203.089185,83.157765,4.545378,-5.693631,3.756755,2.423721,6.281986,-3.767398,-2.193088,-0.048074,0.184630,-0.050629,169.064215,188.495571,992.524412,-1281.756923,0
0.007290,130.634030,-173.563456,33.989205,3.606648,-6.222622,1.990735,4.505825,6.752483,-1.887279,-4.263755,-0.040768,0.179796,-0.031958,217.674594,188.646388,993.214431,-1281.880255,0
0.008332,183.229205,-116.517427,-13.874432,2.701848,-5.093634,-0.239609,5.330458,5.771057,0.211067,-5.057154,0.006721,0.199720,-0.013287,212.924394,188.493525,992.960126,-1281.017658,0
0.009373,193.131208,-62.697000,-83.478599,1.401198,-3.719676,-2.696162,6.214793,4.282378,2.716493,-5.896806,0.017680,0.191947,-0.020755,189.467454,188.491929,994.243682,-1281.552258,0
0.010415,160.634944,-14.784134,-155.618750,0.021378,-1.717319,-4.228035,5.576728,2.356285,4.332220,-5.484096,0.006721,0.208604,-0.043161,124.762946,188.495960,994.487181,-1282.042451,0
0.011456,99.192619,34.530116,-207.877273,-0.985212,0.753674,-5.327333,4.229704,-0.121170,5.393983,-4.068073,-0.004238,0.215921,-0.009553,41.408248,188.571437,994.907626,-1282.532170,0
0.012498,53.618452,105.964501,-188.451137,-0.589362,3.164313,-5.835312,2.207301,-2.510408,5.985717,-2.253571,-0.062686,0.190117,-0.058098,-31.699591,188.496038,995.195151,-1281.984903,0
0.013540,8.112340,181.204371,-137.756061,0.326748,4.889749,-5.386862,0.136391,-4.318877,5.540867,-0.154442,-0.117481,0.173656,-0.013287,-107.725409,188.495984,995.310345,-1282.259339,0
0.014582,-47.681420,202.817109,-82.727652,1.367268,5.926430,-3.529565,-2.624823,-5.377493,3.837010,2.368072,-0.168623,0.172218,-0.017021,-166.752298,188.495971,996.016880,-1282.156633,0
0.015624,-132.217076,173.750454,-33.817614,2.249448,6.515776,-1.723859,-4.643494,-5.906801,1.990465,4.460086,-0.238030,0.179600,-0.013287,-212.964957,188.571330,997.549606,-1283.295493,0
0.016666,-183.541891,116.076218,14.501515,3.176868,5.301581,0.470768,-5.442007,-4.866564,-0.116275,5.264159,-0.201500,0.198022,-0.024490,-210.521997,188.496018,996.598922,-1282.905208,0
0.017708,-193.784169,61.820878,84.758144,4.534068,3.877919,2.927321,-6.300222,-3.344803,-2.630094,6.114484,-0.227071,0.195866,-0.009553,-184.147078,188.496060,997.969455,-1283.224230,0
0.018750,-159.609215,14.137550,156.171970,5.879958,1.886213,4.494912,-5.639770,-1.470171,-4.241624,5.605712,-0.252642,0.228986,-0.039427,-119.781869,188.560318,997.885275,-1282.649003,0
0.019792,-99.085633,-34.850516,208.479735,6.863928,-0.552828,5.621990,-4.259163,1.029340,-5.374731,4.211036,-0.230724,0.208016,-0.065566,-38.168911,188.571482,998.323512,-1283.756133,0
0.020832,-54.203358,-106.514438,187.600948,6.479388,-2.956366,6.078377,-2.236760,3.466362,-5.911908,2.385861,-0.143052,0.196454,-0.020755,40.186768,188.571339,997.916733,-1283.898750,0
0.021875,-7.971326,-182.334192,137.361364,5.574588,-4.720855,5.590241,-0.184507,5.223370,-5.479648,0.283174,-0.099216,0.195147,-0.058098,113.419016,188.496060,997.860446,-1284.115923,0
0.022917,48.140024,-201.941499,81.729735,4.511448,-5.743335,3.697226,2.513274,6.281986,-3.649890,-2.239340,-0.055380,0.181364,-0.031958,171.066085,188.496031,996.501473,-1283.564990,0
0.023959,132.698365,-173.418485,33.078220,3.595338,-6.236823,1.966924,4.546870,6.778213,-1.891476,-4.310007,-0.022503,0.179143,-0.043161,219.303234,188.571400,997.659810,-1284.055027,0
0.025000,183.047725,-115.635521,-14.834659,2.656608,-4.997776,-0.279295,5.330458,5.715921,0.278214,-5.082059,0.021333,0.201811,-0.005818,213.919674,188.496024,996.852047,-1284.125459,0
0.026041,193.573565,-61.911741,-85.140531,1.367268,-3.659321,-2.700131,6.158822,4.256648,2.720690,-5.896806,-0.000585,0.199524,-0.013287,188.913264,188.495895,997.391806,-1284.042396,0
0.027082,159.115049,-13.648529,-156.221970,0.010068,-1.674716,-4.259784,5.520758,2.286446,4.349006,-5.430728,-0.015197,0.212589,-0.028224,122.195576,188.495995,996.508518,-1283.451169,0
0.028123,97.695409,35.750287,-208.751326,-0.951282,0.771426,-5.355113,4.132688,-0.198361,5.419163,-4.028937,-0.022503,0.210891,-0.054364,40.311178,188.512051,996.281641,-1283.759547,0
0.029165,52.960587,107.088025,-187.466288,-0.589362,3.203366,-5.803563,2.155062,-2.547165,5.973126,-2.182414,-0.062686,0.198414,-0.050629,-33.950281,188.571500,995.629479,-1283.655765,0
0.030207,7.862805,182.726565,-137.189773,0.315438,4.932352,-5.347176,0.061764,-4.322553,5.545064,-0.157999,-0.084604,0.193841,-0.024490,-108.517109,188.496009,996.285611,-1283.665332,0
0.031248,-48.872383,201.983526,-81.828978,1.344648,5.947731,-3.434319,-2.658405,-5.362790,3.736289,2.460576,-0.154011,0.191947,-0.017021,-165.643918,188.495966,994.845894,-1283.666547,0
0.032290,-133.600862,173.339703,-32.598864,2.283378,6.487374,-1.715922,-4.636031,-5.866368,1.998858,4.513453,-0.238030,0.177836,-0.050629,-213.225087,188.571382,995.285809,-1283.519507,0
0.033332,-183.700686,114.940613,15.375568,3.233418,5.230575,0.554108,-5.479321,-4.800400,-0.204405,5.264159,-0.230724,0.196127,-0.035692,-206.586117,188.550141,994.225013,-1283.412032,0
0.034373,-193.818197,61.446370,85.976894,4.601928,3.867268,2.963038,-6.262908,-3.333776,-2.655274,6.114484,-0.267254,0.200831,-0.065566,-183.163108,188.473369,994.497037,-1283.557781,0
0.035415,-159.246255,14.210035,156.972160,5.846028,1.840060,4.467132,-5.602456,-1.363574,-4.212247,5.573692,-0.227071,0.200373,-0.028224,-118.017509,188.694987,993.340693,-1283.504237,0
0.036458,-98.019437,-35.853231,209.058334,6.886548,-0.602532,5.602147,-4.199461,1.066097,-5.353747,4.186131,-0.201500,0.211740,-0.050629,-35.646781,188.559238,993.242906,-1283.143650,0
0.037500,-52.728833,-107.939985,186.825379,6.468078,-2.991869,6.050597,-2.191984,3.444307,-5.895121,2.289799,-0.154011,0.201157,-0.043161,40.571308,188.551884,992.803511,-1282.254909,0
0.038541,-7.041241,-183.626849,136.105682,5.529348,-4.720855,5.558492,-0.113611,5.282182,-5.500632,0.308078,-0.110175,0.174113,-0.061832,115.138136,188.486754,993.981599,-1282.370155,0
0.039583,49.410384,-201.373697,81.237311,4.500138,-5.757536,3.673415,2.576707,6.296689,-3.645693,-2.278476,-0.044421,0.166274,-0.028224,169.912465,188.566339,994.152290,-1282.429821,0
0.040625,134.740015,-172.874844,32.745833,3.561408,-6.233273,1.907395,4.572990,6.774537,-1.874689,-4.267312,-0.022503,0.181756,-0.046895,219.687774,188.646694,994.839221,-1281.793810,0
0.041666,183.285917,-114.391188,-15.942614,2.645298,-5.004877,-0.346761,5.356578,5.679163,0.311788,-5.082059,0.014027,0.200373,-0.039427,211.906494,188.571373,994.655455,-1281.335798,0
0.042712,193.482825,-60.220414,-87.442614,1.322028,-3.623819,-2.747754,6.170016,4.164754,2.800427,-5.943058,0.014027,0.198675,-0.069301,187.035804,188.495978,994.635935,-1282.040219,0
0.043760,156.869234,-11.486048,-158.265531,-0.012552,-1.564657,-4.347093,5.550609,2.183525,4.344810,-5.380919,-0.037115,0.193253,-0.039427,119.933576,188.646848,994.166972,-1281.083691,0
0.044796,96.538474,37.477856,-209.650001,-1.030452,0.814029,-5.370988,4.102837,-0.253497,5.456933,-4.018263,-0.055380,0.206449,-0.017021,38.659918,188.571909,994.654611,-1281.497523,0
0.045832,52.745079,108.634381,-186.444508,-0.589362,3.238869,-5.783720,2.072972,-2.576571,5.952143,-2.114815,-0.077298,0.201027,-0.028224,-33.837181,188.571453,994.080401,-1281.394950,0
0.046873,6.989432,184.031303,-135.872538,0.360678,4.960754,-5.323365,-0.005401,-4.388716,5.536670,-0.118863,-0.099216,0.189725,-0.017021,-110.733869,188.496065,994.341497,-1281.855342,0
0.047915,-49.757098,201.367400,-80.277841,1.355958,5.979684,-3.497816,-2.647211,-5.373817,3.690126,2.499712,-0.201500,0.184761,-0.035692,-167.396968,188.646802,994.018025,-1281.525485,0
0.048956,-135.188812,172.928952,-31.478599,2.328618,6.469622,-1.700048,-4.647225,-5.829610,1.923318,4.527685,-0.172276,0.177510,-0.069301,-213.858447,188.571578,993.729975,-1281.331777,0
0.049998,-183.666659,114.058707,16.274242,3.256038,5.234126,0.581888,-5.483052,-4.763643,-0.254766,5.242812,-0.238030,0.200177,-0.020755,-210.126147,188.559202,993.187992,-1280.878071,0
0.051040,-193.942964,61.458451,87.675758,4.556688,3.860168,2.990818,-6.296491,-3.326424,-2.651077,6.100253,-0.230724,0.197630,-0.058098,-183.355378,188.546860,993.689430,-1280.745617,0
0.052083,-157.680990,12.941540,157.895455,5.913888,1.797456,4.522692,-5.591262,-1.378277,-4.283591,5.538113,-0.219765,0.213046,-0.031958,-116.807339,188.715766,993.955090,-1280.507199,0
0.053123,-96.862502,-36.807622,209.612311,6.897858,-0.648686,5.629927,-4.180804,1.135936,-5.412501,4.193247,-0.219765,0.204750,-0.031958,-35.228311,188.571411,994.259393,-1281.309743,0
0.054165,-51.844118,-108.797729,186.222160,6.456768,-3.038023,6.006942,-2.180790,3.492092,-5.907711,2.279126,-0.135746,0.168756,-0.024490,42.629728,188.571395,994.446415,-1281.456186,0
0.055207,-6.542171,-184.448350,135.797917,5.495418,-4.745707,5.494995,-0.102417,5.278507,-5.408304,0.201343,-0.135746,0.186067,-0.046895,115.782806,188.496100,992.903155,-1281.560825,0
0.056261,51.383979,-199.875665,79.193750,4.454898,-5.778838,3.613886,2.722230,6.322420,-3.528186,-2.395885,-0.044421,0.181690,-0.073035,172.875685,188.722228,991.611716,-1281.573980,0
0.057299,136.985830,-172.319123,30.394508,3.538788,-6.219072,1.839929,4.606572,6.785564,-1.782362,-4.366932,-0.033462,0.179469,-0.017021,220.490784,188.570314,991.917251,-1282.435831,0
0.058336,183.342630,-112.277030,-17.370644,2.622678,-4.919670,-0.426132,5.356578,5.561539,0.366345,-5.085617,0.010374,0.197760,-0.024490,212.879154,188.570980,990.798995,-1281.482859,0
0.059375,193.516853,-59.652612,-88.008902,1.310718,-3.616718,-2.767597,6.132703,4.153727,2.821410,-5.903922,-0.000585,0.198544,-0.020755,187.137594,188.495765,990.630601,-1281.158868,0
0.060417,156.891919,-12.041769,-158.265531,-0.046482,-1.554006,-4.299470,5.487176,2.187201,4.336416,-5.299088,0.003068,0.222976,-0.024490,119.515106,188.646533,989.732554,-1280.676761,0
0.061459,96.527131,37.997335,-209.748485,-1.064382,0.881484,-5.355113,4.028210,-0.282903,5.461130,-3.943548,-0.026156,0.209258,-0.043161,38.094418,188.571089,988.888976,-1280.767453,0
0.062512,50.635374,111.364665,-184.671781,-0.544122,3.327626,-5.783720,1.998345,-2.716250,5.897586,-2.022311,-0.091910,0.198283,-0.035692,-38.757031,188.571125,988.048174,-1280.750204,0
0.063542,5.628332,185.323960,-134.567614,0.371988,4.996257,-5.267804,-0.046446,-4.385040,5.482113,-0.029917,-0.121134,0.194755,-0.028224,-111.514259,188.493110,987.485265,-1280.433697,0
0.064583,-51.084170,200.497575,-79.342235,1.401198,5.983234,-3.374790,-2.762883,-5.366466,3.673339,2.528175,-0.154011,0.181233,-0.046895,-167.035048,188.721739,987.501881,-1279.932281,0
0.065624,-137.094352,172.554444,-31.158523,2.351238,6.391516,-1.636550,-4.680807,-5.859016,1.851974,4.531243,-0.219765,0.178620,-0.031958,-214.107267,188.571140,987.743912,-1280.347300,0
0.066667,-183.814111,112.850616,17.591477,3.244728,5.120517,0.653323,-5.479321,-4.719534,-0.309323,5.264159,-0.223418,0.197695,-0.028224,-206.167647,188.571140,987.408522,-1280.246769,0
0.067708,-193.806854,59.706720,89.103788,4.579308,3.828215,3.030504,-6.233057,-3.274964,-2.747601,6.061117,-0.259948,0.196062,-0.009553,-180.788008,188.495817,986.899789,-1280.291755,0
0.068750,-156.682850,11.648884,158.498675,5.925198,1.694498,4.510786,-5.542754,-1.249626,-4.287787,5.431378,-0.216112,0.190771,-0.031958,-114.262589,188.720003,985.029037,-1279.695481,0
0.069792,-95.648855,-38.112360,209.993940,6.920478,-0.698389,5.641832,-4.113639,1.157991,-5.383124,4.111417,-0.175929,0.209846,-0.009553,-33.678841,188.572065,984.432275,-1278.886247,0
0.070834,-51.810090,-110.476975,185.225001,6.456768,-3.087727,5.991068,-2.091237,3.547228,-5.827974,2.158159,-0.139399,0.195931,-0.035692,42.652348,188.571036,982.736814,-1278.787073,0
0.071875,-5.657456,-185.861816,134.382197,5.472798,-4.752807,5.423560,-0.027789,5.274831,-5.399911,0.215574,-0.121134,0.194625,-0.035692,117.694196,188.495703,983.520687,-1278.118227,0
0.072916,51.406664,-200.189768,79.082955,4.443588,-5.793039,3.558326,2.692379,6.304041,-3.498809,-2.410116,-0.029809,0.182736,-0.039427,171.077395,188.724268,983.111159,-1278.104505,0
0.073957,137.428188,-171.944615,30.148296,3.527478,-6.197770,1.839929,4.587915,6.763510,-1.799149,-4.398953,-0.026156,0.179796,-0.002084,220.287204,188.582015,983.233741,-1278.063271,0
0.074998,183.592165,-111.938764,-18.109280,2.622678,-4.894818,-0.438038,5.375234,5.576242,0.420902,-5.089175,0.017680,0.201353,-0.009553,211.544574,188.494862,983.286669,-1278.405455,0
0.076040,193.335373,-60.015039,-89.535417,1.276788,-3.549263,-2.771565,6.151359,4.139024,2.834000,-5.907480,0.014027,0.197434,-0.039427,186.391134,188.708337,983.544181,-1278.650505,0
0.077081,156.075259,-11.316915,-159.114963,-0.069102,-1.522054,-4.351062,5.461056,2.150443,4.395170,-5.291972,-0.000585,0.212328,0.001650,118.904366,188.721436,983.483035,-1279.098465,0
0.078123,95.075291,38.927565,-210.056251,-1.019142,0.924088,-5.367019,3.998359,-0.341715,5.507294,-3.936433,0.014027,0.211479,-0.039427,36.488398,188.645817,983.616166,-1279.484083,0
0.079165,50.397181,111.014319,-184.967235,-0.600672,3.292123,-5.751972,2.028196,-2.664789,5.964733,-1.997406,-0.066339,0.185479,-0.017021,-36.596821,188.570778,984.006198,-1279.577111,0
0.080207,4.936440,185.915924,-134.087500,0.349368,4.957204,-5.220181,-0.065103,-4.385040,5.469523,-0.005012,-0.128440,0.180841,-0.035692,-113.391719,188.570821,984.048047,-1279.440460,0
0.081248,-52.241105,199.953934,-78.997538,1.412508,5.969033,-3.347010,-2.755421,-5.355438,3.568421,2.588658,-0.157664,0.179404,-0.035692,-168.607138,188.721527,982.780030,-1279.486481,0
0.082290,-138.194574,172.240341,-29.878220,2.339928,6.363114,-1.600833,-4.699464,-5.847989,1.851974,4.556147,-0.212459,0.178555,-0.046895,-214.706697,188.646196,983.361200,-1279.305051,0
0.083333,-184.063646,111.050562,18.785606,3.301278,5.120517,0.740631,-5.520366,-4.653370,-0.414240,5.331758,-0.212459,0.195997,-0.024490,-209.210037,188.570687,982.505730,-1279.859411,0
0.084375,-193.693429,58.800652,90.494887,4.647168,3.771411,3.030504,-6.225595,-3.241882,-2.772781,6.096695,-0.227071,0.197303,-0.009553,-181.330888,188.571960,982.888734,-1280.155337,0
0.085418,-155.253695,11.226052,160.172917,5.936508,1.737101,4.574283,-5.531560,-1.253301,-4.266804,5.456283,-0.259948,0.218338,-0.028224,-114.070319,188.721630,983.713693,-1279.674553,0
0.086462,-95.387977,-39.549988,210.375569,6.909168,-0.772945,5.614052,-4.065131,1.224154,-5.387321,4.054491,-0.197847,0.229443,-0.043161,-32.446051,188.646913,983.201521,-1279.994318,0
0.087501,-50.505703,-111.926683,184.363258,5.778168,-3.126780,6.014879,-2.057654,3.635446,-5.815384,2.119022,-0.197847,0.196389,-0.035692,45.807837,188.571643,982.998946,-1280.227407,0
0.088543,-4.330383,-186.562508,133.421970,5.484108,-4.777659,5.435466,0.024450,5.333643,-5.395714,0.126628,-0.091910,0.192534,-0.080503,119.130566,188.645904,982.793718,-1280.902628,0
0.089583,53.005957,-199.344105,77.568750,4.454898,-5.778838,3.530546,2.722230,6.259932,-3.469432,-2.456368,-0.069992,0.195343,-0.054364,173.667385,188.722369,982.583269,-1279.995066,0
0.090624,138.596465,-171.847967,29.717424,3.572718,-6.169368,1.772463,4.572990,6.767186,-1.773968,-4.359817,-0.000585,0.182344,-0.043161,220.954494,188.571505,982.970754,-1279.596508,0
0.091665,183.853042,-111.177667,-19.069508,2.577438,-4.823813,-0.501535,5.401354,5.510079,0.500639,-5.114080,-0.018850,0.199198,-0.013287,214.134564,188.570709,982.116251,-1279.895862,0
0.092707,193.290003,-58.722382,-90.667993,1.197618,-3.517310,-2.795377,6.125240,4.076536,2.880164,-5.914596,0.021333,0.197564,-0.020755,185.282754,188.571683,981.874203,-1280.055871,0
0.093749,154.691474,-9.867206,-160.075190,-0.080412,-1.426196,-4.327250,5.427474,2.054874,4.390973,-5.224373,0.017680,0.216574,-0.020755,116.450096,188.723589,980.850993,-1279.345627,0
0.094790,94.213261,40.135655,-210.240910,-0.996522,1.016395,-5.394799,3.916269,-0.382149,5.461130,-3.861718,-0.026156,0.217554,-0.031958,36.069928,188.648342,980.030435,-1278.634764,0
0.095832,50.374496,112.331138,-184.154735,-0.521502,3.352478,-5.732129,1.953568,-2.708898,5.872406,-1.968943,-0.066339,0.193841,-0.009553,-39.288601,188.570984,979.207161,-1278.161217,0
0.096874,4.142464,186.918639,-133.065720,0.394608,5.006908,-5.156684,-0.132268,-4.392392,5.440146,0.059029,-0.121134,0.190248,-0.020755,-113.685779,188.646558,978.884169,-1278.140021,0
0.097915,-53.295958,199.410294,-77.667993,1.435128,5.972583,-3.287481,-2.811391,-5.359114,3.488684,2.638468,-0.161317,0.178882,-0.031958,-168.301768,188.722000,978.155595,-1277.935621,0
0.098957,-139.283454,171.587972,-28.560985,2.362548,6.345363,-1.525430,-4.695733,-5.807556,1.826794,4.517011,-0.238030,0.175093,-0.013287,-214.084647,188.646484,978.320802,-1276.794862,0
0.099998,-184.199756,110.434436,19.671970,3.335208,5.017559,0.772380,-5.468127,-4.568828,-0.439420,5.289064,-0.248989,0.196127,-0.031958,-206.009307,188.569398,977.482774,-1275.891671,0
0.101040,-193.477922,59.090594,91.824432,4.669788,3.725257,3.082096,-6.139773,-3.201449,-2.776978,6.021980,-0.223418,0.198022,-0.046895,-179.532598,188.643394,976.905171,-1275.304968,0
0.102082,-155.094900,10.573683,160.406819,5.993058,1.623493,4.582221,-5.486783,-1.176111,-4.279394,5.420704,-0.208806,0.205991,-0.005818,-112.034519,188.711333,976.025118,-1275.428980,0
0.103123,-94.469235,-40.081547,210.400190,6.909168,-0.833300,5.606115,-3.990504,1.257236,-5.374731,4.001123,-0.183235,0.210172,-0.043161,-31.224571,188.634805,975.364352,-1275.070492,0
0.104165,-49.326083,-112.542810,184.030872,6.445458,-3.137431,5.963288,-2.042729,3.672204,-5.769220,2.087002,-0.172276,0.176334,-0.061832,45.728667,188.627352,974.920711,-1274.676907,0
0.105207,-3.525066,-187.154473,132.818750,5.495418,-4.745707,5.352126,0.095346,5.329967,-5.303387,0.108839,-0.117481,0.186916,-0.002084,119.673446,188.702685,974.238244,-1274.020547,0
0.106248,53.845302,-198.933354,77.913447,4.398348,-5.739785,3.502766,2.748350,6.289338,-3.473629,-2.495505,-0.044421,0.185610,-0.031958,172.457215,188.783146,974.353125,-1274.617888,0
0.107290,139.866825,-171.050628,28.806439,3.470928,-6.133865,1.752620,4.636423,6.708374,-1.677445,-4.391837,-0.000585,0.178032,-0.046895,220.762224,188.645390,973.415355,-1274.501714,0
0.108334,184.023180,-109.486341,-20.497538,2.543508,-4.806061,-0.600750,5.386429,5.440240,0.542606,-5.110522,-0.004238,0.194821,-0.009553,210.752874,188.562387,972.925044,-1273.775223,0
0.109376,192.824960,-57.345159,-92.292993,1.231548,-3.425003,-2.835063,6.084195,4.061833,2.917934,-5.893248,0.021333,0.194755,-0.005818,183.869004,188.718277,973.164007,-1273.414074,0
