1-Time,2-VGERA,3-VGERB,4-VGERC,5-VN,6-IGERAN,7-IGERBN,8-IGERCN,9-IGERAT,10-IGERBT,11-IGERCT,12-IN,13-IFD,14-IFAULT,15-VFAULT,16-Speed (rad/s),17-Active Power,18-Reactive Power,19-FAULT 
0.000000,-144.020447,-62.508352,176.082738,3.838430,6.108056,-1.549182,-4.799150,-6.234017,1.326981,4.890176,0.062790,0.631902,-0.048173,18.965487,188.344891,1621.446973,889.479820,0
0.001042,-63.395480,-112.988405,197.737017,4.232505,5.062256,1.320687,-6.303073,-5.140220,-1.395003,6.306693,0.128422,0.631902,-0.025873,22.905901,188.344871,1621.971679,888.421321,0
0.002083,5.793963,-161.307377,165.984698,3.601985,3.348612,3.344312,-6.473182,-3.419769,-3.508746,6.420928,0.102898,0.635830,-0.040740,24.324450,188.420263,1623.094312,887.246651,0
0.003125,76.780094,-187.181634,118.435207,2.701241,0.915752,5.282087,-5.812075,-0.947333,-5.337781,5.651744,0.088314,0.632660,-0.003573,25.056241,188.495673,1622.805334,885.733618,0
0.004167,128.251254,-185.466863,34.783099,1.046123,-1.535456,6.181476,-4.114845,1.593466,-6.213474,3.945831,0.088314,0.620740,-0.014723,13.797916,188.344840,1623.473693,885.288428,0
0.005208,171.100571,-158.241929,-41.833191,-0.451364,-3.850893,6.488086,-2.108326,3.929178,-6.390338,1.866750,0.040913,0.622532,-0.003573,4.295890,188.269315,1622.588918,884.295679,0
0.006250,181.225304,-92.000072,-103.357105,-1.611071,-5.373725,5.355673,0.539971,5.588863,-5.251505,-0.775893,-0.050241,0.604136,-0.022156,-6.399518,188.420260,1622.385068,883.858177,0
0.007292,184.400583,-9.550101,-148.160318,-2.511815,-6.434202,3.785831,2.917639,6.576318,-3.750316,-3.079637,-0.108580,0.615573,-0.033307,-12.355172,188.495714,1622.172953,884.050909,0
0.008333,143.811251,63.468626,-175.416518,-3.052262,-6.177339,1.521005,4.715388,6.352242,-1.330296,-4.918825,-0.093995,0.613988,-0.003573,-18.558509,188.420209,1622.443624,883.988158,0
0.009375,62.542188,113.326194,-197.520409,-3.468856,-5.160895,-1.291630,6.196114,5.273637,1.361491,-6.361997,-0.134103,0.629697,-0.018440,-22.285014,188.269442,1621.890842,884.249232,0
0.010417,-6.590755,161.010935,-165.938214,-2.883372,-3.439913,-3.315255,6.412617,3.530398,3.466607,-6.521926,-0.108580,0.599450,-0.011006,-23.658530,188.420244,1621.722082,884.998248,0
0.011458,-77.090989,187.390228,-117.538106,-1.971369,-1.014391,-5.265294,5.739911,1.023780,5.351720,-5.760358,-0.134103,0.618260,-0.040740,-25.831386,188.495741,1621.662910,885.386873,0
0.012500,-128.132752,185.393576,-33.837391,-0.361289,1.440486,-6.164684,4.065879,-1.494231,6.210159,-4.012558,-0.097641,0.622256,0.000144,-13.255838,188.420341,1621.830866,886.117989,0
0.013542,-171.128968,157.828037,42.596624,1.136198,3.770602,-6.438588,2.016831,-3.856528,6.391337,-1.922053,-0.042949,0.616951,-0.018440,-4.327986,188.269510,1621.808228,886.543691,0
0.014583,-180.937303,91.550945,104.011173,2.318424,5.333797,-5.334793,-0.558009,-5.436457,5.235249,0.720589,-0.021072,0.618467,0.000144,7.166763,188.420269,1620.624897,886.928928,0
0.015625,-184.270781,8.830839,148.607808,3.174131,6.386936,-3.797655,-2.904748,-6.427710,3.682295,3.001486,0.022683,0.570788,0.007577,14.101891,188.495636,1619.237711,887.308161,0
0.016667,-143.511950,-63.976478,175.390092,3.782133,6.130073,-1.541006,-4.729559,-6.207432,1.378746,4.852098,0.077375,0.632453,0.007577,18.852904,188.420370,1617.857517,888.225499,0
0.017708,-61.677891,-113.458206,197.822078,4.164950,5.054917,1.263453,-6.303073,-5.159210,-1.373434,6.280038,0.157591,0.626252,0.000144,23.266167,188.269469,1616.969586,889.185066,0
0.018750,7.262953,-161.084222,165.948243,3.579466,3.410993,3.311607,-6.457718,-3.434961,-3.487177,6.447583,0.084667,0.628251,-0.018440,24.650941,188.420368,1616.636221,890.094394,0
0.019792,77.446790,-187.569219,117.864079,2.667463,0.959785,5.282087,-5.812075,-0.996705,-5.324839,5.693631,0.095606,0.625426,-0.003573,25.247632,188.495550,1616.428260,891.521996,0
0.020833,128.251254,-185.372903,34.382094,1.023605,-1.517109,6.169212,-4.168971,1.582073,-6.213474,3.983910,0.048206,0.623290,-0.022156,13.460166,188.420189,1616.292525,892.179290,0
0.021875,171.337869,-158.030519,-42.100528,-0.428845,-3.861902,6.455381,-2.139255,3.921582,-6.424848,1.904828,0.037267,0.621774,-0.014723,4.115757,188.269442,1616.391976,893.119910,0
0.022917,180.965406,-91.835642,-103.721655,-1.622331,-5.388403,5.355673,0.470381,5.573671,-5.307584,-0.783508,-0.032010,0.617916,0.011294,-5.487594,188.420157,1616.447023,893.758813,0
0.023960,184.332783,-9.303456,-148.464110,-2.511815,-6.401177,3.838976,2.848049,6.606702,-3.741689,-3.072021,-0.053887,0.608959,-0.003573,-11.848547,188.495631,1616.667978,894.034249,0
0.025000,143.551353,63.515606,-175.708158,-3.119818,-6.214034,1.570063,4.726986,6.352242,-1.407944,-4.960711,-0.115872,0.635278,-0.007290,-18.749900,188.420177,1616.874524,894.929046,0
0.026042,62.553488,113.443644,-197.459650,-3.491375,-5.215937,-1.275277,6.215445,5.311616,1.374432,-6.342957,-0.163272,0.635830,0.003860,-21.800906,188.269404,1616.905436,895.222035,0
0.027083,-6.240457,161.480735,-165.512905,-2.883372,-3.465599,-3.352048,6.428082,3.541792,3.492489,-6.499079,-0.130457,0.637897,-0.037023,-23.849921,188.420298,1616.952601,895.117778,0
0.028125,-77.124889,186.861702,-118.133537,-1.960110,-1.043747,-5.302088,5.743777,1.050366,5.317210,-5.756550,-0.123164,0.629904,-0.025873,-26.180395,188.420256,1616.429575,895.189683,0
0.029167,-128.550849,185.099951,-34.542188,-0.350030,1.429478,-6.140155,4.096808,-1.524614,6.210159,-4.027790,-0.068472,0.624185,-0.025873,-13.008155,188.420229,1616.828854,895.036108,0
0.030208,-171.174167,158.215623,42.171316,1.158716,3.774271,-6.442677,2.016831,-3.822347,6.404278,-1.948708,-0.017425,0.625839,-0.037023,-3.832620,188.269492,1616.732967,895.420495,0
0.031250,-181.479699,91.962021,103.962566,2.307165,5.326458,-5.330705,-0.565741,-5.470638,5.265445,0.732013,0.008098,0.620603,-0.029590,6.480005,188.420070,1617.704489,895.630148,0
0.032292,-184.361180,10.028830,148.862993,3.241687,6.346572,-3.805831,-2.935677,-6.480881,3.712491,2.990063,0.066437,0.618329,-0.003573,13.752883,188.420316,1618.563653,896.009251,0
0.033333,-143.511950,-62.837212,176.313619,3.759615,6.078700,-1.565535,-4.768221,-6.199836,1.396001,4.893984,0.062790,0.634314,-0.007290,19.089329,188.495593,1619.314696,895.820483,0
0.034375,-62.932183,-113.305521,197.433225,4.221246,5.058587,1.296158,-6.299207,-5.181997,-1.399316,6.264807,0.128422,0.632316,-0.018440,22.872126,188.269568,1619.683101,895.392411,0
0.035417,5.940862,-161.730197,165.595845,3.601985,3.322926,3.315695,-6.488647,-3.396982,-3.474236,6.462815,0.110191,0.640446,-0.014723,24.324450,188.420509,1619.985667,894.886270,0
0.036458,77.152992,-186.888009,118.459510,2.667463,0.948777,5.273911,-5.823673,-0.970120,-5.307584,5.636513,0.124775,0.632798,-0.022156,24.966174,188.420173,1619.513991,893.670655,0
0.037500,128.669351,-185.079277,35.232711,1.079901,-1.524448,6.177388,-4.145774,1.578275,-6.200533,3.953447,0.073729,0.629353,-0.040740,13.820433,188.495808,1619.396513,893.176441,0
0.038542,171.360469,-158.159714,-41.578006,-0.428845,-3.861902,6.434940,-2.127656,3.910189,-6.398966,1.866750,0.019036,0.630386,0.011294,4.464765,188.269499,1619.227878,892.378294,0
0.039583,181.270504,-92.446383,-103.527228,-1.622331,-5.384733,5.335233,0.454916,5.524299,-5.242878,-0.772085,-0.028364,0.622394,-0.018440,-6.275677,188.420282,1618.509520,891.664224,0
0.040625,184.231084,-10.442722,-148.634233,-2.534334,-6.415855,3.814448,2.844183,6.530744,-3.728748,-3.003480,-0.101287,0.624530,-0.037023,-12.377689,188.420282,1617.245191,891.311654,0
0.041667,143.935550,62.763926,-175.805371,-3.063521,-6.173670,1.553710,4.676727,6.310465,-1.360492,-4.892170,-0.119518,0.633900,-0.029590,-18.671092,188.495741,1616.503058,890.291653,0
0.042708,63.570481,113.420154,-197.155858,-3.502634,-5.175573,-1.254837,6.215445,5.281233,1.365805,-6.259185,-0.155980,0.642375,-0.029590,-22.262498,188.269490,1615.529495,889.579546,0
0.043750,-5.415563,161.339795,-165.525057,-2.883372,-3.502294,-3.331608,6.401019,3.511409,3.453665,-6.445769,-0.134103,0.637276,-0.018440,-23.624755,188.495604,1614.733561,888.764850,0
0.044792,-76.853691,186.955662,-117.926959,-1.948850,-1.054755,-5.228501,5.728313,1.054164,5.291328,-5.699432,-0.137749,0.631144,-0.007290,-25.808870,188.420188,1613.990885,888.230553,0
0.045833,-128.596049,184.829816,-34.602946,-0.350030,1.389114,-6.119714,4.058146,-1.425869,6.149766,-4.016366,-0.101287,0.620672,-0.014723,-13.222063,188.495805,1612.357386,888.690133,0
0.046875,-171.547065,157.839782,42.122709,1.147457,3.726568,-6.418148,2.051627,-3.772974,6.387023,-1.937284,-0.075764,0.624806,0.011294,-4.350503,188.269581,1611.628257,888.778948,0
0.047917,-181.039002,92.220411,104.242055,2.340943,5.293433,-5.347057,-0.496151,-5.432659,5.248190,0.701550,0.037267,0.614608,-0.003573,7.178021,188.495617,1610.832208,888.865997,0
0.048958,-184.112582,9.793930,149.008813,3.196650,6.324555,-3.773126,-2.877685,-6.435306,3.695236,2.902483,0.059144,0.617640,-0.003573,14.146924,188.420175,1609.332481,889.170588,0
0.050000,-143.839648,-63.412718,175.560216,3.804652,6.093378,-1.557358,-4.702496,-6.165655,1.370119,4.779749,0.091960,0.613850,0.018727,18.875421,188.495597,1607.650402,888.890795,0
0.051042,-62.355886,-113.646126,197.639803,4.198728,5.054917,1.247100,-6.256679,-5.132625,-1.373434,6.142956,0.128422,0.616331,0.011294,23.254909,188.269454,1605.713709,888.635627,0
0.052083,6.664057,-161.330867,165.583693,3.534429,3.418332,3.254373,-6.434521,-3.423567,-3.418157,6.348579,0.099252,0.611921,0.007577,24.628425,188.495698,1603.723895,888.651675,0
0.053125,77.469390,-187.299084,117.584590,2.678722,0.985472,5.228941,-5.769547,-0.989110,-5.277388,5.666976,0.095606,0.629284,-0.025873,25.202599,188.420178,1603.296126,889.577390,0
0.054167,128.646751,-184.961827,33.896027,1.046123,-1.458397,6.128330,-4.149640,1.563083,-6.131513,3.930600,0.048206,0.618260,0.018727,13.347583,188.495664,1601.934205,889.595969,0
0.055208,171.428269,-157.713404,-42.695960,-0.451364,-3.788512,6.443117,-2.150853,3.860816,-6.360142,1.958138,0.051852,0.619156,-0.018440,3.946882,188.269406,1600.557858,891.084354,0
0.056254,181.134904,-90.531946,-104.572272,-1.599812,-5.322352,5.367938,0.454916,5.562278,-5.255819,-0.787316,-0.017425,0.603447,-0.018440,-5.611435,188.495591,1600.531814,891.873813,0
0.057302,183.677388,-7.212844,-149.266120,-2.511815,-6.397508,3.802183,2.886710,6.538339,-3.698551,-3.018711,-0.050241,0.651401,-0.014723,-12.366430,188.420283,1599.899268,892.698457,0
0.058343,141.777265,65.030713,-176.850415,-2.995965,-6.081933,1.488300,4.688325,6.306667,-1.321669,-4.945479,-0.112226,0.577885,-0.037023,-18.930033,188.495631,1599.913229,893.439647,0
0.059386,60.225703,114.688615,-197.362437,-3.390041,-5.080167,-1.295718,6.215445,5.235658,1.383060,-6.308687,-0.134103,0.622807,-0.014723,-21.755873,188.269554,1599.501583,894.201854,0
0.060428,-8.579542,162.678726,-164.480013,-2.827076,-3.392209,-3.401106,6.373956,3.484823,3.496803,-6.472424,-0.115872,0.615986,0.011294,-24.120121,188.420329,1599.432852,895.397762,0
0.061469,-79.294475,186.344922,-116.444455,-1.892554,-0.952010,-5.306176,5.724447,1.016185,5.325838,-5.691816,-0.112226,0.630731,0.007577,-26.191653,188.420244,1599.084653,895.990768,0
0.062509,-129.477443,184.806325,-31.686545,-0.282474,1.524884,-6.148331,4.038816,-1.585381,6.184276,-3.989711,-0.057533,0.615917,-0.025873,-12.850538,188.495615,1600.088848,895.733418,0
0.063552,-170.518772,157.734077,45.488722,1.192494,3.803627,-6.426324,1.962706,-3.890709,6.348199,-1.891590,-0.046595,0.616400,-0.018440,-3.337254,188.269552,1600.440416,895.347646,0
0.064593,-181.796097,88.943553,105.165582,2.318424,5.322789,-5.289823,-0.639197,-5.527607,5.174856,0.789130,-0.002841,0.615573,0.003860,6.637622,188.420329,1600.927249,894.955183,0
0.065637,-183.468486,7.045598,149.713610,3.207909,6.353910,-3.748597,-3.001401,-6.469487,3.660726,2.986255,0.048206,0.607925,-0.025873,14.259508,188.420292,1601.346094,895.251389,0
0.066677,-141.161566,-64.728159,177.626000,3.770874,6.053014,-1.434714,-4.799150,-6.177049,1.279530,4.882560,0.088314,0.637001,0.003860,19.280720,188.495797,1602.445416,895.355233,0
0.067720,-59.836003,-114.714922,197.323860,4.176209,5.014553,1.324775,-6.272144,-5.151614,-1.395003,6.230536,0.110191,0.615917,-0.011006,22.815834,188.344815,1602.859248,896.543494,0
0.068760,8.935342,-163.104363,164.417133,3.523169,3.319256,3.381106,-6.457718,-3.385588,-3.551883,6.455199,0.121129,0.616262,-0.033307,24.628425,188.420202,1604.795957,897.477910,0
0.069801,79.107879,-186.335993,117.062068,2.656203,0.912082,5.318880,-5.777280,-0.951131,-5.372291,5.651744,0.088314,0.626046,0.003860,24.876108,188.420238,1605.391874,897.360257,0
0.070838,129.177848,-184.997062,33.337050,1.068642,-1.524448,6.136507,-4.107113,1.601062,-6.217788,3.942023,0.073729,0.621912,0.041027,13.674075,188.495631,1606.647387,897.876581,0
0.071887,170.637274,-157.654679,-45.089839,-0.485141,-3.869241,6.434940,-2.081263,3.932976,-6.386025,1.832479,0.019036,0.623359,-0.025873,3.969399,188.344856,1607.461316,896.953220,0
0.072922,181.643401,-89.991676,-104.547969,-1.633590,-5.414089,5.310704,0.509042,5.592661,-5.260133,-0.813971,-0.013779,0.611026,-0.007290,-6.298193,188.420301,1608.013399,896.954274,0
0.073958,183.767787,-8.857146,-148.767902,-2.523075,-6.379160,3.855329,2.855781,6.557329,-3.720120,-3.011096,-0.068472,0.614195,-0.014723,-12.535305,188.420211,1608.472999,896.632505,0
0.075000,142.873357,63.856212,-176.182073,-3.007225,-6.162661,1.557798,4.657396,6.310465,-1.360492,-4.892170,-0.104934,0.630042,0.000144,-18.738642,188.495841,1608.058357,896.500345,0
0.076041,62.090191,113.866465,-197.204465,-3.446337,-5.157226,-1.258925,6.192248,5.277435,1.374432,-6.274416,-0.148688,0.632660,-0.003573,-22.194948,188.344896,1608.256377,896.169472,0
0.077083,-6.805454,161.668656,-165.160507,-2.872113,-3.443582,-3.335696,6.428082,3.534196,3.419155,-6.449577,-0.126811,0.629697,0.000144,-23.624755,188.495682,1607.621799,896.048141,0
0.078125,-77.825484,186.932172,-117.598864,-1.926332,-1.054755,-5.289823,5.755376,1.038972,5.321524,-5.703240,-0.141395,0.630249,-0.022156,-25.820128,188.420267,1608.234279,895.729131,0
0.079166,-128.935047,184.841561,-34.007514,-0.327511,1.429478,-6.119714,4.046548,-1.482837,6.175649,-4.039213,-0.093995,0.624185,-0.014723,-13.188288,188.495707,1607.942418,896.183775,0
0.080208,-171.411466,157.886762,42.766747,1.158716,3.770602,-6.454941,2.082556,-3.818549,6.382709,-2.009633,-0.046595,0.627768,-0.025873,-4.339245,188.344957,1607.801834,897.383815,0
0.081250,-181.118102,91.668395,104.594453,2.318424,5.322789,-5.363410,-0.542544,-5.455447,5.217994,0.739628,0.011744,0.619845,-0.029590,7.121730,188.495736,1607.520889,897.349350,0
0.082291,-183.920483,9.641245,149.482728,3.207909,6.313546,-3.809919,-2.912480,-6.431508,3.738374,2.971024,0.033621,0.630455,-0.018440,14.259508,188.420256,1607.766897,897.280779,0
0.083333,-143.229452,-63.494933,176.252861,3.737096,6.093378,-1.532830,-4.733425,-6.196038,1.357177,4.848290,0.084667,0.633005,0.003860,19.021779,188.495607,1607.739683,897.380357,0
0.084375,-62.321987,-114.021966,197.506135,4.119912,5.076934,1.267541,-6.283742,-5.140220,-1.351865,6.215305,0.135714,0.636932,-0.014723,23.254909,188.344721,1608.017439,896.771275,0
0.085416,6.630158,-161.929862,165.292053,3.523169,3.377968,3.319784,-6.461584,-3.465344,-3.444039,6.401889,0.143006,0.645544,-0.022156,24.617166,188.495655,1606.917413,896.742099,0
0.086458,77.819687,-187.111164,117.936989,2.611166,0.989141,5.257558,-5.831405,-0.981514,-5.337781,5.628897,0.099252,0.634727,-0.014723,25.191341,188.420278,1606.859604,896.377679,0
0.087500,129.087448,-184.785652,34.552217,1.046123,-1.506100,6.144683,-4.141908,1.566881,-6.174650,3.961063,0.066437,0.631282,-0.022156,13.415133,188.495600,1606.346102,896.302407,0
0.088541,171.654267,-158.077499,-42.525836,-0.428845,-3.810529,6.451293,-2.162451,3.936774,-6.394652,1.912444,0.026329,0.630800,-0.022156,4.036949,188.344844,1607.005303,896.610091,0
0.089583,181.247904,-91.741682,-104.329238,-1.599812,-5.340699,5.396555,0.493578,5.562278,-5.234250,-0.787316,-0.002841,0.619294,-0.029590,-5.442561,188.495501,1606.769347,896.048741,0
0.090625,183.982486,-9.632317,-149.144604,-2.500556,-6.382830,3.777654,2.817120,6.557329,-3.750316,-3.056790,-0.072118,0.623221,0.000144,-12.062455,188.420289,1607.586043,895.984158,0
0.091666,142.963757,63.456881,-176.498017,-3.029743,-6.162661,1.537358,4.711522,6.302869,-1.356179,-4.922632,-0.112226,0.630180,-0.025873,-18.930033,188.495662,1608.061182,895.707772,0
0.092708,62.666487,113.972170,-197.253072,-3.423819,-5.153556,-1.250748,6.203846,5.205275,1.387374,-6.308687,-0.123164,0.636725,-0.018440,-21.800906,188.344862,1608.459600,894.779736,0
0.093750,-6.432556,162.338121,-164.905322,-2.815817,-3.458260,-3.323432,6.370090,3.481025,3.453665,-6.491463,-0.155980,0.642926,-0.014723,-23.951246,188.495627,1609.373680,894.332987,0
0.094791,-78.028883,186.532842,-117.513802,-1.926332,-1.080441,-5.281647,5.732179,1.046568,5.317210,-5.722279,-0.126811,0.630869,-0.025873,-26.202911,188.420262,1609.242954,894.615504,0
0.095833,-129.420943,184.818071,-33.448537,-0.350030,1.455164,-6.136067,4.054280,-1.482837,6.188590,-3.974480,-0.093995,0.624323,-0.025873,-12.884313,188.495593,1609.118786,894.267165,0
0.096875,-171.015968,157.992467,43.726730,1.147457,3.788949,-6.442677,2.012965,-3.818549,6.365454,-1.941092,-0.050241,0.621843,-0.037023,-3.483612,188.344813,1608.940063,893.561305,0
0.097916,-181.660498,90.752285,104.655211,2.329684,5.363153,-5.338881,-0.577339,-5.485830,5.213680,0.796746,-0.006487,0.617984,-0.033307,6.592588,188.495763,1609.527502,893.282942,0
0.098958,-183.920483,8.701644,149.312605,3.230428,6.390605,-3.785391,-2.927944,-6.446700,3.686608,2.974832,0.055498,0.603929,0.003860,14.011824,188.420343,1609.425565,892.963861,0
0.100000,-142.280258,-63.870773,176.933355,3.737096,6.086039,-1.508301,-4.745024,-6.207432,1.253647,4.897792,0.062790,0.626115,0.003860,19.134362,188.495754,1610.265399,892.163148,0
0.101041,-61.316293,-114.045456,197.445376,4.198728,4.988867,1.308422,-6.295341,-5.117433,-1.390689,6.211497,0.113837,0.617709,-0.003573,22.827093,188.420292,1610.061699,891.791387,0
0.102083,7.771450,-162.364428,165.109778,3.523169,3.293570,3.368841,-6.446119,-3.400780,-3.487177,6.401889,0.091960,0.633625,-0.018440,24.504583,188.495738,1610.304505,891.335679,0
0.103125,78.565482,-186.617874,117.220040,2.611166,0.937769,5.273911,-5.777280,-0.909354,-5.324839,5.621282,0.081021,0.620396,-0.003573,24.954916,188.420283,1609.969332,890.818737,0
0.104166,129.482946,-185.079277,32.826680,1.001086,-1.517109,6.132419,-4.068452,1.635243,-6.166023,3.896329,0.044560,0.618949,-0.022156,13.606525,188.495635,1609.998903,890.185994,0
0.105208,170.818073,-157.772129,-44.117705,-0.440104,-3.795851,6.451293,-2.131522,3.921582,-6.364456,1.889597,-0.010133,0.621085,-0.048173,3.991915,188.420365,1609.100695,890.119607,0
0.106250,181.530402,-89.979931,-104.438603,-1.588553,-5.373725,5.331145,0.489711,5.577469,-5.242878,-0.821587,-0.050241,0.622394,-0.018440,-6.433293,188.495714,1609.066102,890.359069,0
0.107291,183.654788,-7.764860,-148.852964,-2.478038,-6.379160,3.765390,2.848049,6.523148,-3.737375,-3.045366,-0.064826,0.610819,0.015011,-12.670405,188.420159,1607.962616,890.621376,0
0.108333,142.104962,64.737087,-176.412955,-3.074780,-6.092941,1.541446,4.688325,6.261092,-1.364806,-4.888362,-0.115872,0.599106,-0.044457,-18.806192,188.495750,1606.719732,891.017672,0
0.109375,60.802000,114.289285,-197.216617,-3.457597,-5.116862,-1.242572,6.188382,5.262243,1.352863,-6.240146,-0.130457,0.606065,-0.025873,-22.194948,188.495817,1605.301092,892.380223,0
0.110416,-8.353543,161.962281,-164.905322,-2.827076,-3.388540,-3.302991,6.366224,3.507611,3.436410,-6.449577,-0.101287,0.608821,-0.022156,-23.692305,188.495721,1604.207166,893.059993,0
0.111458,-78.752078,186.779487,-116.541668,-1.926332,-1.051086,-5.240766,5.732179,1.031376,5.282700,-5.699432,-0.108580,0.631558,0.011294,-25.853903,188.420338,1603.407656,893.241200,0
