1-Time,2-VGERA,3-VGERB,4-VGERC,5-VN,6-IGERAN,7-IGERBN,8-IGERCN,9-IGERAT,10-IGERBT,11-IGERCT,12-IN,13-IFD,14-IFAULT,15-VFAULT,16-Speed (rad/s),17-Active Power,18-Reactive Power,19-FAULT 
0.000000,122.454392,75.495517,-189.196514,-3.356263,-6.001205,0.752436,5.295307,6.166145,-0.614212,-5.425267,-0.104934,0.617089,0.003860,13.606525,188.495664,1621.372097,890.519887,0
0.001042,42.869018,127.854772,-188.734750,-3.299967,-4.669186,-1.733148,6.157453,4.791303,1.801495,-6.259185,-0.108580,0.631696,-0.029590,16.488656,188.269554,1618.865829,892.427265,0
0.002083,-31.778289,172.051245,-159.923136,-2.804557,-2.878483,-3.957092,6.451279,2.991096,4.070533,-6.476232,-0.148688,0.625632,0.000144,18.942971,188.495680,1616.495230,894.213666,0
0.003125,-97.317855,180.120066,-100.416400,-1.622331,-0.441953,-5.453349,5.326236,0.438903,5.524271,-5.265338,-0.090349,0.631558,-0.029590,18.154888,188.420301,1613.684788,896.045542,0
0.004167,-143.986547,184.301290,-12.802847,0.100342,2.049619,-6.348650,3.683132,-2.101896,6.417219,-3.650813,-0.075764,0.623359,0.000144,12.627050,188.495718,1611.638247,897.951203,0
0.005208,-170.055475,144.380001,62.452456,1.519014,4.009117,-6.111538,1.506503,-4.073009,6.007412,-1.373724,-0.006487,0.621223,-0.037023,7.054180,188.269574,1608.265148,900.518988,0
0.006250,-195.209109,63.973662,113.574538,2.509832,5.704414,-4.958685,-1.261644,-5.820046,4.868579,1.337460,0.059144,0.619983,0.015011,-2.076322,188.495700,1604.347954,902.273845,0
0.007292,-169.140181,-7.154119,161.014665,3.444354,6.284190,-3.405194,-3.179243,-6.359348,3.263860,3.313730,0.051852,0.614677,-0.011006,-6.399518,188.420330,1600.869630,903.737721,0
0.008333,-123.002586,-74.793633,189.182240,4.029838,5.906235,-0.850111,-5.228290,-6.055516,0.692858,5.278576,0.095606,0.624117,-0.011006,-12.602855,188.495808,1597.206735,904.719477,0
0.009375,-43.598010,-127.528728,189.036420,3.996060,4.654945,1.615032,-6.113633,-4.711057,-1.765986,6.120109,0.121129,0.633418,-0.044457,-15.743928,188.269536,1594.488233,905.287499,0
0.010417,30.518200,-172.535606,159.592919,3.455614,2.900937,3.879858,-6.484781,-2.952627,-3.987573,6.398081,0.117483,0.637828,-0.029590,-18.918775,188.495662,1591.333574,906.975184,0
0.011458,97.040860,-179.934963,102.079057,2.385980,0.446059,5.372026,-5.386801,-0.423222,-5.449938,5.240497,0.073729,0.636725,-0.040740,-17.263801,188.420341,1588.622856,908.885220,0
0.012500,143.924250,-184.210147,13.991589,0.652048,-2.041843,6.324561,-3.813287,2.087194,-6.355828,3.633588,0.070083,0.626115,-0.003573,-12.197555,188.495749,1585.988189,910.633107,0
0.013542,169.880179,-145.322418,-61.713326,-0.811661,-4.034367,6.140595,-1.652123,4.088690,-6.027982,1.425040,-0.006487,0.625839,0.003860,-8.786283,188.269617,1583.468101,912.853613,0
0.014583,194.468816,-65.503330,-113.272869,-1.813739,-5.703977,5.004094,1.081229,5.869908,-4.915032,-1.305183,-0.024718,0.619569,-0.025873,3.192574,188.495698,1580.860033,914.344720,0
0.015625,169.959278,6.188212,-160.409203,-2.759520,-6.338796,3.475133,3.087749,6.458583,-3.318940,-3.296684,-0.068472,0.625426,0.003860,7.065438,188.420401,1578.644654,915.908241,0
0.016667,123.968582,74.414976,-188.698295,-3.333744,-6.030560,0.928226,5.059473,6.154751,-0.786762,-5.265338,-0.126811,0.628664,-0.029590,13.933016,188.495676,1576.327810,917.185151,0
0.017708,44.959504,126.973896,-189.062845,-3.299967,-4.782940,-1.541006,6.072398,4.817888,1.646199,-6.152565,-0.104934,0.631558,-0.018440,16.331039,188.344880,1574.542639,917.581089,0
0.018750,-29.100206,172.333125,-159.376311,-2.737001,-3.003245,-3.793567,6.366224,3.089841,3.932493,-6.449577,-0.134103,0.639481,0.000144,18.976746,188.495696,1572.977349,918.333026,0
0.019792,-96.425161,179.896911,-102.384971,-1.667368,-0.603410,-5.318440,5.341700,0.598415,5.373289,-5.291993,-0.141395,0.634658,0.003860,18.560188,188.420247,1571.030615,919.432138,0
0.020833,-143.534550,183.761020,-14.504081,0.055305,1.862476,-6.258711,3.787517,-1.934788,6.274865,-3.730778,-0.050241,0.626046,0.011294,13.077383,188.495741,1568.154683,920.211612,0
0.021875,-169.863376,145.953832,61.613990,1.496495,3.825644,-6.095185,1.614754,-3.917295,6.046236,-1.571732,-0.017425,0.626321,-0.003573,8.619087,188.344856,1566.686102,922.782836,0
0.022917,-193.706218,66.628034,113.659600,2.532351,5.528279,-5.024095,-1.103133,-5.713704,4.928972,1.181338,0.033621,0.619569,-0.011006,-1.952480,188.495627,1564.849929,923.889634,0
0.023958,-170.394473,-5.568543,160.297716,3.444354,6.192454,-3.503309,-3.020731,-6.290986,3.384645,3.146184,0.048206,0.630455,0.018727,-6.602168,188.420305,1563.049189,925.172660,0
0.025000,-124.618475,-73.818797,188.501746,4.052357,5.909904,-1.005461,-5.042716,-6.036526,0.843840,5.130070,0.099252,0.633074,0.018727,-12.355172,188.495678,1560.899721,926.131567,0
0.026042,-45.485098,-126.706577,189.157936,4.052357,4.680631,1.496477,-6.051775,-4.809803,-1.606377,6.078223,0.099252,0.637001,-0.014723,-15.631344,188.344798,1559.938996,927.672145,0
0.027083,27.874017,-172.288961,159.082549,3.511910,2.959648,3.708156,-6.419057,-3.024787,-3.827964,6.352387,0.102898,0.641824,-0.014723,-18.716125,188.495674,1557.892431,927.928151,0
0.028125,96.193366,-179.512142,103.841049,2.419758,0.548804,5.253470,-5.421596,-0.563744,-5.290329,5.263345,0.091960,0.634245,-0.011006,-17.792943,188.420202,1555.808402,928.836427,0
0.029167,143.291455,-183.810816,15.680671,0.685826,-1.873048,6.230534,-3.890610,1.889703,-6.273867,3.683090,0.008098,0.630800,0.000144,-13.188288,188.495664,1553.309231,929.702260,0
0.030208,169.541181,-147.048935,-61.008529,-0.755365,-3.861902,6.165124,-1.787437,3.917784,-6.023669,1.489773,0.026329,0.630042,0.011294,-9.022708,188.420336,1551.753495,930.420791,0
0.031250,192.819027,-68.087232,-113.418689,-1.779961,-5.568207,5.073592,0.911119,5.729385,-4.953856,-1.137638,-0.021072,0.621498,0.011294,3.046216,188.495671,1549.279317,931.383329,0
0.032292,171.157070,4.849281,-159.449221,-2.737001,-6.221373,3.573248,2.929237,6.344646,-3.422470,-3.136755,-0.064826,0.630111,0.022444,7.290605,188.420236,1546.977870,932.173827,0
0.033333,125.460172,73.522355,-187.969195,-3.277448,-5.968179,1.067223,4.943489,6.139559,-0.929116,-5.109217,-0.093995,0.632798,-0.014723,13.685333,188.495667,1544.749417,933.138946,0
0.034375,46.733593,126.222215,-189.366637,-3.401300,-4.819634,-1.369304,5.968013,4.886250,1.508159,-6.042138,-0.115872,0.637483,-0.033307,16.240973,188.420249,1543.129622,934.022504,0
0.035417,-26.569023,172.145205,-158.598604,-2.759520,-3.091313,-3.589160,6.373956,3.184789,3.734060,-6.373420,-0.104934,0.640790,0.000144,18.852904,188.495736,1540.245457,934.593471,0
0.036458,-95.724566,179.521071,-104.462907,-1.656109,-0.786884,-5.208061,5.411291,0.719948,5.213680,-5.356726,-0.123164,0.633556,0.011294,18.233696,188.420253,1538.650287,935.767209,0
0.037500,-143.037353,183.115044,-16.010889,0.021527,1.679002,-6.172860,3.837777,-1.699318,6.175649,-3.768856,-0.075764,0.628664,0.000144,13.257517,188.495696,1535.486097,936.812212,0
0.038542,-169.445279,147.926994,61.225137,1.519014,3.697212,-6.123802,1.804195,-3.776772,6.003098,-1.659312,-0.032010,0.623083,-0.059323,7.481996,188.420316,1533.928043,937.470851,0
0.039583,-191.751331,69.047506,113.841875,2.509832,5.388839,-5.060888,-0.917559,-5.588373,4.976423,1.006177,0.011744,0.620603,-0.014723,-1.592214,188.492092,1531.475644,938.632058,0
0.040625,-171.976462,-4.546727,159.240521,3.410576,6.141081,-3.621865,-2.885417,-6.260603,3.466607,2.974832,0.040913,0.632522,-0.007290,-6.275677,188.420262,1529.993428,939.825708,0
0.041667,-125.940566,-73.395976,187.687584,3.984801,5.862201,-1.156721,-4.895803,-5.998547,0.964625,5.000603,0.102898,0.634383,0.000144,-12.805505,188.495729,1527.905153,940.499640,0
0.042708,-46.716790,-125.966641,190.008553,4.029838,4.754020,1.320687,-6.009247,-4.836388,-1.416571,5.914485,0.091960,0.630318,-0.025873,-15.530019,188.420300,1525.154940,941.387470,0
0.043750,26.088629,-172.101041,158.474965,3.478132,3.069732,3.516014,-6.361065,-3.172905,-3.707179,6.321925,0.091960,0.643960,-0.022156,-18.862484,188.495703,1523.421024,942.822870,0
0.044792,95.413671,-179.852748,105.274947,2.397239,0.746956,5.183972,-5.467989,-0.749842,-5.208368,5.309039,0.066437,0.634658,-0.018440,-17.398901,188.420330,1522.296691,944.717025,0
0.045833,142.737758,-183.211821,16.421923,0.697085,-1.766633,6.140595,-3.956334,1.771968,-6.196219,3.728784,0.099252,0.627148,-0.007290,-12.433980,188.495673,1520.313187,945.314034,0
0.046875,169.462082,-148.434846,-60.716889,-0.789143,-3.766496,6.173300,-1.949814,3.803847,-6.071120,1.653510,0.019036,0.625081,0.003860,-9.112774,188.420287,1519.442081,947.730377,0
0.047917,191.135338,-69.625828,-113.564509,-1.858776,-5.513165,5.106297,0.826064,5.664821,-5.009935,-1.053865,-0.010133,0.617916,-0.044457,2.697208,188.420175,1518.243689,948.437770,0
0.048958,172.490462,4.402971,-158.622908,-2.737001,-6.210365,3.638658,2.855781,6.325657,-3.474236,-3.049174,-0.053887,0.628940,-0.033307,6.952855,188.420341,1517.590787,949.105094,0
0.050000,126.273767,73.616315,-187.288701,-3.311226,-6.001205,1.157162,4.858434,6.116772,-0.993823,-5.033060,-0.115872,0.631833,0.011294,14.090633,188.495631,1516.320253,949.514182,0
0.051042,47.027391,125.646710,-190.168647,-3.322485,-4.859999,-1.307982,5.940950,4.924229,1.421884,-6.007867,-0.130457,0.638034,-0.007290,16.218456,188.495721,1515.680104,950.358788,0
0.052083,-25.823228,171.933794,-158.501391,-2.737001,-3.175710,-3.531926,6.350759,3.245555,3.686608,-6.354381,-0.152334,0.645820,-0.033307,18.740321,188.420287,1514.964313,950.836598,0
0.053125,-95.306469,179.908656,-104.791002,-1.712405,-0.845595,-5.179444,5.446086,0.773119,5.205053,-5.341495,-0.123164,0.630524,0.000144,18.762837,188.420338,1514.727321,951.081178,0
0.054167,-142.404557,183.103299,-16.083799,0.032786,1.653316,-6.148331,3.826179,-1.729701,6.171335,-3.818358,-0.108580,0.621154,-0.018440,13.550233,188.495727,1514.982866,951.165436,0
0.055208,-169.219280,148.373304,61.140075,1.507755,3.660517,-6.144243,1.831257,-3.757783,6.033295,-1.716430,-0.046595,0.618053,-0.033307,8.765445,188.495687,1514.968073,952.001183,0
0.056250,-191.163735,69.435091,113.623145,2.521092,5.425534,-5.024095,-0.890496,-5.569384,4.976423,1.006177,0.019036,0.610612,-0.040740,-1.693538,188.344905,1514.654351,951.690541,0
0.057292,-172.383259,-4.887332,158.632937,3.399317,6.166767,-3.605513,-2.904748,-6.215028,3.470920,2.974832,0.044560,0.607649,-0.040740,-6.613426,188.495720,1514.152552,951.410313,0
0.058333,-126.302164,-73.478191,187.237972,4.018579,5.851193,-1.124016,-4.895803,-6.021335,0.973252,5.027258,0.091960,0.635416,-0.022156,-12.321397,188.495627,1514.594878,951.559815,0
0.059375,-46.581191,-125.567311,190.397407,4.063616,4.746681,1.349304,-6.001515,-4.840186,-1.442454,5.952564,0.102898,0.600622,-0.003573,-15.530019,188.495720,1515.334012,951.421893,0
0.060417,25.998230,-171.936611,158.669392,3.433095,3.099088,3.573248,-6.376529,-3.157714,-3.715806,6.344772,0.132068,0.621154,0.007577,-18.626059,188.344901,1515.721257,951.277208,0
0.061458,95.142473,-179.841003,105.360008,2.431017,0.695583,5.204413,-5.425462,-0.723256,-5.229937,5.316654,0.099252,0.631213,-0.037023,-17.961818,188.495671,1516.210473,950.951702,0
0.062500,142.003263,-183.446721,16.543440,0.685826,-1.740947,6.140595,-3.894476,1.836532,-6.191905,3.763055,0.062790,0.618191,0.018727,-13.435971,188.495712,1516.851712,950.562496,0
0.063542,168.976185,-148.728471,-60.704737,-0.766624,-3.744479,6.161036,-1.911153,3.853220,-6.062493,1.645895,-0.017425,0.619294,-0.018440,-9.214099,188.495693,1517.355333,950.057197,0
0.064583,190.931940,-69.766768,-113.078442,-1.813739,-5.461792,5.081769,0.841529,5.672417,-4.962483,-1.072904,-0.028364,0.595730,-0.003573,2.866083,188.344862,1517.309954,949.109756,0
0.065625,172.818159,4.931496,-157.893807,-2.725742,-6.214034,3.585512,2.871245,6.325657,-3.456981,-3.068213,-0.068472,0.624806,-0.007290,7.200538,188.495776,1517.381215,948.734323,0
0.066667,126.556265,73.487120,-186.972758,-3.333744,-5.949832,1.198043,4.850702,6.101580,-0.985195,-5.074946,-0.090349,0.622876,-0.040740,13.674075,188.495622,1517.823972,948.278880,0
0.067708,46.756192,125.306104,-190.557501,-3.378782,-4.852660,-1.348864,5.971879,4.924229,1.430511,-6.053561,-0.141395,0.638448,-0.022156,16.150906,188.495598,1518.460480,948.323422,0
0.068750,-25.631129,171.640169,-158.477087,-2.782039,-3.190388,-3.544191,6.315964,3.215172,3.703864,-6.426730,-0.112226,0.653468,0.003860,18.819129,188.344853,1519.339579,948.258436,0
0.069792,-94.843172,180.131811,-105.192007,-1.712405,-0.808901,-5.179444,5.399692,0.795906,5.209366,-5.421460,-0.134103,0.627148,-0.014723,18.402571,188.495729,1519.976322,949.112972,0
0.070833,-141.703962,183.197259,-16.278225,0.021527,1.631299,-6.131979,3.864840,-1.687924,6.162708,-3.845013,-0.093995,0.617571,-0.025873,13.527716,188.495694,1519.547791,949.382304,0
0.071875,-168.936782,149.078005,61.091468,1.507755,3.711890,-6.148331,1.866053,-3.750187,6.080746,-1.754508,-0.039302,0.621774,-0.018440,7.549546,188.495694,1519.950143,950.073022,0
0.072917,-190.519640,69.658247,113.367960,2.521092,5.407186,-5.056800,-0.878897,-5.561788,4.976423,0.998562,0.004452,0.601793,-0.011006,-1.547180,188.269375,1519.640767,949.861647,0
0.073958,-173.253354,-4.981293,157.988898,3.399317,6.177776,-3.625953,-2.900881,-6.271996,3.492489,2.971024,0.048206,0.615780,-0.014723,-6.275677,188.495649,1520.389629,950.314029,0
0.075000,-126.505563,-73.466446,187.007090,4.041097,5.891557,-1.181250,-4.915133,-6.044122,0.990508,5.034874,0.110191,0.605927,0.011294,-12.805505,188.495731,1520.580469,950.619501,0
0.076042,-46.321292,-125.121001,191.102204,4.108653,4.754020,1.361568,-6.032444,-4.900952,-1.455395,6.013489,0.099252,0.638517,-0.014723,-15.451211,188.495850,1521.747543,951.350614,0
0.077083,26.009530,-171.572516,158.742302,3.489392,3.088080,3.528278,-6.426789,-3.172905,-3.733061,6.409505,0.121129,0.620258,0.003860,-18.783675,188.269503,1522.479493,951.806219,0
0.078125,94.656576,-180.463488,105.870379,2.431017,0.713931,5.224853,-5.537580,-0.723256,-5.260133,5.377580,0.095606,0.630455,-0.011006,-17.511485,188.495624,1523.608601,952.271771,0
0.079167,141.449567,-183.705111,16.907990,0.708344,-1.751955,6.169212,-3.913807,1.832734,-6.243671,3.763055,0.048206,0.620327,-0.037023,-12.524047,188.420372,1524.271221,952.215371,0
0.080208,169.077884,-149.186526,-60.242973,-0.766624,-3.821538,6.177388,-1.845429,3.925380,-6.101316,1.642087,0.011744,0.623565,-0.011006,-9.180324,188.495674,1525.675050,952.063852,0
0.081250,190.626842,-69.978178,-112.726044,-1.802480,-5.472800,5.061328,0.872458,5.714194,-4.996993,-1.091943,-0.046595,0.600966,-0.029590,2.562108,188.269490,1526.409976,952.062354,0
0.082292,173.337956,4.637871,-157.711532,-2.658186,-6.206695,3.597777,2.890576,6.424402,-3.504432,-3.106292,-0.046595,0.579400,-0.044457,6.885305,188.495669,1528.068852,952.813974,0
0.083333,126.737064,73.287455,-187.082123,-3.322485,-6.004874,1.132633,4.924159,6.188932,-0.920489,-5.139679,-0.115872,0.610268,-0.037023,14.079374,188.420376,1529.887160,952.728036,0
0.084375,46.812692,124.777579,-191.237994,-3.356263,-4.896693,-1.406097,6.064666,4.939421,1.499531,-6.129718,-0.115872,0.616124,-0.022156,16.218456,188.495638,1531.624027,952.400477,0
0.085417,-25.393831,171.522719,-159.096823,-2.793298,-3.139016,-3.662747,6.397153,3.226566,3.790139,-6.457193,-0.123164,0.626184,-0.022156,18.684029,188.269198,1533.100595,952.196541,0
0.086458,-94.097377,180.601612,-105.750984,-1.734924,-0.805231,-5.257118,5.430621,0.700958,5.312897,-5.375766,-0.101287,0.631420,0.000144,18.852904,188.495638,1534.965245,950.404309,0
0.087500,-141.444064,183.819745,-17.092387,-0.023510,1.796425,-6.238270,3.814580,-1.801861,6.240355,-3.806935,-0.090349,0.618673,-0.011006,13.685333,188.420282,1537.210293,949.122080,0
0.088542,-169.027182,149.160220,60.058576,1.485236,3.832983,-6.185124,1.750069,-3.883114,6.085060,-1.632657,-0.035656,0.622463,-0.014723,8.900545,188.495626,1539.280537,946.915091,0
0.089583,-191.242835,70.104557,112.578101,2.498573,5.513601,-5.060888,-1.025810,-5.679523,4.980737,1.112797,0.026329,0.608407,-0.007290,-1.468372,188.269568,1541.866495,945.736706,0
0.090625,-173.287253,-4.206122,158.061809,3.421836,6.232818,-3.495133,-3.012999,-6.328965,3.432097,3.119530,0.051852,0.619431,0.026161,-6.444551,188.420314,1544.178879,944.205512,0
0.091667,-126.844560,-72.526846,187.529612,4.018579,5.891557,-1.038166,-5.046582,-6.063112,0.917174,5.118647,0.084667,0.621498,-0.025873,-12.265105,188.420238,1545.992853,943.156040,0
0.092708,-47.033188,-124.709925,191.150811,4.097394,4.732003,1.471948,-6.125231,-4.836388,-1.571867,6.112493,0.095606,0.618880,0.007577,-15.541278,188.495622,1548.090745,941.405887,0
0.093750,25.116835,-171.689966,159.447099,3.523169,3.003682,3.708156,-6.469316,-3.081756,-3.896984,6.439968,0.102898,0.631627,-0.007290,-18.603542,188.344750,1550.748872,939.465273,0
0.094792,93.910781,-180.322548,106.563024,2.431017,0.603847,5.310704,-5.483454,-0.616915,-5.355036,5.339501,0.124775,0.627010,0.015011,-17.984334,188.420352,1552.457647,937.476607,0
0.095833,141.223568,-184.304107,18.050247,0.787160,-1.942768,6.271415,-3.844216,1.965661,-6.312691,3.713553,0.051852,0.623496,-0.037023,-13.548554,188.420216,1554.832125,935.777545,0
0.096875,168.942285,-149.362702,-59.100716,-0.755365,-3.942630,6.193741,-1.760374,3.982349,-6.140140,1.562122,0.011744,0.622532,-0.014723,-9.326683,188.495644,1556.194404,934.470368,0
0.097917,191.474336,-70.859054,-111.705303,-1.802480,-5.670952,5.028623,0.992308,5.812939,-5.009935,-1.190947,-0.042949,0.625977,0.022444,2.652175,188.269509,1558.653620,933.330874,0
0.098958,173.507455,3.287195,-157.662925,-2.714483,-6.320449,3.520102,3.014292,6.431998,-3.426784,-3.235758,-0.075764,0.633142,-0.037023,7.065438,188.420321,1560.394359,931.196062,0
0.100000,127.448959,71.936779,-187.628948,-3.288707,-6.034230,1.026341,5.005347,6.177538,-0.860096,-5.231068,-0.130457,0.633211,-0.037023,13.584008,188.420244,1562.190074,929.792720,0
0.101042,48.270382,124.319524,-191.165084,-3.367522,-4.867337,-1.471508,6.118792,4.962209,1.616003,-6.198259,-0.145042,0.626321,-0.025873,16.195939,188.495662,1564.402717,928.711729,0
0.102083,-24.150839,171.522719,-159.595041,-2.793298,-3.076635,-3.740421,6.381688,3.154405,3.915238,-6.487655,-0.141395,0.641617,-0.022156,18.864162,188.269456,1566.570464,927.020289,0
0.103125,-93.215983,180.460672,-106.674511,-1.746183,-0.695147,-5.355233,5.469282,0.628798,5.377603,-5.398613,-0.134103,0.631420,-0.007290,18.425088,188.420218,1568.181993,925.919319,0
0.104167,-141.105066,184.148605,-18.234644,-0.046029,1.822112,-6.287328,3.768187,-1.889213,6.339572,-3.772664,-0.093995,0.624461,-0.003573,13.572750,188.420287,1570.376190,924.802237,0
0.105208,-169.185381,149.829685,58.989229,1.462718,3.895364,-6.246446,1.715274,-3.974263,6.128197,-1.594579,-0.028364,0.625357,-0.022156,7.740938,188.495682,1572.288670,923.967921,0
0.106250,-191.615732,71.361273,111.861153,2.476055,5.586991,-5.073152,-1.106999,-5.766875,5.006619,1.211801,-0.002841,0.620396,-0.011006,-1.322014,188.269541,1574.644758,922.884238,0
0.107292,-173.863550,-2.620546,157.988898,3.444354,6.276852,-3.519662,-3.125117,-6.389731,3.367390,3.229957,0.051852,0.626528,-0.007290,-6.039252,188.420207,1576.944090,921.234937,0
0.108333,-127.793754,-71.364090,187.894163,4.029838,5.961277,-1.029989,-5.100707,-6.135272,0.848153,5.244305,0.077375,0.627837,0.000144,-12.681663,188.420115,1579.829858,920.435542,0
0.109375,-48.592577,-124.075695,191.600422,4.097394,4.728334,1.545534,-6.214152,-4.828792,-1.606377,6.161995,0.117483,0.638723,-0.003573,-15.496244,188.495655,1581.262516,919.601217,0
0.110417,23.760844,-171.713456,159.933166,3.433095,3.011021,3.806271,-6.535040,-3.077958,-3.940122,6.489470,0.113837,0.641617,-0.007290,-18.851225,188.269443,1582.667008,919.203008,0
0.111458,92.803388,-180.851074,107.377186,2.464795,0.519449,5.445612,-5.510517,-0.506776,-5.471507,5.369964,0.084667,0.639757,-0.007290,-17.488968,188.420282,1585.347195,917.827890,0
