1-Time,2-VGERA,3-VGERB,4-VGERC,5-VN,6-IGERAN,7-IGERBN,8-IGERCN,9-IGERAT,10-IGERBT,11-IGERCT,12-IN,13-IFD,14-IFAULT,15-VFAULT,16-Speed (rad/s),17-Active Power,18-Reactive Power,19-FAULT 
0.000000,115.911464,82.708761,-180.079925,-0.544122,-4.749257,1.542285,3.371489,4.796983,-1.635478,-3.185727,-0.073645,0.541697,-0.039427,18.833488,188.495209,1018.162611,1000.424048,0
0.001042,38.045198,131.273995,-180.929357,-0.566742,-4.149260,-0.497567,4.569259,4.300757,0.441885,-4.391837,-0.051727,0.533662,-0.061832,-4.827031,188.495262,1017.802742,1000.243532,0
0.002083,-33.321815,172.808143,-150.189773,0.055308,-2.956366,-2.521544,5.151352,3.069381,2.422724,-4.968208,-0.004238,0.534380,-0.035692,-24.438571,188.473861,1016.481479,1000.097254,0
0.003125,-103.656660,175.840450,-94.927462,1.107138,-1.124423,-4.065324,4.740902,1.187397,4.076221,-4.669349,-0.011544,0.547380,-0.061832,-41.641081,188.567251,1016.221059,1000.328373,0
0.004174,-148.153290,179.331831,-6.032576,2.781018,0.703970,-4.966192,3.830447,-0.569612,4.898773,-3.715846,-0.018850,0.551887,-0.028224,-49.716420,188.437662,1014.127633,1000.400906,0
0.005208,-164.112188,143.934782,69.135985,4.217388,2.397453,-5.029689,2.158794,-2.319269,5.129591,-2.182414,-0.069992,0.545943,-0.043161,-48.291360,188.500323,1012.857544,1000.407986,0
0.006250,-183.757399,62.110820,123.708902,5.235288,4.165492,-4.620925,0.140122,-4.039520,4.705725,-0.246946,-0.132093,0.546792,-0.024490,-51.265890,188.495662,1011.143885,1001.239400,0
0.007291,-167.639706,-13.962633,163.324432,6.038298,4.630578,-3.581156,-1.311380,-4.620288,3.711109,1.222445,-0.157664,0.552345,-0.031958,-36.845641,188.420368,1010.123139,1001.602648,0
0.008333,-115.815821,-83.089566,179.956061,6.377598,4.868447,-1.485744,-3.449455,-4.756291,1.629549,3.225513,-0.186888,0.506094,-0.024490,-15.752491,188.495680,1008.325679,1001.618356,0
0.009375,-37.688677,-130.893703,181.297917,6.400218,4.279101,0.581888,-4.621106,-4.282119,-0.389060,4.460086,-0.197847,0.554696,-0.043161,10.373608,188.495667,1006.634353,1002.086086,0
0.010416,32.748251,-172.512417,150.189016,5.846028,3.068456,2.625709,-5.311409,-3.043392,-2.420259,5.072035,-0.274560,0.543722,-0.028224,29.114278,188.473544,1004.536053,1001.990554,0
0.011458,103.162494,-175.617209,95.862311,4.828128,1.236512,4.185362,-4.900958,-1.249626,-4.090543,4.790965,-0.212459,0.557048,-0.017021,46.226307,188.419422,1004.300640,1002.915178,0
0.012500,147.625096,-178.528707,8.863258,3.199488,-0.520876,5.114011,-4.001698,0.481653,-4.992832,3.890830,-0.223418,0.564822,-0.020755,55.749327,188.495747,1002.506431,1003.325331,0
0.013541,164.355284,-144.182697,-67.622538,1.695258,-2.274713,5.229100,-2.318850,2.297473,-5.232043,2.368072,-0.157664,0.559269,-0.009553,53.815317,188.495709,1002.392403,1004.439277,0
0.014592,183.750960,-62.262087,-123.882008,0.598188,-4.021450,4.756838,-0.225552,4.043455,-4.774604,0.297405,-0.143052,0.554631,0.005384,56.303517,188.495750,1001.523288,1004.340302,0
0.015625,167.599239,11.878421,-163.559091,-0.159582,-4.536240,3.725006,1.181175,4.598493,-3.817758,-1.100829,-0.117481,0.550515,-0.046895,43.319637,188.363422,1001.084323,1005.592648,0
0.016667,116.886919,81.935583,-179.612122,-0.476262,-4.745707,1.613720,3.360295,4.789632,-1.694231,-3.153706,-0.062686,0.537516,-0.031958,20.145448,188.495902,1000.660622,1005.791257,0
0.017708,39.882684,130.971972,-181.163258,-0.555432,-4.159911,-0.430101,4.528213,4.278703,0.349558,-4.345585,-0.015197,0.548229,-0.028224,-3.956161,188.495794,999.839815,1005.776803,0
0.018750,-31.098685,172.916871,-149.968182,-0.012552,-2.931514,-2.485827,5.158815,3.047326,2.363971,-4.971766,-0.022503,0.556460,-0.024490,-25.241581,188.495671,999.632299,1005.291481,0
0.019792,-102.783288,175.912935,-96.195455,1.027968,-1.127973,-4.057386,4.703588,1.253560,4.034254,-4.637329,-0.040768,0.557701,-0.091706,-41.290471,188.344934,999.036510,1005.239035,0
0.020833,-147.744960,178.751948,-9.024053,2.713158,0.672018,-4.934443,3.830447,-0.547557,4.894576,-3.744309,-0.015197,0.554958,-0.013287,-49.433670,188.479913,999.328152,1004.929641,0
0.021875,-164.701998,144.478423,67.855682,4.183458,2.354850,-5.033658,2.128943,-2.341323,5.091821,-2.203761,-0.055380,0.552018,-0.031958,-49.784280,188.491963,999.646982,1004.582884,0
0.022917,-183.383096,63.596771,123.561175,5.178738,4.098036,-4.581239,0.099077,-4.002762,4.667955,-0.204251,-0.121134,0.552867,-0.028224,-50.994450,188.495763,999.752647,1003.387491,0
0.023958,-167.787158,-12.863271,163.312122,5.981748,4.587975,-3.537502,-1.300186,-4.583531,3.694322,1.201098,-0.164970,0.546008,-0.035692,-38.519521,188.344927,999.452376,1002.820257,0
0.025008,-115.668368,-83.307022,180.288448,6.388908,4.825844,-1.390498,-3.475575,-4.785697,1.549812,3.232628,-0.212459,0.546008,-0.054364,-15.616771,188.495854,1000.114754,1002.385249,0
0.026042,-38.414597,-130.784975,181.396402,6.354978,4.222296,0.581888,-4.568866,-4.171847,-0.422633,4.392487,-0.219765,0.526345,-0.061832,10.249198,188.433979,999.552305,1000.499626,0
0.027083,32.373948,-172.464093,150.287500,5.766858,3.029403,2.589992,-5.240513,-3.080149,-2.407669,4.993763,-0.241683,0.582590,-0.061832,28.469608,188.495720,998.738588,1000.271644,0
0.028125,103.105781,-175.532643,95.394508,4.748958,1.225861,4.145676,-4.822600,-1.238598,-4.052773,4.684230,-0.219765,0.549013,-0.017021,45.773907,188.344807,997.632646,999.034500,0
0.029167,147.273478,-178.782406,7.939962,3.097698,-0.513775,5.034639,-3.934534,0.485329,-4.946668,3.823231,-0.208806,0.553912,-0.039427,55.240377,188.495640,996.956418,998.094489,0
0.030208,163.731446,-143.880675,-68.718182,1.672638,-2.235660,5.149728,-2.318850,2.231310,-5.122929,2.364514,-0.175929,0.549340,-0.002084,53.860557,188.420345,994.995044,997.448528,0
0.031250,182.684765,-62.576191,-123.721970,0.620808,-3.932693,4.800493,-0.296448,3.969940,-4.720047,0.379235,-0.132093,0.537450,-0.084238,56.755917,188.495711,993.140164,997.164416,0
0.032292,167.406417,13.799285,-162.857387,-0.170892,-4.479436,3.732944,1.106547,4.561735,-3.821955,-1.015441,-0.073645,0.522164,-0.035692,42.403528,188.478491,991.339554,997.706432,0
0.033333,116.115629,82.974541,-179.168940,-0.510192,-4.717304,1.649437,3.270742,4.793308,-1.715215,-3.046971,-0.044421,0.512758,-0.039427,19.263268,188.495132,989.578004,998.311235,0
0.034375,38.396816,130.923649,-181.138637,-0.510192,-4.206064,-0.362635,4.446123,4.267675,0.328575,-4.299333,-0.018850,0.537320,-0.050629,-4.159741,188.419820,988.448379,998.388382,0
0.035424,-32.834087,172.977276,-149.685038,0.043998,-2.949266,-2.442173,5.140158,3.039975,2.405938,-4.943303,-0.015197,0.543460,-0.043161,-24.234991,188.495218,988.262351,998.331575,0
0.036458,-102.862685,175.888774,-96.429356,1.118448,-1.252233,-3.962140,4.759558,1.286642,3.962911,-4.637329,-0.026156,0.555676,-0.020755,-41.607151,188.285670,987.282790,998.632549,0
0.037500,-147.654220,178.317035,-9.898106,2.690538,0.530007,-4.890789,3.845373,-0.437285,4.890380,-3.811908,-0.037115,0.561751,-0.046895,-50.236680,188.495893,986.342184,999.917588,0
0.038542,-164.622600,145.227439,67.400190,4.194768,2.290945,-5.029689,2.233421,-2.201645,5.129591,-2.264245,-0.069992,0.556199,-0.039427,-48.359220,188.420245,985.161343,1001.140919,0
0.039583,-182.226161,65.493473,124.016667,5.280528,4.034131,-4.680454,0.229675,-3.951302,4.747692,-0.318103,-0.135746,0.551822,-0.046895,-51.017070,188.495683,984.311534,1002.592758,0
0.040625,-168.376968,-11.159863,163.398296,6.015678,4.595075,-3.656559,-1.229290,-4.601910,3.769863,1.073015,-0.132093,0.542611,-0.069301,-37.331971,188.344798,983.672551,1003.931632,0
0.041667,-118.163718,-81.531129,179.143561,6.309738,4.850695,-1.525430,-3.382291,-4.741588,1.709287,3.097430,-0.208806,0.530199,-0.013287,-16.351921,188.495604,981.742951,1004.448972,0
0.042723,-39.299312,-131.497748,180.559281,6.343668,4.222296,0.510454,-4.553941,-4.263741,-0.389060,4.410276,-0.241683,0.538626,-0.002084,10.486708,188.480231,981.934211,1005.799784,0
0.043754,30.649888,-172.560741,149.770455,5.778168,3.086207,2.538400,-5.247976,-3.138961,-2.353112,5.029341,-0.227071,0.558354,-0.028224,29.125588,188.495600,981.737474,1006.579775,0
0.044792,102.107641,-175.882989,96.773296,4.737648,1.300417,4.086148,-4.859913,-1.381953,-4.015002,4.812312,-0.183235,0.559400,-0.024490,46.090587,188.344909,981.704541,1009.002808,0
0.045843,148.135508,-178.190442,8.013826,3.063768,-0.464071,5.038608,-3.960653,0.437544,-4.959258,3.890830,-0.194194,0.557244,-0.039427,55.704087,188.495734,981.319416,1010.366625,0
0.046875,164.400654,-144.931713,-67.684091,1.616088,-2.171755,5.185445,-2.400940,2.168822,-5.169093,2.439229,-0.183235,0.553912,-0.046895,53.792697,188.434645,981.319302,1011.652096,0
0.047917,181.720652,-64.364164,-124.103599,0.552948,-3.950444,4.796524,-0.330030,3.881722,-4.829161,0.421930,-0.128440,0.548360,-0.050629,55.873737,188.495908,980.743462,1012.753897,0
0.048958,168.347844,12.808650,-162.894319,-0.159582,-4.458134,3.768661,1.076696,4.565411,-3.834545,-0.994093,-0.102869,0.548686,-0.050629,43.398807,188.269541,981.046947,1012.886956,0
0.050000,116.898262,82.938298,-178.676516,-0.521502,-4.706654,1.673249,3.252085,4.749199,-1.723608,-3.000719,-0.037115,0.524124,-0.031958,19.975798,188.420367,980.305743,1012.457087,0
0.051042,38.385473,130.790759,-181.643372,-0.521502,-4.174112,-0.386446,4.453586,4.267675,0.311788,-4.313565,-0.029809,0.553063,-0.043161,-4.453801,188.420349,980.453372,1012.678505,0
0.052083,-32.221592,172.481959,-149.537311,0.066618,-2.967017,-2.382644,5.121501,3.157599,2.296824,-4.989555,-0.026156,0.508838,-0.031958,-25.332061,188.495734,979.473427,1014.545068,0
0.053125,-102.874028,176.372010,-95.912311,1.084518,-1.202529,-3.989920,4.767021,1.268263,3.996484,-4.655118,-0.059033,0.550973,-0.035692,-41.211301,188.480032,980.037810,1014.712419,0
0.054167,-147.245890,178.582815,-8.556250,2.769708,0.551309,-4.898726,3.878955,-0.485070,4.877790,-3.744309,-0.011544,0.549732,-0.043161,-49.388430,188.495676,980.029743,1013.692349,0
0.055208,-164.248298,144.865012,68.421970,4.206078,2.326448,-5.045564,2.214764,-2.245754,5.100214,-2.271360,-0.088257,0.548164,-0.024490,-49.705110,188.420289,979.932892,1013.581484,0
0.056257,-183.099534,62.279952,124.152084,5.257908,4.090936,-4.652674,0.140122,-3.988059,4.680545,-0.257619,-0.132093,0.532094,0.005384,-50.937900,188.495711,979.771171,1013.033040,0
0.057292,-168.308913,-13.044484,163.078220,5.981748,4.619927,-3.600999,-1.210633,-4.565152,3.736289,1.137057,-0.154011,0.523667,-0.031958,-38.858821,188.290533,979.626948,1012.439295,0
0.058333,-117.052153,-82.328469,179.266667,6.377598,4.850695,-1.489713,-3.404679,-4.752615,1.684106,3.161472,-0.219765,0.545355,-0.039427,-16.408471,188.422306,980.177684,1012.524113,0
0.059375,-38.970380,-130.277577,181.421023,6.422838,4.268450,0.542202,-4.561404,-4.241686,-0.376470,4.428065,-0.241683,0.534250,-0.028224,9.615838,188.419750,980.332447,1012.216344,0
0.060417,30.854053,-172.427851,149.905872,5.812098,3.086207,2.582054,-5.292752,-3.113231,-2.378292,5.075593,-0.216112,0.565344,-0.054364,28.107688,188.495199,981.051804,1012.183718,0
0.061458,102.447916,-175.568886,96.957955,4.771578,1.300417,4.145676,-4.893496,-1.319465,-4.023396,4.769618,-0.227071,0.553716,-0.043161,45.773907,188.344478,981.242025,1011.132167,0
0.062500,147.160053,-178.311251,10.451326,3.176868,-0.456971,5.082262,-4.020355,0.422841,-4.959258,3.901504,-0.216112,0.557636,-0.035692,55.466577,188.419949,981.709847,1010.609288,0
0.063542,164.264544,-145.004199,-67.043940,1.695258,-2.203707,5.173540,-2.382284,2.198228,-5.232043,2.400092,-0.168623,0.555284,-0.031958,53.894487,188.479833,982.790327,1010.412100,0
0.064583,182.242407,-65.487688,-123.734281,0.620808,-3.957545,4.816367,-0.344956,3.973615,-4.858538,0.411256,-0.139399,0.550385,-0.043161,56.699367,188.495180,984.516143,1010.621666,0
0.065625,168.336502,11.165647,-163.214394,-0.159582,-4.479436,3.784535,1.102816,4.565411,-3.817758,-0.969189,-0.102869,0.561882,-0.035692,42.788068,188.344453,984.646570,1010.247535,0
0.066675,116.682754,82.527547,-179.710607,-0.498882,-4.699553,1.597846,3.308056,4.723468,-1.690035,-3.064760,-0.048074,0.546269,-0.065566,19.048378,188.419940,985.563262,1009.713758,0
0.067708,40.381754,130.440413,-181.175569,-0.544122,-4.177662,-0.390415,4.468512,4.245621,0.362148,-4.345585,-0.033462,0.552083,-0.039427,-4.069261,188.437020,986.687062,1008.700445,0
0.068750,-30.304710,172.506120,-149.832766,0.032688,-3.002520,-2.458047,5.121501,3.095111,2.347184,-4.961093,-0.037115,0.555349,-0.020755,-23.873071,188.495734,987.546444,1007.121015,0
0.069792,-102.374958,176.118311,-96.786364,1.005348,-1.198979,-4.005795,4.763290,1.290318,3.954517,-4.665791,-0.022503,0.551103,-0.035692,-41.516671,188.342898,987.219594,1007.164707,0
0.070833,-147.393342,178.498249,-9.602652,2.667918,0.608113,-4.910632,3.849104,-0.466691,4.898773,-3.754983,-0.026156,0.556264,-0.020755,-50.089650,188.419102,987.514848,1007.349120,0
0.071875,-164.565888,145.384491,67.880303,4.115598,2.301596,-5.061438,2.196107,-2.245754,5.121198,-2.253571,-0.084604,0.550058,-0.046895,-48.347910,188.419681,988.047377,1007.254672,0
0.072917,-182.407641,64.635729,123.561175,5.201358,4.115788,-4.632831,0.143854,-3.988059,4.667955,-0.257619,-0.113828,0.552802,0.016587,-51.073620,188.479667,988.554040,1006.464943,0
0.073958,-168.581133,-12.742462,162.881250,5.981748,4.577324,-3.585125,-1.262873,-4.572504,3.769863,1.147730,-0.154011,0.530918,-0.058098,-37.230181,188.262639,988.859515,1006.735221,0
0.075000,-117.244976,-82.473440,179.278978,6.377598,4.836494,-1.461933,-3.449455,-4.741588,1.587582,3.200608,-0.186888,0.513150,-0.024490,-15.854281,188.420399,989.744119,1005.598731,0
0.076042,-38.732187,-130.084282,181.938069,6.377598,4.243598,0.605700,-4.594986,-4.186550,-0.393257,4.438739,-0.212459,0.500868,-0.024490,10.475398,188.420629,989.924964,1004.930114,0
0.077093,33.338061,-172.609064,150.065910,5.846028,3.025852,2.685238,-5.296484,-3.002958,-2.483210,5.086267,-0.245336,0.537320,-0.035692,29.408338,188.495977,990.962338,1003.946509,0
0.078125,102.538656,-176.185012,96.083902,4.805508,1.229412,4.149645,-4.871107,-1.223895,-4.069559,4.755387,-0.238030,0.546727,-0.039427,46.022727,188.282532,991.883023,1003.099709,0
0.079166,146.797093,-178.709921,8.814015,3.176868,-0.542177,5.121948,-3.953190,0.544141,-4.992832,3.844578,-0.205153,0.551430,-0.046895,55.523127,188.420350,993.035322,1002.006250,0
0.080208,164.094406,-144.605529,-67.930303,1.683948,-2.274713,5.205288,-2.352433,2.301149,-5.202667,2.378745,-0.190541,0.547576,-0.024490,53.815317,188.420235,993.739101,1001.433678,0
0.081250,182.333147,-63.578906,-123.463447,0.609498,-4.017900,4.772713,-0.281522,4.025076,-4.757817,0.329426,-0.121134,0.532682,-0.028224,56.066007,188.496015,993.985359,999.894682,0
0.082291,168.313817,12.796569,-162.980493,-0.159582,-4.532690,3.756755,1.184906,4.613196,-3.792578,-1.086597,-0.095563,0.551299,-0.024490,43.545837,188.269789,995.315527,999.584506,0
0.083333,116.977659,82.153039,-179.304357,-0.487572,-4.724405,1.581971,3.341638,4.771253,-1.690035,-3.125244,-0.044421,0.517526,-0.050629,20.428198,188.419113,996.405357,999.745324,0
0.084375,39.145421,130.488736,-181.606440,-0.521502,-4.167011,-0.521378,4.543139,4.249297,0.467065,-4.384721,-0.044421,0.533727,-0.043161,-3.707341,188.472005,997.538105,999.338495,0
0.085416,-31.087342,172.675253,-150.239016,0.010068,-2.956366,-2.533450,5.229711,3.043651,2.435314,-5.025134,-0.004238,0.550385,-0.039427,-24.868351,188.494565,999.171998,999.115130,0
0.086458,-102.136765,176.227039,-97.131061,1.073208,-1.085370,-4.101041,4.763290,1.157991,4.059435,-4.687138,-0.011544,0.558485,-0.002084,-41.154751,188.343578,1001.457033,997.982435,0
0.087500,-147.438712,178.909000,-10.452083,2.713158,0.650716,-4.993972,3.815522,-0.621072,4.949133,-3.754983,0.006721,0.555872,-0.024490,-49.569390,188.420517,1003.767760,997.053200,0
0.088551,-164.747368,143.983106,67.904924,4.183458,2.461358,-5.073344,2.054315,-2.407487,5.112804,-2.157509,-0.077298,0.555872,-0.009553,-49.897380,188.437013,1005.418563,995.538428,0
0.089583,-183.462494,65.360583,122.896402,5.201358,4.172592,-4.605051,0.020719,-4.079953,4.709922,-0.129537,-0.102869,0.531310,-0.039427,-51.130170,188.495513,1008.114258,994.883749,0
0.090625,-168.410996,-10.966569,163.459849,5.993058,4.694483,-3.497816,-1.404665,-4.682776,3.673339,1.279371,-0.150358,0.554566,-0.043161,-38.802271,188.343348,1011.004516,993.408624,0
0.091667,-118.061636,-80.818356,180.017614,6.366288,4.886198,-1.330969,-3.516620,-4.818779,1.583386,3.278880,-0.212459,0.544963,-0.058098,-16.476331,188.418603,1013.043563,993.626798,0
0.092708,-40.558330,-130.048039,181.654925,6.366288,4.250698,0.681103,-4.658419,-4.226983,-0.556928,4.527685,-0.216112,0.548490,-0.028224,9.661078,188.420256,1015.947658,992.740417,0
0.093750,30.479751,-172.609064,150.779925,5.800788,2.979699,2.709049,-5.303946,-3.025013,-2.567143,5.111172,-0.219765,0.553063,-0.050629,28.107688,188.495566,1017.805093,992.152584,0
0.094792,101.846764,-175.822585,96.687122,4.703718,1.098051,4.252828,-4.833794,-1.150380,-4.145100,4.691346,-0.197847,0.554631,-0.020755,45.547707,188.316930,1018.922171,990.429006,0
0.095833,146.819778,-179.422694,9.540341,3.109008,-0.684188,5.141791,-3.859906,0.654413,-5.018012,3.787653,-0.183235,0.551691,-0.035692,55.149897,188.481400,1020.558804,989.051259,0
0.096875,164.196489,-144.593448,-67.573296,1.661328,-2.370570,5.185445,-2.214372,2.422449,-5.173290,2.250663,-0.175929,0.547380,-0.020755,54.018897,188.450105,1022.203225,986.945221,0
0.097917,183.512767,-63.385611,-122.724811,0.598188,-4.103106,4.721121,-0.132268,4.109618,-4.711653,0.251153,-0.124787,0.533596,-0.013287,56.982117,188.515531,1023.820512,985.894232,0
0.098967,167.122854,14.234197,-163.632955,-0.182202,-4.557542,3.633729,1.311773,4.664656,-3.670874,-1.186217,-0.095563,0.524255,-0.013287,41.894578,188.420828,1024.807346,984.694914,0
0.100000,116.648727,82.177201,-179.821402,-0.578052,-4.742156,1.518474,3.397608,4.796983,-1.568331,-3.160822,-0.033462,0.512104,-0.013287,19.082308,188.345400,1025.980624,983.734104,0
0.101042,38.464871,130.343765,-181.803410,-0.578052,-4.124408,-0.553127,4.539408,4.219891,0.471262,-4.420300,-0.011544,0.557048,0.001650,-4.499041,188.420844,1026.205253,983.584144,0
0.102083,-32.300990,172.554444,-150.435985,0.043998,-2.888911,-2.557262,5.173740,3.010569,2.515052,-4.953977,0.017680,0.516938,-0.039427,-24.054031,188.496183,1026.308213,982.588825,0
0.103125,-102.431670,176.372010,-95.887690,1.095828,-1.071169,-4.105009,4.681200,1.143288,4.109795,-4.601750,-0.022503,0.553259,-0.035692,-41.279161,188.420772,1026.171488,981.794560,0
0.104167,-146.882930,179.537207,-8.777841,2.735778,0.714621,-5.005878,3.804328,-0.665181,4.953330,-3.687383,-0.037115,0.553390,-0.017021,-49.976550,188.345400,1026.342413,980.943980,0
0.105208,-164.327695,145.070387,67.695644,4.228698,2.425855,-5.049532,2.095360,-2.374405,5.146378,-2.175299,-0.055380,0.547902,-0.017021,-48.449700,188.472951,1026.504223,981.322284,0
0.106250,-183.417124,63.886713,122.760985,5.257908,4.197444,-4.597114,0.076689,-4.046871,4.651168,-0.101074,-0.117481,0.548164,-0.031958,-51.299820,188.514997,1025.650786,980.542013,0
0.107292,-168.479051,-12.174659,163.164394,6.049608,4.676732,-3.525596,-1.397202,-4.660722,3.656552,1.218887,-0.157664,0.533074,-0.028224,-37.264111,188.348780,1024.533946,980.767150,0
0.108341,-116.553083,-81.990203,180.497728,6.388908,4.868447,-1.350812,-3.565128,-4.793049,1.512042,3.285996,-0.186888,0.547902,0.016587,-16.035241,188.344927,1024.301701,980.302935,0
0.109375,-39.798382,-129.939311,181.925758,6.366288,4.236497,0.657291,-4.665882,-4.223307,-0.531747,4.513453,-0.216112,0.549405,-0.035692,9.728938,188.420399,1023.788244,980.534616,0
0.110417,30.627203,-172.415770,150.767614,5.846028,3.029403,2.716986,-5.307678,-3.006634,-2.504193,5.125403,-0.230724,0.553390,-0.028224,28.684498,188.495767,1023.198371,980.679822,0
