1-Time,2-VGERA,3-VGERB,4-VGERC,5-VN,6-IGERAN,7-IGERBN,8-IGERCN,9-IGERAT,10-IGERBT,11-IGERCT,12-IN,13-IFD,14-IFAULT,15-VFAULT,16-Speed (rad/s),17-Active Power,18-Reactive Power,19-FAULT 
0.000000,151.311408,-157.085103,7.090530,3.007218,-6.542147,3.217028,3.647610,6.888485,-3.272188,-3.399198,-0.044421,0.305089,-0.035692,2.694118,188.486754,1514.167423,-907.393572,0
0.001042,202.001043,-91.836140,-42.841288,2.068488,-6.180019,0.740631,5.479713,6.513559,-0.791942,-5.185237,-0.018850,0.310707,-0.031958,2.818528,188.495472,1514.299233,-907.561798,0
0.002083,180.677142,-39.356693,-120.225758,0.666048,-4.806061,-1.656393,6.326734,5.241749,1.574992,-6.017773,0.039598,0.316979,-0.028224,2.467918,188.499768,1514.872100,-908.349543,0
0.003128,134.331685,8.205826,-188.438826,-0.634602,-3.034473,-3.739900,6.390167,3.462686,3.736289,-6.188550,0.017680,0.321421,-0.061832,2.332198,188.503764,1515.730718,-908.984746,0
0.004177,77.324278,66.459945,-200.663258,-0.939972,-0.297208,-5.509888,5.240905,0.702198,5.473720,-5.099849,-0.011544,0.318285,-0.073035,2.501848,188.495622,1516.581901,-909.052631,0
0.005216,26.600615,147.402002,-177.519319,-0.476262,2.269643,-6.541720,3.651342,-1.889206,6.627810,-3.591322,-0.051727,0.316652,-0.020755,2.513158,188.502987,1517.214538,-910.044366,0
0.006260,-19.937664,190.265049,-116.766478,0.654738,4.399810,-5.998024,1.061771,-3.962329,6.069650,-1.154197,-0.124787,0.319853,-0.054364,2.354818,188.500911,1518.110098,-911.214116,0
0.007301,-89.637330,199.966015,-56.653788,1.774428,6.288558,-5.001909,-1.624816,-5.884746,5.188345,1.475052,-0.175929,0.303718,-0.058098,2.117308,188.499053,1518.562326,-912.603068,0
0.008342,-152.769687,155.737826,-6.980492,2.701848,6.703941,-3.005712,-3.833787,-6.347891,3.270456,3.634665,-0.219765,0.307180,-0.076769,2.094688,188.494605,1519.561749,-912.925874,0
0.009385,-202.778772,91.745277,43.997727,3.697128,6.295659,-0.481692,-5.680815,-5.969289,0.723064,5.466956,-0.245336,0.312928,-0.035692,2.026828,188.422800,1520.529704,-913.918252,0
0.010426,-180.195854,39.157102,122.059281,5.156118,4.939452,1.927238,-6.456940,-4.657046,-1.660658,6.271030,-0.241683,0.318416,-0.061832,2.343508,188.496856,1521.110022,-915.406635,0
0.011466,-134.530947,-8.381255,188.659660,6.422838,3.192716,3.967090,-6.505447,-2.929443,-3.750611,6.395554,-0.256295,0.339581,-0.039427,2.547088,188.483057,1521.159785,-916.156846,0
0.012510,-77.387429,-66.260866,200.834849,6.649038,0.377345,5.721204,-5.359917,-0.113819,-5.488042,5.235696,-0.227071,0.303848,-0.035692,2.366128,188.494198,1520.851592,-917.588913,0
0.013543,-26.629739,-146.683444,177.789394,6.253188,-2.125601,6.661759,-3.774085,2.411422,-6.562395,3.794768,-0.194194,0.293200,-0.031958,2.354818,188.494277,1521.306817,-918.359029,0
0.014583,19.307388,-189.498168,117.553599,5.144808,-4.170562,6.122031,-1.210633,4.418381,-6.037808,1.382548,-0.161317,0.328214,-0.061832,2.558398,188.490479,1521.179030,-917.922288,0
0.015625,88.213078,-200.153525,57.342424,4.036428,-6.119664,5.209257,1.457296,6.432692,-5.244633,-1.278721,-0.091910,0.302150,-0.046895,2.728048,188.567275,1521.009382,-918.497688,0
0.016667,151.855848,-156.698514,7.693750,3.052458,-6.517295,3.209091,3.711043,6.906864,-3.238614,-3.438334,-0.069992,0.307376,-0.050629,2.728048,188.494732,1520.852862,-919.300549,0
0.017708,202.137153,-92.669722,-43.001326,2.034558,-6.151617,0.661260,5.494638,6.495180,-0.787746,-5.174563,-0.018850,0.315868,-0.039427,2.818528,188.490056,1520.727700,-919.501290,0
0.018750,180.575060,-40.262761,-120.853599,0.643428,-4.823813,-1.652425,6.259569,5.234398,1.583386,-5.999984,0.006721,0.324883,-0.031958,2.422678,188.495732,1520.597954,-919.738552,0
0.019792,134.853440,7.589700,-188.352652,-0.634602,-3.030922,-3.731963,6.360316,3.447983,3.698519,-6.206339,-0.004238,0.334028,-0.043161,2.286958,188.570198,1520.518631,-919.869846,0
0.020833,78.129595,65.396826,-200.810985,-0.872112,-0.258155,-5.450359,5.244637,0.713225,5.452737,-5.074944,-0.029809,0.327300,-0.031958,2.501848,188.489090,1519.882630,-920.133536,0
0.021875,26.748068,146.894604,-177.605493,-0.487572,2.283844,-6.502034,3.636416,-1.859800,6.539680,-3.577090,-0.055380,0.317958,-0.002084,2.513158,188.568944,1518.791609,-919.356660,0
0.022917,-19.642759,189.588519,-117.061932,0.666048,4.311053,-5.934527,1.099085,-3.888814,6.086437,-1.200449,-0.121134,0.313059,-0.035692,2.309578,188.499053,1518.866041,-918.372004,0
0.023967,-89.478535,200.014339,-55.718182,1.797048,6.277907,-5.013815,-1.580039,-5.851665,5.184148,1.467936,-0.194194,0.301497,-0.087972,2.139928,188.569400,1518.668056,-917.675092,0
0.025007,-152.384042,155.931120,-6.525000,2.769708,6.707491,-2.993806,-3.818861,-6.333188,3.236883,3.623992,-0.216112,0.309923,-0.065566,2.105998,188.498814,1518.174819,-917.577381,0
0.026049,-202.824142,92.216432,44.120833,3.708438,6.292108,-0.493598,-5.650964,-5.980316,0.760834,5.449167,-0.252642,0.313190,-0.020755,2.072068,188.512671,1518.574105,-917.232373,0
0.027092,-180.581499,40.111493,122.083902,5.156118,4.953654,1.911364,-6.445745,-4.664397,-1.610297,6.203431,-0.259948,0.326451,-0.039427,2.320888,188.511663,1518.300460,-916.565673,0
0.028132,-134.916592,-7.704725,189.152084,6.411528,3.174964,3.903593,-6.475596,-2.903713,-3.683464,6.342187,-0.278213,0.330501,-0.050629,2.524468,188.513059,1517.507762,-916.115918,0
0.029174,-78.578392,-66.055491,200.514773,6.637728,0.363144,5.693424,-5.315140,-0.172631,-5.429288,5.257043,-0.256295,0.328149,-0.039427,2.366128,188.510474,1517.644932,-915.440025,0
0.030219,-26.493629,-147.770726,177.112311,6.241878,-2.146903,6.661759,-3.729308,2.426125,-6.541412,3.766305,-0.212459,0.320571,-0.028224,2.366128,188.512579,1517.418163,-915.236004,0
0.031261,20.169418,-190.078052,116.076326,5.088258,-4.220265,6.102188,-1.158394,4.488220,-6.050398,1.286486,-0.128440,0.309597,-0.028224,2.558398,188.511708,1517.267519,-916.029902,0
0.032302,89.426726,-199.742775,55.668182,3.991188,-6.098363,5.161634,1.490878,6.454747,-5.139716,-1.310742,-0.110175,0.298296,-0.050629,2.682808,188.510972,1516.516159,-915.734179,0
0.033341,152.207466,-155.164239,6.253409,3.029838,-6.542147,3.173373,3.722238,6.921567,-3.188254,-3.409871,-0.048074,0.306592,-0.020755,2.739358,188.508625,1516.308023,-914.759302,0
0.034379,202.477428,-91.207933,-43.592235,2.102418,-6.180019,0.649354,5.520758,6.480477,-0.712205,-5.259952,-0.015197,0.313974,-0.065566,2.841148,188.509920,1516.224866,-915.669886,0
0.035417,180.472977,-39.755363,-121.087500,0.654738,-4.806061,-1.707985,6.304346,5.201316,1.612763,-5.989310,-0.011544,0.324752,-0.043161,2.479228,188.509359,1515.793819,-915.743933,0
0.036458,135.091633,7.372244,-188.697349,-0.611982,-3.077076,-3.724025,6.405093,3.459010,3.753076,-6.177876,-0.004238,0.328672,-0.031958,2.298268,188.504035,1515.787878,-916.347929,0
0.037500,79.048338,65.553877,-200.712501,-0.928662,-0.272356,-5.490045,5.218517,0.731604,5.494703,-5.078502,-0.022503,0.327757,-0.028224,2.490538,188.495835,1516.223323,-916.922643,0
0.038542,27.564728,147.099979,-177.765531,-0.521502,2.262543,-6.494097,3.647610,-1.896558,6.564860,-3.605553,-0.040768,0.320702,-0.024490,2.490538,188.495852,1516.695658,-917.749193,0
0.039583,-19.381882,189.890541,-117.074243,0.643428,4.364307,-5.926589,1.031920,-3.921896,6.090634,-1.157754,-0.117481,0.313908,-0.028224,2.332198,188.646636,1516.512757,-918.589337,0
0.040625,-88.832012,200.183472,-56.210606,1.774428,6.256606,-5.053501,-1.613621,-5.881071,5.167361,1.450147,-0.172276,0.296924,-0.058098,2.139928,188.495957,1516.366818,-919.044005,0
0.041667,-152.293302,156.064010,-6.746591,2.713158,6.711041,-3.001743,-3.811398,-6.403027,3.211703,3.652454,-0.208806,0.303195,-0.050629,2.117308,188.481016,1516.710182,-920.058173,0
0.042708,-202.574607,91.551983,43.234470,3.697128,6.327611,-0.505504,-5.658426,-5.925180,0.718867,5.445609,-0.227071,0.307441,-0.061832,2.015518,188.628813,1515.359988,-920.187538,0
0.043750,-180.434046,39.495367,120.988258,5.144808,4.950103,1.887552,-6.456940,-4.664397,-1.614494,6.231893,-0.307437,0.311165,-0.035692,2.366128,188.627483,1515.167621,-920.276503,0
0.044802,-134.394837,-8.429579,188.942804,6.434148,3.164313,3.939310,-6.468134,-2.903713,-3.746414,6.381323,-0.248989,0.328606,-0.080503,2.547088,188.556173,1515.666039,-920.732221,0
0.045843,-78.204089,-66.478323,200.514773,6.660348,0.352493,5.733110,-5.344991,-0.121170,-5.504828,5.228581,-0.234377,0.322988,-0.031958,2.366128,188.480450,1515.581751,-921.729201,0
0.046884,-27.276262,-147.408299,177.444698,6.230568,-2.164654,6.669696,-3.680800,2.407746,-6.554002,3.730727,-0.201500,0.319853,-0.028224,2.309578,188.557659,1515.171844,-922.207666,0
0.047924,19.727060,-190.114294,116.494887,5.122188,-4.223816,6.133937,-1.109886,4.495572,-6.021022,1.318507,-0.179582,0.314431,-0.043161,2.547088,188.633434,1515.058252,-922.242319,0
0.048968,89.472096,-199.585723,56.357576,3.968568,-6.137416,5.161634,1.494610,6.451071,-5.156503,-1.346320,-0.121134,0.299341,-0.031958,2.671498,188.558230,1514.973957,-922.788304,0
0.050006,152.445658,-155.152158,6.745833,3.018528,-6.527946,3.169405,3.722238,6.925243,-3.137894,-3.463239,-0.073645,0.303718,-0.020755,2.694118,188.484671,1514.482492,-923.863884,0
0.051049,202.193866,-90.652212,-43.900000,2.045868,-6.080611,0.613637,5.531952,6.469450,-0.670238,-5.249278,-0.015197,0.309009,-0.061832,2.852458,188.482891,1513.977542,-923.778951,0
0.052091,179.826455,-38.209007,-122.047728,0.620808,-4.756357,-1.711953,6.274495,5.168234,1.671516,-5.985752,0.014027,0.321813,-0.043161,2.479228,188.496653,1513.734833,-923.630669,0
0.053133,133.764560,8.906518,-188.943561,-0.713772,-2.995419,-3.751805,6.341659,3.411226,3.757273,-6.170761,-0.011544,0.309532,-0.061832,2.286958,188.574833,1513.449075,-922.990942,0
0.054174,77.154140,66.616997,-200.589395,-0.962592,-0.204901,-5.466234,5.203591,0.654413,5.461130,-5.003787,-0.022503,0.327365,-0.020755,2.524468,188.490771,1512.199713,-922.345033,0
0.055214,26.577930,147.619458,-177.346970,-0.476262,2.290945,-6.458380,3.572983,-1.878179,6.560663,-3.534396,-0.048074,0.316064,-0.058098,2.501848,188.573042,1511.671958,-921.864369,0
0.056250,-19.529334,189.503952,-117.800569,0.620808,4.311053,-5.882935,1.054308,-3.859408,6.023487,-1.111502,-0.084604,0.312798,-0.058098,2.320888,188.499109,1510.337071,-921.546931,0
0.057292,-88.832012,200.171391,-57.121591,1.763118,6.238854,-4.974129,-1.557651,-5.847989,5.167361,1.443032,-0.157664,0.299733,0.005384,2.128618,188.573859,1510.080168,-921.518669,0
0.058333,-152.157192,156.921754,-7.017424,2.724468,6.661337,-2.946183,-3.792741,-6.307458,3.215899,3.616876,-0.186888,0.306331,-0.054364,2.128618,188.495852,1509.280934,-920.897376,0
0.059375,-202.438497,92.252675,43.406818,3.674508,6.228203,-0.457881,-5.591262,-5.950910,0.744047,5.345989,-0.227071,0.310511,-0.046895,2.026828,188.574480,1509.354536,-919.862041,0
0.060417,-180.910431,39.821552,120.618940,5.133498,4.864897,1.891521,-6.412163,-4.668073,-1.631281,6.153621,-0.281866,0.321747,-0.058098,2.309578,188.494319,1508.679499,-919.666085,0
0.061458,-134.462892,-7.632239,188.635038,6.422838,3.167864,3.923436,-6.449477,-2.900037,-3.759004,6.374207,-0.263601,0.308290,-0.035692,2.558398,188.566820,1508.286391,-920.053409,0
0.062500,-77.965897,-65.185666,200.724054,6.649038,0.402197,5.653738,-5.255438,-0.168955,-5.458665,5.203676,-0.227071,0.340300,-0.028224,2.400058,188.488540,1507.638250,-919.341514,0
0.063542,-26.607054,-146.985467,177.321591,6.253188,-2.111400,6.610167,-3.710651,2.393043,-6.482658,3.737843,-0.194194,0.300321,-0.046895,2.354818,188.641489,1506.995713,-918.360223,0
0.064583,19.602293,-189.292793,117.701326,5.122188,-4.149260,6.082345,-1.150932,4.451463,-6.000038,1.346970,-0.183235,0.296075,-0.061832,2.535778,188.491538,1506.634999,-918.004523,0
0.065625,88.405901,-200.105202,57.305493,4.025118,-6.098363,5.173540,1.479684,6.429016,-5.164896,-1.285837,-0.073645,0.299080,-0.009553,2.750668,188.569036,1506.563474,-917.835084,0
0.066677,152.491028,-155.550828,6.684280,3.007218,-6.499544,3.137656,3.759551,6.844376,-3.150484,-3.449008,-0.037115,0.307964,-0.076769,2.705428,188.489748,1506.041232,-917.230554,0
0.067718,202.443401,-91.606603,-44.158523,2.045868,-6.119664,0.637448,5.498370,6.454747,-0.703812,-5.206584,-0.022503,0.313386,-0.028224,2.807218,188.635841,1506.167953,-916.790373,0
0.068759,179.996592,-39.078832,-122.096970,0.564258,-4.731506,-1.739733,6.285689,5.153531,1.633746,-5.992868,0.032292,0.327888,-0.043161,2.445298,188.490724,1506.166692,-916.846496,0
0.069800,134.286315,8.616577,-188.857387,-0.623292,-2.981218,-3.779586,6.304346,3.429604,3.719502,-6.152971,0.024986,0.327627,-0.024490,2.275648,188.566386,1506.087939,-916.493599,0
0.070843,77.131455,66.786129,-200.577084,-0.872112,-0.201350,-5.505919,5.188666,0.680143,5.461130,-5.018018,-0.007891,0.313516,-0.017021,2.501848,188.495622,1506.461725,-916.207684,0
0.071884,25.749928,147.571135,-177.297728,-0.442332,2.312247,-6.454411,3.591640,-1.867152,6.535483,-3.513049,-0.051727,0.308878,-0.046895,2.501848,188.644933,1506.102843,-915.659490,0
0.072925,-20.414049,190.385858,-115.830872,0.699978,4.389159,-5.914684,0.998338,-3.943950,6.073847,-1.090155,-0.110175,0.322531,-0.076769,2.366128,188.497308,1507.117176,-915.964022,0
0.073967,-89.762097,199.784802,-55.582765,1.797048,6.253055,-4.978098,-1.602427,-5.881071,5.150575,1.478610,-0.172276,0.301823,-0.005818,2.151238,188.496910,1507.317999,-915.808938,0
0.075007,-153.075935,155.423722,-6.204924,2.735778,6.689740,-2.977932,-3.837518,-6.307458,3.211703,3.627549,-0.212459,0.306657,-0.043161,2.094688,188.493646,1507.534026,-915.148067,0
0.076047,-202.654005,92.228513,44.207008,3.663198,6.242405,-0.442007,-5.609919,-5.921504,0.723064,5.402915,-0.245336,0.311230,-0.039427,2.049448,188.646648,1507.652754,-915.741785,0
0.077083,-180.853719,40.775943,121.246781,5.167428,4.882648,1.903427,-6.371118,-4.646019,-1.601904,6.182083,-0.252642,0.322923,-0.050629,2.343508,188.497710,1507.863298,-916.015001,0
0.078125,-135.449689,-7.451026,188.364205,6.434148,3.128811,3.931373,-6.464402,-2.911065,-3.712841,6.335071,-0.259948,0.333506,-0.043161,2.524468,188.572143,1507.518726,-915.639408,0
0.079167,-78.918667,-65.391041,200.625569,6.660348,0.359593,5.677550,-5.315140,-0.128522,-5.425091,5.185886,-0.230724,0.326712,-0.050629,2.377438,188.502142,1506.948520,-916.013755,0
0.080208,-27.038069,-146.707606,177.617046,6.241878,-2.150453,6.669696,-3.662144,2.411422,-6.524625,3.734285,-0.205153,0.316848,-0.043161,2.343508,188.576232,1507.149718,-916.812046,0
0.081250,19.659005,-189.437764,117.208902,5.099568,-4.156360,6.118063,-1.150932,4.469842,-6.008432,1.329180,-0.150358,0.300451,-0.035692,2.524468,188.496518,1507.173343,-916.990253,0
0.082302,89.222561,-199.549480,55.360417,3.968568,-6.098363,5.114011,1.483416,6.406962,-5.101946,-1.324973,-0.084604,0.294703,-0.039427,2.728048,188.576122,1506.416904,-916.253989,0
0.083348,152.649823,-154.221928,5.748674,3.052458,-6.499544,3.113845,3.707312,6.877458,-3.167270,-3.481028,-0.048074,0.303914,-0.024490,2.761978,188.498890,1506.901328,-915.964828,0
0.084388,202.295948,-90.664292,-44.601705,2.057178,-6.066410,0.613637,5.475981,6.436368,-0.712205,-5.213700,-0.007891,0.311295,-0.017021,2.841148,188.578309,1506.827143,-915.444438,0
0.085427,179.860482,-39.006347,-122.392425,0.575568,-4.692452,-1.747671,6.244644,5.124125,1.650533,-5.960848,-0.015197,0.321878,-0.076769,2.433988,188.557830,1506.271731,-915.348165,0
0.086468,134.626590,8.495768,-188.820455,-0.679842,-2.970567,-3.716088,6.259569,3.323008,3.702716,-6.064025,0.028639,0.331415,-0.035692,2.309578,188.557551,1504.339269,-915.599397,0
0.087510,78.367788,66.919019,-200.330872,-0.849492,-0.201350,-5.470202,5.117770,0.636034,5.423360,-4.968208,-0.022503,0.323968,-0.035692,2.535778,188.475822,1503.283931,-916.062406,0
0.088551,26.748068,147.546973,-177.076137,-0.476262,2.294495,-6.375039,3.498355,-1.885530,6.476730,-3.470355,-0.073645,0.316587,-0.020755,2.524468,188.555989,1502.070245,-916.353272,0
0.089592,-20.255254,189.709328,-116.384849,0.654738,4.367858,-5.815469,0.934904,-3.881463,5.939553,-1.061693,-0.132093,0.305416,-0.065566,2.320888,188.633860,1499.940377,-915.676736,0
0.090636,-89.614645,199.724397,-55.225758,1.797048,6.199801,-4.890789,-1.602427,-5.770798,5.058247,1.507073,-0.194194,0.293070,-0.039427,2.151238,188.558090,1498.006266,-914.967327,0
0.091675,-152.281960,155.774068,-5.441667,2.747088,6.569030,-2.906497,-3.807667,-6.233943,3.106785,3.591971,-0.201500,0.298492,-0.058098,2.139928,188.482020,1496.179257,-914.590287,0
0.092718,-202.449840,90.694239,44.490152,3.719748,6.178500,-0.382478,-5.594993,-5.789177,0.693687,5.370894,-0.219765,0.305416,-0.024490,2.060758,188.556858,1494.305956,-913.562768,0
0.093760,-180.400019,38.504733,121.862311,5.212668,4.786790,1.895489,-6.311416,-4.521043,-1.648068,6.071790,-0.285519,0.309858,-0.020755,2.332198,188.561120,1492.226862,-912.423065,0
0.094792,-134.746454,-7.789291,188.462690,6.411528,3.107509,3.867876,-6.341267,-2.877983,-3.675070,6.253240,-0.263601,0.335988,-0.005818,2.513158,188.495188,1490.986659,-911.476837,0
0.095833,-78.884639,-65.306475,200.428599,6.671658,0.402197,5.586272,-5.188274,-0.143225,-5.366338,5.136076,-0.216112,0.324556,-0.043161,2.366128,188.514291,1490.072569,-910.705822,0
0.096875,-27.639222,-147.033791,177.260038,6.298428,-2.065247,6.534764,-3.639755,2.385691,-6.432297,3.645339,-0.197847,0.311034,-0.028224,2.343508,188.510460,1488.304098,-910.256541,0
0.097917,19.727060,-188.821637,118.218372,5.144808,-4.110207,5.947413,-1.139737,4.363245,-5.924498,1.272255,-0.168623,0.311818,-0.031958,2.547088,188.509153,1486.504002,-909.599774,0
0.098958,88.326503,-199.815260,56.862311,3.979878,-6.009606,5.042576,1.490878,6.333447,-5.051586,-1.292953,-0.121134,0.295291,-0.024490,2.761978,188.509540,1485.239211,-909.451111,0
0.100000,151.379463,-156.746837,6.351894,3.007218,-6.403687,3.113845,3.632685,6.778213,-3.150484,-3.374293,-0.073645,0.300909,0.009119,2.728048,188.511037,1483.993065,-908.793482,0
0.101042,201.694796,-91.401228,-43.259849,2.045868,-6.045108,0.617605,5.457325,6.384907,-0.653452,-5.181679,-0.029809,0.305351,-0.031958,2.841148,188.644584,1482.237714,-909.369749,0
0.102083,180.586402,-38.716405,-120.447349,0.620808,-4.681802,-1.668299,6.177479,5.109422,1.595976,-5.893248,-0.007891,0.311099,-0.039427,2.445298,188.481469,1481.205764,-908.464845,0
0.103125,134.274973,8.664900,-188.217235,-0.679842,-2.995419,-3.688308,6.285689,3.341386,3.669142,-6.085372,0.006721,0.319853,-0.054364,2.332198,188.483131,1481.304224,-907.834288,0
0.104166,77.664553,65.698848,-200.663258,-0.894732,-0.222652,-5.398768,5.106576,0.676468,5.402376,-4.943303,-0.026156,0.311883,-0.035692,2.467918,188.513106,1480.812155,-907.265166,0
0.105214,26.555245,147.365759,-177.211554,-0.498882,2.276744,-6.398851,3.546863,-1.889206,6.464139,-3.481028,-0.037115,0.310315,-0.020755,2.524468,188.583153,1480.790745,-907.149105,0
0.106262,-20.674927,190.071755,-116.286364,0.609498,4.357207,-5.843249,0.964755,-3.921896,5.926963,-1.029672,-0.102869,0.309597,-0.024490,2.309578,188.500852,1480.725551,-907.681308,0
0.107305,-90.601442,199.289485,-55.644318,1.808358,6.210452,-4.851103,-1.665861,-5.796528,5.058247,1.535536,-0.168623,0.296336,-0.039427,2.094688,188.499093,1480.951757,-908.097398,0
0.108345,-152.985195,155.230428,-5.712500,2.769708,6.586782,-2.910466,-3.830055,-6.244970,3.144555,3.641781,-0.186888,0.301301,-0.061832,2.105998,188.491047,1481.545374,-908.415228,0
0.109384,-202.381785,91.334526,44.625568,3.697128,6.157198,-0.374541,-5.580068,-5.870043,0.651720,5.328200,-0.267254,0.307376,-0.046895,2.060758,188.572487,1482.005835,-908.697462,0
0.110426,-180.331964,38.589300,122.108523,5.156118,4.765489,1.927238,-6.318879,-4.506340,-1.673248,6.103811,-0.278213,0.317501,-0.020755,2.309578,188.495550,1482.091382,-909.273970,0
0.111468,-134.247384,-8.949058,188.425758,6.422838,3.093308,3.883750,-6.326342,-2.730953,-3.696054,6.271030,-0.238030,0.311230,-0.065566,2.535778,188.492964,1481.136585,-909.993544,0
