1-Time,2-VGERA,3-VGERB,4-VGERC,5-VN,6-IGERAN,7-IGERBN,8-IGERCN,9-IGERAT,10-IGERBT,11-IGERCT,12-IN,13-IFD,14-IFAULT,15-VFAULT,16-Speed (rad/s),17-Active Power,18-Reactive Power,19-FAULT 
0.000000,-98.348370,-97.345032,182.799811,6.388908,5.660159,0.700946,-6.128579,-5.682580,-0.405847,5.844088,-0.252642,0.593499,-0.013287,-8.955181,188.269554,1657.206128,844.110463,0
0.001051,-15.911076,-143.916917,186.813069,6.490698,4.037682,3.097970,-6.673359,-4.109359,-2.890289,6.463153,-0.281866,0.606042,-0.035692,80.755737,188.420227,1655.145041,845.558562,0
0.002084,53.527712,-172.307042,143.713637,5.619828,1.673196,5.010828,-6.042758,-1.789961,-4.803981,5.897456,-0.219765,0.589449,-0.061832,146.172775,188.286344,1652.532518,846.476557,0
0.003125,104.931924,-199.247458,59.496780,4.047738,-1.003713,6.499047,-4.792749,0.959500,-6.415511,4.677114,-0.219765,0.587097,-0.017021,198.888684,188.253782,1650.805501,847.095569,0
0.004167,153.704676,-166.906878,-8.827083,2.769708,-3.201336,6.717319,-2.785272,3.128193,-6.684099,2.802129,-0.150358,0.585726,-0.054364,215.842374,188.269422,1648.927153,848.310195,0
0.005209,183.388000,-118.994012,-75.168940,1.469058,-5.207243,6.034722,-0.177044,5.208667,-6.025218,0.251153,-0.135746,0.581610,-0.028224,210.560604,188.419337,1646.661981,849.647286,0
0.006250,185.146087,-34.886759,-127.636743,0.473778,-6.201321,4.443320,2.218495,6.234202,-4.472442,-2.015195,-0.033462,0.571485,-0.013287,166.892695,188.420759,1644.917248,850.883299,0
0.007292,160.249299,37.224157,-168.471023,-0.250062,-6.513745,2.324096,4.360302,6.561344,-2.348915,-4.174808,-0.048074,0.563842,-0.035692,101.679236,188.270020,1642.965555,852.148000,0
0.008333,97.082914,98.305208,-182.652841,-0.555432,-5.551620,-0.445975,5.931209,5.609324,0.303394,-5.640641,0.021333,0.602122,-0.046895,13.789228,188.269843,1640.237532,853.785201,0
0.009375,16.006720,143.451546,-187.293940,-0.668532,-3.950444,-2.858874,6.483451,4.065509,2.846590,-6.245475,0.028639,0.577691,-0.050629,-73.354320,188.420627,1637.917993,855.061852,0
0.010417,-53.987851,172.675253,-143.726705,0.157098,-1.600160,-4.847135,5.871507,1.724056,4.772872,-5.758050,0.014027,0.576449,-0.005818,-140.196418,188.345276,1636.090957,856.537428,0
0.011467,-105.834420,198.854572,-58.968182,1.763118,1.140655,-6.347259,4.554333,-1.043784,6.405386,-4.551940,0.006721,0.591017,-0.054364,-194.382627,188.269926,1634.550749,857.220268,0
0.012500,-154.380322,166.864338,8.026136,3.063768,3.288573,-6.537751,2.625215,-3.157340,6.627810,-2.684071,-0.029809,0.589384,-0.050629,-212.750067,188.209707,1633.355667,858.060750,0
0.013542,-183.553234,120.099159,74.958902,4.341798,5.347734,-5.878966,0.005793,-5.241490,5.985717,-0.190020,-0.077298,0.585856,-0.028224,-207.072447,188.405893,1631.312626,859.342895,0
0.014594,-185.073129,36.016067,129.113258,5.337078,6.302759,-4.235973,-2.408403,-6.255997,4.470710,2.147485,-0.154011,0.565279,-0.017021,-162.669388,188.417219,1629.547433,860.405555,0
0.015631,-161.129110,-36.179415,168.667235,6.072228,6.604533,-2.120717,-4.546478,-6.605193,2.363971,4.310656,-0.216112,0.595328,-0.024490,-98.134529,188.269496,1628.091821,860.598190,0
0.016667,-99.187715,-97.345032,182.208902,6.377598,5.699212,0.617605,-6.098728,-5.752419,-0.334503,5.762258,-0.263601,0.598921,-0.039427,-12.653551,188.194107,1627.197308,861.750102,0
0.017708,-18.440454,-143.022930,187.207008,6.468078,4.165492,2.986850,-6.613657,-4.157144,-2.772781,6.448922,-0.241683,0.585530,-0.028224,77.962167,188.420347,1626.637156,861.914047,0
0.018750,52.688367,-172.053343,144.476894,5.642448,1.776155,4.947330,-6.061414,-1.867152,-4.770407,5.886782,-0.227071,0.606760,-0.031958,145.392385,188.344883,1626.237126,862.292374,0
0.019792,105.170116,-198.522603,61.380303,4.081668,-0.879454,6.447455,-4.818868,0.841876,-6.369347,4.737598,-0.168623,0.598007,0.020321,198.741654,188.269516,1625.418218,863.474343,0
0.020833,153.999581,-166.955201,-7.374432,2.758398,-3.062875,6.705413,-2.878556,2.973811,-6.646329,2.873286,-0.154011,0.595786,-0.028224,217.425774,188.194058,1623.799084,864.601397,0
0.021875,183.512767,-120.262507,-74.701137,1.480368,-5.107835,6.006942,-0.244209,5.098395,-6.000038,0.336541,-0.146705,0.582394,-0.024490,211.431474,188.420291,1622.479752,865.105959,0
0.022926,184.817155,-35.273348,-128.633902,0.451158,-6.130315,4.463163,2.143868,6.142308,-4.480835,-1.919134,-0.091910,0.583178,-0.005818,166.508155,188.420359,1620.763480,865.952366,0
0.023959,160.351381,35.508669,-168.951137,-0.306612,-6.456941,2.379657,4.237167,6.484153,-2.491603,-4.046726,-0.018850,0.594283,-0.028224,102.301286,188.271301,1618.800320,867.121062,0
0.025000,99.045166,98.111914,-181.901894,-0.589362,-5.555170,-0.346761,5.789417,5.646082,0.227854,-5.519675,0.006721,0.588273,-0.043161,14.422588,188.269512,1617.563696,867.653146,0
0.026042,16.891435,143.330737,-187.207766,-0.668532,-4.021450,-2.696162,6.420018,4.072861,2.691313,-6.213455,0.046904,0.588535,-0.039427,-73.128120,188.420292,1615.919988,868.355412,0
0.027084,-54.294098,171.358435,-144.600758,0.123168,-1.692467,-4.684423,5.826730,1.867411,4.609201,-5.736703,0.024986,0.573771,-0.028224,-141.825058,188.476175,1613.344224,869.913037,0
0.028125,-105.675625,198.770006,-59.731440,1.695258,0.966691,-6.220265,4.636423,-0.867348,6.266895,-4.573287,-0.000585,0.585726,-0.020755,-192.697437,188.269496,1610.768064,871.294373,0
0.029167,-153.450237,167.190523,9.035606,3.063768,3.079107,-6.466317,2.714768,-2.995607,6.527090,-2.773017,-0.033462,0.587816,-0.002084,-211.698237,188.194199,1607.894884,872.728916,0
0.030208,-183.575919,119.156848,75.217424,4.353108,5.170220,-5.795626,0.132660,-5.079757,5.977323,-0.243388,-0.077298,0.574751,-0.058098,-205.670007,188.420654,1605.361142,873.777914,0
0.031250,-185.322664,35.822773,127.340531,5.280528,6.160748,-4.339156,-2.177058,-6.075885,4.550448,1.937572,-0.157664,0.543199,-0.054364,-160.848478,188.420359,1601.593163,875.358262,0
0.032292,-159.745325,-36.010283,169.307387,6.117468,6.561930,-2.291367,-4.348716,-6.524327,2.515052,4.122090,-0.172276,0.563776,-0.020755,-97.897019,188.269684,1598.139299,877.585854,0
0.033342,-97.735875,-99.108844,181.531819,6.388908,5.656609,0.474736,-5.930816,-5.623768,-0.196012,5.591481,-0.230724,0.568414,-0.020755,-8.762911,188.194208,1593.770412,878.582108,0
0.034375,-16.648339,-143.204144,187.145455,6.513318,4.183243,2.800326,-6.572612,-4.204929,-2.655274,6.313724,-0.241683,0.588273,-0.009553,77.928237,188.436682,1590.813210,879.977146,0
0.035417,54.299002,-170.494906,145.412500,5.676378,1.903965,4.812398,-6.053952,-1.992127,-4.573163,5.876109,-0.256295,0.576711,-0.028224,145.358455,188.420491,1587.795119,881.934881,0
0.036459,105.612474,-198.160176,61.134091,4.126908,-0.737442,6.391895,-4.852451,0.720577,-6.205676,4.748271,-0.216112,0.593499,-0.009553,199.171434,188.251393,1584.886702,883.091655,0
0.037500,153.114866,-167.233062,-7.448295,2.814948,-2.849858,6.645884,-2.941989,2.848836,-6.537215,3.033389,-0.168623,0.594610,-0.020755,215.276874,188.264970,1582.447724,884.775777,0
0.038542,183.376657,-119.984646,-74.344129,1.559538,-4.965824,6.010911,-0.438240,4.936662,-6.004235,0.503760,-0.135746,0.583570,-0.028224,211.680294,188.420728,1579.701878,886.783064,0
0.039584,185.066690,-37.629124,-127.710606,0.462468,-5.988304,4.582221,1.934911,6.013657,-4.577359,-1.694989,-0.066339,0.579193,-0.002084,168.215965,188.420681,1577.293604,888.377365,0
0.040625,159.874996,34.167689,-169.726705,-0.306612,-6.378835,2.498714,4.072986,6.421665,-2.554553,-3.865276,-0.000585,0.598595,-0.024490,103.240016,188.269901,1574.822521,889.223402,0
0.041667,100.610431,98.111914,-180.793940,-0.544122,-5.555170,-0.199923,5.692401,5.657109,0.093560,-5.423613,-0.007891,0.597223,-0.028224,16.333978,188.194515,1573.113178,890.203023,0
0.042718,17.708095,144.091834,-186.407576,-0.668532,-4.060503,-2.600916,6.330465,4.113294,2.565412,-6.138740,0.043251,0.599509,-0.061832,-73.727550,188.345299,1571.197980,891.229109,0
0.043752,-53.364013,171.056412,-145.425569,0.100548,-1.763473,-4.573302,5.852850,1.918871,4.508481,-5.701125,0.035945,0.595590,-0.020755,-140.049388,188.420707,1569.923052,891.264585,0
0.044792,-106.152010,197.839776,-61.799621,1.661328,0.821130,-6.128987,4.696125,-0.753399,6.203945,-4.655118,-0.004238,0.594544,-0.054364,-193.828437,188.285272,1569.028931,892.653020,0
0.045833,-153.756485,167.492545,7.312121,2.973288,2.997450,-6.390914,2.770738,-2.866956,6.447353,-2.844174,-0.011544,0.592977,-0.024490,-211.709547,188.270002,1567.408773,893.298922,0
0.046875,-183.485179,120.546152,74.675758,4.285248,5.067262,-5.847218,0.229675,-4.995215,5.939553,-0.382144,-0.066339,0.579062,-0.035692,-206.959347,188.345362,1566.045625,894.143058,0
0.047917,-185.231924,37.731555,127.660606,5.235288,6.086192,-4.370905,-2.065117,-6.097940,4.554644,1.848626,-0.150358,0.605258,-0.050629,-163.280128,188.481825,1566.114119,894.545882,0
0.048958,-159.994860,-34.584736,169.467425,6.083538,6.473173,-2.323115,-4.225580,-6.502272,2.578002,4.011797,-0.216112,0.593957,0.016587,-97.704749,188.269378,1564.953054,895.123960,0
0.050000,-100.140485,-98.323586,180.682387,6.321048,5.592704,0.363616,-5.826338,-5.700959,-0.099488,5.513208,-0.241683,0.591082,-0.020755,-12.178531,188.269503,1564.473504,895.962177,0
0.051042,-17.396944,-142.998769,187.083902,6.490698,4.204545,2.728892,-6.460671,-4.186550,-2.499996,6.267472,-0.227071,0.600489,0.005384,78.505047,188.344869,1562.603752,896.329145,0
0.052083,54.525852,-170.229126,145.707955,5.687688,1.921716,4.681435,-5.990518,-2.025209,-4.480835,5.854762,-0.248989,0.586052,-0.024490,146.082295,188.420184,1561.277977,896.773844,0
0.053135,106.508531,-197.894396,59.201326,3.991188,-0.709040,6.280774,-4.837525,0.742631,-6.172103,4.730482,-0.190541,0.586052,-0.028224,199.227984,188.344892,1560.321219,897.109183,0
0.054167,152.661166,-167.426356,-8.470076,2.758398,-2.793054,6.582387,-3.031542,2.712833,-6.499445,3.068968,-0.183235,0.586183,-0.031958,216.373944,188.269492,1558.379544,898.308786,0
0.055209,182.775505,-119.332278,-74.959659,1.514298,-4.909019,5.999005,-0.483016,4.837417,-5.945481,0.582033,-0.128440,0.577233,-0.039427,211.273134,188.359865,1556.005330,898.959459,0
0.056250,185.021320,-36.312305,-127.156629,0.530328,-5.917298,4.574283,1.811776,5.947493,-4.606736,-1.666527,-0.059033,0.595720,-0.039427,167.650465,188.420267,1554.641376,899.515931,0
0.057292,158.865514,35.375779,-169.431251,-0.306612,-6.346882,2.570149,3.990896,6.414313,-2.613307,-3.765656,0.003068,0.560837,-0.024490,102.516176,188.344932,1552.724024,901.000677,0
0.058333,99.737059,98.921334,-180.129167,-0.521502,-5.523218,-0.084834,5.558072,5.646082,-0.011358,-5.299088,0.010374,0.570244,-0.039427,15.915508,188.332251,1550.019135,902.322293,0
0.059375,16.778010,143.451546,-186.690720,-0.657222,-4.113757,-2.458047,6.289420,4.161079,2.426921,-6.039120,0.021333,0.582198,0.001650,-71.623890,188.420777,1547.472686,903.455988,0
0.060417,-54.940621,169.787917,-146.373485,0.134478,-1.919685,-4.426465,5.826730,2.018116,4.399367,-5.718914,0.043251,0.587359,-0.031958,-141.044668,188.420652,1545.877411,905.177826,0
0.061458,-106.685108,197.429025,-61.935038,1.695258,0.700420,-6.045647,4.737170,-0.632100,6.103224,-4.690696,-0.004238,0.591736,-0.024490,-192.946257,188.420647,1543.914215,906.650091,0
0.062500,-153.053250,167.842892,7.385985,3.029838,2.791534,-6.402819,2.953575,-2.749332,6.472533,-2.954467,-0.037115,0.595851,0.005384,-211.132737,188.269839,1542.983228,908.584771,0
0.063550,-183.417124,119.676327,75.623674,4.341798,4.978505,-5.863092,0.401318,-4.921700,5.985717,-0.446185,-0.102869,0.584223,0.009119,-206.280747,188.420716,1541.782500,910.321262,0
0.064584,-185.458774,38.673866,127.635985,5.325768,5.986784,-4.470119,-1.893474,-5.987667,4.714119,1.706312,-0.154011,0.590821,0.001650,-162.194368,188.420792,1540.155413,912.763384,0
0.065625,-159.473105,-32.893409,170.341478,6.106158,6.487374,-2.450110,-4.113639,-6.469191,2.729083,3.865925,-0.190541,0.579846,-0.028224,-99.503039,188.285346,1538.268176,914.592134,0
0.066667,-102.170793,-98.130291,179.611364,6.332358,5.688561,0.188998,-5.729322,-5.756095,0.080970,5.417146,-0.190541,0.601600,0.009119,-12.766651,188.272171,1536.740841,916.335735,0
0.067709,-19.200402,-143.421600,186.456061,6.456768,4.282651,2.593960,-6.453208,-4.333580,-2.416062,6.235451,-0.263601,0.603429,-0.028224,76.785927,188.420238,1536.145971,918.079368,0
0.068750,53.595767,-169.383463,147.111364,5.676378,2.067277,4.578252,-6.012907,-2.183266,-4.363328,5.868993,-0.223418,0.597027,0.001650,145.109635,188.479889,1534.860717,919.587292,0
0.069792,106.667326,-196.976248,62.746780,4.070358,-0.549278,6.213309,-4.942003,0.492680,-6.067185,4.822986,-0.219765,0.593826,-0.013287,199.635144,188.419891,1533.020940,921.839855,0
0.070833,152.978756,-167.885431,-7.091288,2.803638,-2.672344,6.578418,-3.087513,2.587858,-6.512035,3.200608,-0.190541,0.595002,-0.035692,214.620894,188.269068,1532.386505,923.879253,0
0.071875,183.093095,-120.298750,-74.516478,1.469058,-4.795411,6.022817,-0.594957,4.749199,-5.979055,0.699442,-0.117481,0.585464,-0.020755,211.544574,188.419849,1531.548922,925.401476,0
0.072917,185.282197,-38.112360,-127.427463,0.496398,-5.828541,4.637781,1.703566,5.910736,-4.661293,-1.542002,-0.080951,0.595132,-0.039427,167.808805,188.495284,1530.904206,926.586604,0
0.073967,158.831486,35.919420,-169.677463,-0.329232,-6.353983,2.609834,3.953583,6.329771,-2.646881,-3.765656,-0.004238,0.595394,-0.035692,100.864916,188.392269,1530.007412,926.664888,0
0.075000,100.984734,98.993820,-179.833713,-0.532812,-5.558720,0.010412,5.505832,5.690191,-0.070111,-5.252836,-0.011544,0.584484,-0.035692,15.316078,188.337581,1529.720989,927.462536,0
0.076042,17.503930,143.536113,-186.653788,-0.691152,-4.138609,-2.402487,6.252106,4.208863,2.342987,-6.042678,0.024986,0.590429,-0.046895,-73.320390,188.434797,1529.240029,928.441266,0
0.077083,-55.190156,169.727513,-146.459660,0.100548,-1.916135,-4.378842,5.822999,2.139416,4.328023,-5.704683,0.014027,0.554762,-0.050629,-140.886328,188.447870,1527.943471,929.981089,0
0.078125,-107.048068,197.211569,-61.319508,1.695258,0.657817,-6.065490,4.774484,-0.580639,6.094831,-4.680023,0.006721,0.588208,-0.046895,-193.918917,188.357139,1527.181567,930.592033,0
0.079167,-153.041907,168.024105,8.764773,3.063768,2.798635,-6.363134,2.912530,-2.679492,6.468336,-3.007835,-0.055380,0.591148,-0.020755,-211.166667,188.403309,1526.252388,932.077554,0
0.080208,-182.793286,119.700489,75.402084,4.341798,4.911050,-5.886904,0.405050,-4.837158,6.023487,-0.531573,-0.073645,0.582851,-0.039427,-206.767077,188.419866,1524.985252,933.259621,0
0.081250,-185.458774,36.873811,127.685228,5.280528,5.969033,-4.466151,-1.912131,-5.983992,4.659562,1.684965,-0.146705,0.573836,-0.035692,-163.483708,188.495597,1524.083577,933.327022,0
0.082292,-159.178200,-34.753869,169.861364,6.140088,6.505125,-2.525513,-4.102445,-6.432433,2.708099,3.848136,-0.223418,0.563058,-0.024490,-97.817849,188.495671,1523.043765,933.459576,0
0.083333,-100.571500,-99.084683,179.820644,6.332358,5.685011,0.129470,-5.710666,-5.741392,0.118740,5.442051,-0.227071,0.586510,-0.054364,-13.388701,188.344887,1522.509265,934.396318,0
0.084384,-16.591626,-143.892755,186.259091,6.445458,4.279101,2.625709,-6.464402,-4.245362,-2.395079,6.249683,-0.245336,0.587620,-0.017021,78.686007,188.495671,1521.618927,934.527212,0
0.085417,55.047607,-169.371382,146.815910,5.744238,2.085029,4.558409,-6.057683,-2.212672,-4.350738,5.872551,-0.256295,0.584615,-0.046895,145.799545,188.495609,1521.118276,935.499536,0
0.086459,106.894176,-196.831277,62.599053,4.149528,-0.535077,6.233151,-5.027825,0.437544,-6.104955,4.844333,-0.186888,0.600032,-0.050629,198.673794,188.359932,1521.176139,936.417053,0
0.087500,152.944728,-167.764622,-7.177462,2.814948,-2.640392,6.578418,-3.169603,2.569479,-6.482658,3.175703,-0.186888,0.602122,-0.058098,216.656694,188.269120,1520.622227,936.071349,0
0.088542,182.662080,-120.443721,-74.602652,1.502988,-4.806061,6.062502,-0.665853,4.774929,-6.008432,0.745694,-0.143052,0.593042,-0.020755,212.155314,188.480615,1520.842529,936.707475,0
0.089583,184.919237,-38.728486,-127.624432,0.530328,-5.867595,4.689372,1.681178,5.888681,-4.715850,-1.502866,-0.080951,0.592846,-0.046895,168.815395,188.495085,1520.487989,937.446945,0
0.090625,158.899541,32.887113,-170.317614,-0.340542,-6.339782,2.705080,3.886418,6.359177,-2.764388,-3.655363,-0.022503,0.598725,-0.017021,103.794206,188.495354,1520.039066,938.587577,0
0.091667,102.209724,98.643473,-179.464394,-0.521502,-5.611975,0.046129,5.490907,5.671812,-0.187619,-5.259952,0.010374,0.599509,-0.035692,17.363188,188.419961,1519.623913,939.172579,0
0.092708,19.148593,143.656922,-186.333713,-0.657222,-4.191863,-2.366770,6.244644,4.227242,2.338790,-6.046236,0.039598,0.601338,-0.069301,-70.956600,188.495231,1519.986138,938.976148,0
0.093750,-54.339468,169.292600,-147.284470,0.089238,-1.980040,-4.355030,5.837924,2.121037,4.315433,-5.733145,-0.000585,0.601861,-0.058098,-141.248248,188.495253,1520.425486,938.508976,0
0.094801,-107.683248,197.078679,-61.073296,1.695258,0.611663,-6.033741,4.755827,-0.562260,6.052864,-4.715601,-0.000585,0.596047,-0.058098,-193.647477,188.495146,1519.858305,939.287724,0
0.095835,-153.212045,168.036186,7.373674,2.995908,2.738280,-6.355196,3.017009,-2.664789,6.480926,-3.029182,-0.037115,0.597027,-0.039427,-210.736887,188.495247,1520.132932,939.301996,0
0.096875,-183.133561,120.606557,74.638826,4.307868,4.893299,-5.871029,0.438632,-4.800400,5.968930,-0.592057,-0.102869,0.582525,-0.024490,-206.846247,188.436174,1519.526886,939.178763,0
0.097917,-185.719651,38.468491,127.475947,5.280528,5.969033,-4.501868,-1.818847,-6.013398,4.705725,1.588903,-0.168623,0.593434,-0.017021,-161.493148,188.495665,1519.742919,940.105632,0
0.098958,-159.098803,-33.521616,170.378410,6.117468,6.462522,-2.485827,-4.053937,-6.421406,2.724886,3.787653,-0.150358,0.575404,-0.020755,-98.157149,188.551935,1519.246090,940.199340,0
0.100000,-101.728435,-98.903469,179.439016,6.309738,5.709863,0.085815,-5.654695,-5.778150,0.173297,5.395799,-0.230724,0.591670,-0.024490,-11.341591,188.495202,1518.884477,940.780417,0
0.101042,-17.589766,-143.482005,186.665341,6.456768,4.332355,2.514588,-6.453208,-4.296822,-2.323735,6.185641,-0.259948,0.577691,-0.039427,78.109197,188.496063,1517.961232,941.164178,0
0.102083,55.251772,-168.972712,147.234470,5.698998,2.148934,4.518723,-6.031563,-2.208996,-4.287787,5.868993,-0.219765,0.582655,-0.039427,145.901335,188.496219,1517.238722,941.194584,0
0.103125,107.189081,-196.843358,61.725000,4.104288,-0.478272,6.197434,-5.001705,0.422841,-6.100759,4.904816,-0.245336,0.590168,-0.043161,199.861344,188.496105,1517.108518,942.309269,0
0.104167,152.343576,-168.139130,-8.507008,2.769708,-2.583587,6.606198,-3.225573,2.587858,-6.503641,3.211281,-0.172276,0.589580,-0.031958,214.179804,188.646904,1517.304360,942.973477,0
0.105217,182.752820,-118.510776,-76.473864,1.502988,-4.830913,6.102188,-0.591226,4.749199,-6.016825,0.692326,-0.113828,0.580892,-0.020755,210.583224,188.496223,1516.510008,943.524429,0
0.106250,185.191457,-36.807622,-127.365909,0.496398,-5.864044,4.733027,1.677447,5.914411,-4.711653,-1.442382,-0.077298,0.561163,-0.017021,167.718325,188.496177,1515.793188,944.528650,0
0.107292,158.400471,34.614682,-169.997538,-0.329232,-6.357533,2.701112,3.890149,6.403286,-2.730814,-3.651805,-0.022503,0.572791,-0.046895,102.357836,188.511971,1515.665933,945.014486,0
0.108333,100.701171,99.368328,-179.550569,-0.521502,-5.665229,0.081847,5.580460,5.668136,-0.124668,-5.256394,0.006721,0.579977,-0.013287,16.153018,188.646922,1515.459191,944.908966,0
0.109375,17.243053,143.681083,-186.506061,-0.611982,-4.181212,-2.374707,6.308077,4.252972,2.359774,-6.042678,0.061516,0.589318,-0.054364,-72.438210,188.559650,1515.224626,945.625469,0
0.110417,-55.314923,169.751674,-146.755114,0.145788,-1.990691,-4.422496,5.912552,2.143092,4.353203,-5.754492,0.014027,0.597680,-0.061832,-140.524408,188.495693,1515.574917,946.500087,0
