1-Time,2-VGERA,3-VGERB,4-VGERC,5-VN,6-IGERAN,7-IGERBN,8-IGERCN,9-IGERAT,10-IGERBT,11-IGERCT,12-IN,13-IFD,14-IFAULT,15-VFAULT,16-Speed (rad/s),17-Active Power,18-Reactive Power,19-FAULT 
0.000000,-86.933224,-46.629098,200.616963,4.187468,-0.728172,5.833985,-4.095515,1.263048,-5.820922,3.879664,0.124775,0.215953,0.011294,140.409035,188.495640,1022.144500,-1304.753534,0
0.001042,-39.699536,-126.636107,175.001239,3.692059,-3.014254,6.222358,-2.135388,3.621548,-6.196219,2.021437,0.051852,0.206100,-0.055607,134.003048,188.495783,1022.838911,-1305.329518,0
0.002083,2.573484,-180.580938,121.874130,2.701241,-4.647169,5.286175,0.288673,5.235658,-5.122093,-0.484123,0.008098,0.206100,-0.018440,98.741975,188.495620,1023.098929,-1305.734007,0
0.003125,67.830553,-191.421583,65.332402,1.564051,-5.832409,3.691804,2.944702,6.530744,-3.607962,-3.096302,-0.035656,0.191080,-0.007290,55.115968,188.485373,1023.309246,-1305.980256,0
0.004167,143.212355,-157.901324,20.808677,0.708344,-5.832409,1.647737,4.711522,6.435796,-1.472650,-4.832678,-0.090349,0.192803,-0.022156,20.890661,188.570159,1022.959194,-1305.585793,0
0.005208,192.242731,-95.135990,-26.181838,-0.192400,-4.599466,-0.854200,5.894556,5.239456,1.072469,-6.005493,-0.072118,0.202586,-0.003573,-8.043234,188.494898,1023.141018,-1305.672127,0
0.006250,184.174584,-48.825415,-101.983966,-1.678627,-3.120668,-3.041350,6.292767,3.682314,3.151702,-6.218732,-0.086703,0.210303,-0.011006,-60.597093,188.495595,1023.025614,-1305.100503,0
0.007292,140.104876,-5.862168,-173.484402,-3.086040,-1.054755,-4.672515,5.693518,1.547891,4.760735,-5.700866,-0.097641,0.222292,-0.037023,-117.597990,188.494990,1023.144764,-1305.305773,0
0.008333,86.791828,46.802457,-200.485417,-3.603968,1.594604,-5.788575,4.085209,-1.148622,5.808979,-3.888333,-0.035656,0.215746,0.015011,-140.351065,188.570318,1022.687889,-1305.558304,0
0.009375,39.625940,126.339665,-174.857541,-3.131077,3.888025,-6.123802,2.117351,-3.503323,6.218786,-2.052953,-0.053887,0.201139,0.018727,-134.800710,188.495595,1022.805921,-1305.937680,0
0.010417,-2.556682,180.730807,-121.414489,-2.106481,5.528279,-5.224413,-0.306711,-5.117433,5.054071,0.502108,0.029975,0.193078,-0.003573,-100.755537,188.494875,1022.163949,-1306.286574,0
0.011458,-67.237454,191.207356,-64.435300,-1.025588,6.731866,-3.609601,-2.985936,-6.427710,3.557196,3.102864,0.059144,0.182536,-0.011006,-53.943423,188.494750,1021.505194,-1305.888516,0
0.012500,-143.037353,157.910252,-20.130305,-0.147362,6.761222,-1.618680,-4.845543,-6.336561,1.503845,4.846856,0.128422,0.189289,-0.025873,-19.830699,188.495658,1021.843339,-1305.667060,0
0.013542,-191.819131,94.311023,26.459204,0.809678,5.502593,0.960931,-5.962854,-5.178199,-1.088726,6.031095,0.146652,0.199004,-0.037023,8.033654,188.494931,1021.184968,-1305.952687,0
0.014583,-184.248181,47.918233,102.273484,2.262128,4.012787,3.094936,-6.376529,-3.571685,-3.133448,6.229103,0.124775,0.208305,-0.029590,61.296788,188.494864,1021.361746,-1305.892618,0
0.015625,-139.636076,5.213376,173.470128,3.669540,1.884493,4.713837,-5.746351,-1.467646,-4.746795,5.638887,0.132068,0.197694,-0.007290,117.847352,188.495014,1020.809799,-1305.455998,0
0.016667,-86.255229,-46.770038,201.054423,4.153690,-0.698816,5.821721,-4.052987,1.282038,-5.730333,3.856817,0.095606,0.184328,0.007577,142.705733,188.493456,1020.230074,-1304.548185,0
0.017708,-38.998941,-126.131072,174.989087,3.647022,-2.995906,6.165124,-2.116058,3.663325,-6.144454,2.002398,0.048206,0.176680,-0.029590,135.556697,188.494938,1019.456776,-1304.395811,0
0.018750,2.844683,-181.062484,121.704007,2.644944,-4.606805,5.298440,0.269342,5.190083,-5.078955,-0.499354,0.004452,0.187704,-0.003573,98.798267,188.494031,1019.072618,-1303.811106,0
0.019792,67.491555,-191.221918,65.065065,1.586570,-5.832409,3.704068,2.967899,6.538339,-3.612276,-3.096302,-0.017425,0.185292,-0.025873,55.622592,188.495656,1019.031934,-1303.755777,0
0.020833,143.201055,-158.100989,20.638553,0.708344,-5.821400,1.668178,4.730852,6.485169,-1.476964,-4.828870,-0.093995,0.195490,-0.014723,20.890661,188.495142,1019.570762,-1304.053440,0
0.021875,191.971533,-95.182970,-26.266899,-0.226178,-4.665516,-0.841935,5.913887,5.292626,1.033645,-6.035956,-0.097641,0.205205,-0.018440,-7.863100,188.569771,1020.457356,-1304.172339,0
0.022917,184.377983,-49.036825,-102.141938,-1.701146,-3.150024,-3.029086,6.296634,3.682314,3.168957,-6.214924,-0.130457,0.212990,-0.022156,-59.887818,188.495066,1020.431456,-1304.456852,0
0.023958,139.980576,-6.120559,-173.520857,-3.074780,-1.051086,-4.680692,5.728313,1.570679,4.773676,-5.693250,-0.108580,0.218778,-0.033307,-118.341040,188.494587,1020.500590,-1304.449049,0
0.025000,87.311624,46.825947,-200.631237,-3.592708,1.554240,-5.780399,4.058146,-1.125834,5.770155,-3.895949,-0.057533,0.213541,-0.029590,-139.529207,188.494442,1020.570531,-1304.123680,0
0.026042,40.270035,126.633291,-174.590204,-3.153596,3.880686,-6.176948,2.136681,-3.488131,6.201531,-2.033914,-0.028364,0.203275,-0.022156,-134.361636,188.495678,1020.209054,-1304.031636,0
0.027083,-2.579281,180.683827,-121.548157,-2.083962,5.528279,-5.273471,-0.326041,-5.090848,5.136032,0.464030,0.019036,0.201622,-0.037023,-98.942947,188.495638,1021.327114,-1303.823110,0
0.028125,-67.700751,191.113396,-64.884912,-1.003069,6.768561,-3.634130,-3.028464,-6.450498,3.583078,3.152366,0.117483,0.190667,-0.014723,-54.247398,188.495772,1021.549712,-1304.609790,0
0.029167,-142.901754,157.781057,-20.409794,-0.147362,6.753883,-1.630945,-4.791417,-6.378338,1.486590,4.850664,0.110191,0.191700,0.015011,-20.753882,188.495685,1021.585290,-1305.023263,0
0.030208,-192.214628,94.475453,26.495659,0.775900,5.539288,0.936402,-5.974452,-5.204785,-1.071470,6.076789,0.146652,0.200313,-0.007290,8.258821,188.495693,1022.281778,-1305.597549,0
0.031250,-183.965683,48.329308,102.212725,2.239609,4.023795,3.115377,-6.349466,-3.533706,-3.163645,6.248142,0.150299,0.209890,-0.022156,60.069630,188.495674,1021.720723,-1306.160173,0
0.032292,-139.579576,5.577472,173.968347,3.669540,1.932196,4.697484,-5.754083,-1.425869,-4.755423,5.715044,0.153945,0.223325,-0.014723,118.050002,188.495705,1022.140958,-1307.035135,0
0.033333,-86.402128,-46.817018,200.847845,4.187468,-0.720833,5.854426,-4.107113,1.289634,-5.803667,3.906319,0.088314,0.209752,0.000144,140.611685,188.495703,1022.928665,-1307.874164,0
0.034375,-39.032841,-126.777047,175.086301,3.703318,-3.036271,6.189652,-2.127656,3.701304,-6.235043,2.025245,0.037267,0.188462,0.003860,134.194440,188.495651,1024.032429,-1308.960069,0
0.035417,2.810783,-180.604428,121.388063,2.644944,-4.621483,5.286175,0.288673,5.250849,-5.070327,-0.545048,0.008098,0.197281,-0.033307,98.460517,188.495593,1023.482926,-1309.705337,0
0.036458,67.638454,-191.632993,64.506088,1.541533,-5.821400,3.675451,2.933103,6.545935,-3.586393,-3.096302,-0.024718,0.171444,-0.014723,54.631860,188.495702,1023.495371,-1309.704362,0
0.037500,142.941157,-157.631189,20.249700,0.719604,-5.821400,1.660002,4.796576,6.439594,-1.468337,-4.863141,-0.072118,0.191080,-0.022156,20.597944,188.495602,1022.951268,-1309.530733,0
0.038542,192.423530,-94.325584,-26.181838,-0.214918,-4.603135,-0.890993,5.921619,5.292626,1.063841,-5.986454,-0.108580,0.203000,-0.022156,-8.110783,188.495671,1022.735391,-1309.027650,0
0.039583,183.914686,-48.308635,-101.838146,-1.656109,-3.061957,-3.074055,6.304366,3.648133,3.194840,-6.249195,-0.097641,0.201760,-0.014723,-60.574576,188.495834,1022.428117,-1309.235409,0
0.040625,139.517279,-5.768208,-173.593767,-3.108558,-1.007052,-4.692956,5.701250,1.532700,4.777990,-5.647556,-0.112226,0.190391,-0.003573,-117.733090,188.495711,1021.711061,-1308.998454,0
0.041667,86.690129,46.802457,-200.363900,-3.603968,1.601943,-5.747694,4.050414,-1.133430,5.796038,-3.861678,-0.086703,0.200313,-0.025873,-140.193448,188.495656,1021.363982,-1308.957246,0
0.042708,39.829338,126.457115,-174.663114,-3.153596,3.954075,-6.107450,2.125083,-3.522313,6.175649,-1.984412,-0.002841,0.180263,-0.018440,-134.676869,188.495635,1020.567489,-1309.155590,0
0.043750,-2.296783,180.625102,-121.657522,-2.095221,5.487915,-5.208061,-0.322175,-5.045273,5.045443,0.498301,0.040913,0.190253,-0.037023,-100.890637,188.495622,1019.165375,-1308.656563,0
0.044792,-67.339154,190.972456,-65.018580,-1.025588,6.713519,-3.572808,-3.040062,-6.393529,3.570137,3.114288,0.081021,0.182950,-0.029590,-54.314948,188.495711,1018.717888,-1307.777418,0
0.045833,-143.229452,157.828037,-20.713585,-0.158622,6.742875,-1.553270,-4.814614,-6.325167,1.417570,4.835432,0.088314,0.190184,-0.007290,-20.281032,188.570982,1017.632482,-1307.681719,0
0.046875,-191.886931,94.863038,26.289081,0.764641,5.484245,0.981372,-5.982184,-5.136423,-1.080098,6.046326,0.161237,0.200037,-0.007290,7.864779,188.495714,1016.536574,-1307.323590,0
0.047917,-184.146482,48.822599,102.358545,2.250869,3.968753,3.086760,-6.361065,-3.537504,-3.211096,6.217679,0.161237,0.197557,-0.014723,61.296788,188.495620,1016.180158,-1307.762413,0
0.048958,-139.760375,5.741902,173.591645,3.624503,1.847798,4.693396,-5.723154,-1.403081,-4.794247,5.635079,0.135714,0.219122,-0.007290,117.892386,188.495765,1015.019191,-1307.923751,0
0.050000,-86.888024,-46.758293,200.859996,4.164950,-0.768536,5.809456,-4.037523,1.312421,-5.782098,3.860625,0.088314,0.215264,-0.022156,142.660700,188.495781,1014.203716,-1308.057622,0
0.051042,-39.383138,-126.318992,174.916177,3.669540,-3.028932,6.132419,-2.092861,3.697506,-6.170337,1.930049,0.055498,0.201346,-0.014723,135.522922,188.495689,1012.408342,-1307.873628,0
0.052083,2.596084,-180.956779,121.521732,2.678722,-4.621483,5.253470,0.319602,5.266041,-5.035817,-0.575511,0.026329,0.200588,-0.022156,98.539326,188.495738,1011.849725,-1308.294560,0
0.053125,67.570655,-191.210173,64.627605,1.564051,-5.810392,3.622305,3.014292,6.557329,-3.569138,-3.187690,-0.068472,0.184603,-0.029590,55.048418,188.495680,1011.097064,-1309.233006,0
0.054167,143.201055,-157.819109,20.261851,0.719604,-5.806723,1.623209,4.808175,6.458583,-1.451081,-4.870756,-0.086703,0.188944,-0.003573,20.440328,188.495705,1011.197230,-1309.614662,0
0.055208,191.994133,-94.255114,-26.181838,-0.214918,-4.588458,-0.923698,5.917753,5.247051,1.102665,-6.009301,-0.123164,0.199279,0.003860,-7.874359,188.495582,1010.362193,-1309.917190,0
0.056250,184.095485,-48.015010,-101.838146,-1.689887,-3.116999,-3.090408,6.265704,3.594963,3.156016,-6.253003,-0.097641,0.206996,-0.003573,-59.673910,188.495551,1010.060212,-1309.593237,0
0.057292,139.336481,-5.556798,-173.581615,-3.097299,-0.941002,-4.672515,5.716715,1.517508,4.790931,-5.643748,-0.101287,0.194387,-0.025873,-118.318523,188.495685,1009.928911,-1309.676130,0
0.058333,86.305931,46.731987,-200.728450,-3.603968,1.612952,-5.813104,4.015619,-1.190399,5.804665,-3.865486,-0.046595,0.206169,-0.003573,-139.596757,188.420345,1009.723515,-1310.223734,0
0.059375,39.309542,126.445370,-174.505142,-3.131077,3.946736,-6.131979,2.101886,-3.495727,6.248983,-2.022491,-0.017425,0.200933,0.022444,-134.350377,188.495794,1010.885652,-1310.129057,0
0.060417,-2.782680,180.660337,-121.171455,-2.106481,5.520940,-5.261206,-0.306711,-5.113635,5.071326,0.502108,0.011744,0.191562,-0.055607,-98.819105,188.495569,1011.403164,-1310.702413,0
0.061458,-67.632952,191.136886,-64.775547,-1.025588,6.801586,-3.638218,-3.036196,-6.480881,3.565823,3.125712,0.081021,0.181847,-0.018440,-54.393756,188.495586,1011.967727,-1311.587701,0
0.062500,-142.777455,157.734077,-20.677130,-0.192400,6.805256,-1.585975,-4.837811,-6.317571,1.460708,4.877319,0.106545,0.191011,-0.014723,-21.192957,188.420289,1012.107783,-1311.732222,0
0.063542,-192.214628,94.769078,26.374142,0.753382,5.524610,0.960931,-5.997649,-5.159210,-1.123236,6.080597,0.139360,0.199899,-0.044457,8.112462,188.495716,1012.287646,-1312.537215,0
0.064583,-183.852684,48.928304,102.358545,2.239609,4.009117,3.058143,-6.361065,-3.571685,-3.198155,6.290028,0.164883,0.211957,-0.003573,60.193472,188.495721,1013.135959,-1312.921565,0
0.065625,-139.658676,6.293917,173.931892,3.647022,1.855137,4.762894,-5.788878,-1.448656,-4.781305,5.654118,0.117483,0.220156,-0.022156,118.095036,188.495676,1013.693065,-1312.779692,0
0.066667,-87.520820,-46.593863,200.568356,4.142431,-0.783214,5.821721,-4.064586,1.335209,-5.777784,3.894896,0.110191,0.214024,-0.018440,140.409035,188.495501,1013.722675,-1313.147241,0
0.067708,-39.982034,-126.847517,174.989087,3.669540,-3.050948,6.189652,-2.139255,3.663325,-6.157395,1.987167,0.029975,0.203000,-0.033307,134.048082,188.495734,1014.404699,-1312.765236,0
0.068750,2.211887,-180.463488,121.716158,2.644944,-4.658178,5.249382,0.315736,5.228062,-5.091896,-0.560279,-0.010133,0.199968,-0.025873,98.561842,188.495767,1014.761969,-1312.524957,0
0.069792,67.740154,-191.503798,65.089368,1.586570,-5.825070,3.679539,3.006560,6.534541,-3.595021,-3.107726,-0.046595,0.185568,-0.025873,54.834509,188.495729,1015.389461,-1311.744267,0
0.070833,143.076756,-157.678169,20.699312,0.697085,-5.795714,1.660002,4.757915,6.454785,-1.438140,-4.893603,-0.083057,0.191149,0.015011,20.766819,188.420226,1015.008023,-1312.081640,0
0.071875,192.446130,-94.525249,-26.133231,-0.226178,-4.566441,-0.915522,5.913887,5.254647,1.115607,-6.009301,-0.115872,0.199417,0.011294,-8.077009,188.495709,1015.109599,-1312.413099,0
0.072917,183.937286,-48.379105,-101.923207,-1.723664,-3.087643,-3.090408,6.296634,3.617750,3.177585,-6.230156,-0.097641,0.206651,0.000144,-60.563318,188.495678,1015.036738,-1312.471207,0
0.073958,139.596379,-5.779953,-173.520857,-3.108558,-1.007052,-4.684780,5.724447,1.547891,4.803873,-5.670403,-0.101287,0.224703,-0.025873,-117.631765,188.495837,1015.525628,-1312.729288,0
0.075000,86.452830,46.814202,-200.448962,-3.592708,1.638638,-5.755870,4.034949,-1.216984,5.796038,-3.899757,-0.057533,0.217951,-0.033307,-140.328548,188.495626,1015.640664,-1312.876861,0
0.076042,39.038343,126.421880,-174.675266,-3.119818,3.895364,-6.156507,2.078689,-3.583079,6.192904,-1.999644,-0.024718,0.217675,-0.003573,-134.744419,188.495743,1014.768377,-1313.427237,0
0.077083,-2.613181,180.695572,-121.062090,-2.095221,5.451220,-5.232589,-0.333773,-5.090848,5.058385,0.536379,0.033621,0.218158,-0.025873,-100.496595,188.495676,1014.266281,-1313.377066,0
0.078125,-67.282654,191.148631,-64.228722,-1.025588,6.775900,-3.585072,-3.059393,-6.401125,3.548568,3.095249,0.081021,0.185568,-0.003573,-53.864615,188.495629,1013.773194,-1312.165349,0
0.079167,-142.901754,157.616627,-20.215367,-0.158622,6.779569,-1.569623,-4.845543,-6.344157,1.434825,4.865895,0.102898,0.187635,-0.014723,-20.022091,188.420321,1013.938778,-1312.182051,0
0.080208,-191.943430,94.170083,26.325536,0.775900,5.509932,0.924138,-5.970586,-5.178199,-1.075784,6.023479,0.135714,0.197694,-0.022156,7.909812,188.495631,1014.231621,-1310.967353,0
0.081250,-184.033482,48.106153,102.127664,2.262128,3.998109,3.131729,-6.353332,-3.548898,-3.155017,6.236718,0.128422,0.208856,-0.018440,61.274271,188.495638,1013.882247,-1309.883151,0
0.082292,-139.534376,5.741902,173.530887,3.647022,1.877154,4.722013,-5.785012,-1.448656,-4.768364,5.676966,0.113837,0.216435,-0.018440,117.881127,188.495647,1014.122457,-1309.617504,0
0.083333,-86.571626,-46.828764,200.702024,4.198728,-0.717164,5.809456,-4.049121,1.320017,-5.803667,3.833970,0.059144,0.199279,-0.011006,142.480567,188.420287,1013.851884,-1309.320270,0
0.084375,-39.643037,-126.412952,174.916177,3.692059,-3.054618,6.189652,-2.143121,3.655729,-6.178964,1.952896,0.099252,0.195765,0.000144,135.455372,188.495727,1013.581559,-1309.344399,0
0.085417,2.313586,-180.862819,121.898434,2.667463,-4.625152,5.249382,0.292539,5.235658,-5.074641,-0.560279,-0.021072,0.194456,-0.003573,98.753234,188.495750,1013.571668,-1309.488727,0
0.086458,67.638454,-191.151447,65.247340,1.564051,-5.792045,3.659099,3.002694,6.576318,-3.530315,-3.145804,-0.050241,0.186326,-0.011006,55.487492,188.495729,1012.745302,-1310.242268,0
0.087500,143.438354,-157.983539,20.893738,0.708344,-5.839748,1.623209,4.781112,6.469977,-1.429513,-4.874564,-0.090349,0.191769,0.015011,20.935694,188.420247,1012.922607,-1310.358408,0
0.088542,192.129732,-95.112500,-26.193989,-0.214918,-4.588458,-0.927786,5.890690,5.235658,1.072469,-6.009301,-0.090349,0.201897,-0.003573,-7.750517,188.495711,1012.923739,-1310.102367,0
0.089583,184.242384,-48.860650,-102.008269,-1.712405,-3.135346,-3.053615,6.304366,3.655729,3.190526,-6.203501,-0.093995,0.213266,-0.011006,-59.786494,188.495649,1013.103260,-1310.210374,0
0.090625,139.675478,-6.073578,-173.666677,-3.131077,-0.981366,-4.680692,5.697384,1.536498,4.795245,-5.681827,-0.104934,0.213266,-0.029590,-118.341040,188.495769,1013.072506,-1310.362044,0
0.091667,86.916127,46.767222,-200.606933,-3.626486,1.620291,-5.764047,4.046548,-1.171409,5.804665,-3.884525,-0.083057,0.212301,0.029877,-139.551723,188.420312,1013.233497,-1310.272803,0
0.092708,39.671139,126.797721,-174.480839,-3.108558,3.932058,-6.176948,2.082556,-3.545100,6.210159,-2.003451,-0.028364,0.200588,-0.011006,-134.339119,188.495752,1013.499120,-1310.150793,0
0.093750,-2.522782,180.636847,-121.183607,-2.106481,5.502593,-5.220325,-0.353104,-5.106039,5.075640,0.502108,0.011744,0.197005,-0.014723,-98.638972,188.495644,1013.939898,-1310.193889,0
0.094792,-67.734651,191.148631,-64.423149,-1.003069,6.768561,-3.617777,-3.032330,-6.454296,3.574451,3.148559,0.091960,0.181090,-0.003573,-53.954681,188.495665,1014.370356,-1311.247572,0
0.095833,-142.766155,157.463942,-20.215367,-0.147362,6.805256,-1.594152,-4.872606,-6.378338,1.413256,4.911589,0.110191,0.188324,-0.037023,-20.641299,188.420318,1014.334539,-1312.018144,0
0.096875,-192.338928,94.123103,26.325536,0.798419,5.520940,0.969107,-6.016979,-5.208583,-1.127549,6.069173,0.150299,0.195834,-0.022156,8.213787,188.495707,1014.555883,-1313.078848,0
0.097917,-183.773584,48.047428,101.981844,2.239609,4.016456,3.131729,-6.376529,-3.537504,-3.172272,6.278605,0.139360,0.206376,-0.025873,59.934531,188.495721,1014.559888,-1313.522926,0
0.098958,-139.116279,5.600962,173.871133,3.647022,1.880823,4.766982,-5.796610,-1.452454,-4.802874,5.707428,0.110191,0.205411,0.022444,118.027486,188.495741,1015.038239,-1313.906190,0
0.100000,-86.097030,-46.852254,200.665569,4.131172,-0.750189,5.817632,-4.087782,1.320017,-5.764843,3.875856,0.091960,0.212301,0.007577,140.465327,188.420193,1015.366357,-1313.365662,0
0.101042,-38.998941,-126.671342,175.037694,3.680800,-3.047279,6.197829,-2.158585,3.678516,-6.222102,2.006206,0.055498,0.188324,-0.037023,134.115631,188.495613,1016.470817,-1313.596533,0
0.102083,2.516985,-180.557448,121.473125,2.667463,-4.643500,5.237118,0.323468,5.277435,-5.104837,-0.537432,0.000805,0.206789,-0.018440,98.595617,188.495687,1017.021018,-1313.726856,0
0.103125,67.627155,-191.574268,64.773425,1.586570,-5.832409,3.638658,2.944702,6.564925,-3.564825,-3.126765,-0.039302,0.176404,-0.011006,54.947093,188.495674,1017.612964,-1313.382086,0
0.104167,142.907257,-157.678169,20.808677,0.708344,-5.832409,1.664090,4.781112,6.435796,-1.412258,-4.844101,-0.090349,0.191356,-0.040740,21.104569,188.344831,1016.968051,-1312.717053,0
0.105208,192.389630,-94.936325,-26.169686,-0.237437,-4.621483,-0.882817,5.879092,5.258445,1.072469,-6.016917,-0.101287,0.202035,-0.003573,-7.998200,188.495694,1017.322503,-1312.858693,0
0.106250,183.982486,-49.060315,-102.117634,-1.689887,-3.076635,-3.102672,6.281169,3.629144,3.147388,-6.203501,-0.104934,0.208236,-0.025873,-60.675901,188.495674,1017.143346,-1312.437134,0
0.107292,140.014476,-6.308479,-173.703132,-3.108558,-0.981366,-4.684780,5.681919,1.544093,4.821128,-5.643748,-0.097641,0.205549,-0.011006,-117.800640,188.505977,1016.816345,-1312.669385,0
0.108335,87.096926,47.037357,-200.218080,-3.480115,1.682672,-5.755870,3.957627,-1.243569,5.817607,-3.827408,-0.057533,0.214299,0.037311,-140.227223,188.345827,1015.742060,-1313.288477,0
0.109375,40.190936,126.598055,-174.772479,-3.063521,3.935728,-6.119714,2.090288,-3.552696,6.205845,-1.984412,-0.010133,0.208512,-0.007290,-134.766936,188.496396,1015.324871,-1313.672642,0
