1-Time,2-VGERA,3-VGERB,4-VGERC,5-VN,6-IGERAN,7-IGERBN,8-IGERCN,9-IGERAT,10-IGERBT,11-IGERCT,12-IN,13-IFD,14-IFAULT,15-VFAULT,16-Speed (rad/s),17-Active Power,18-Reactive Power,19-FAULT 
0.000000,95.074673,109.896651,-174.748176,-3.097299,-4.878402,0.805802,4.068780,4.713757,-0.927141,-4.008073,-0.028871,0.551840,-0.071140,22.399276,188.269476,990.562838,1000.635510,0
0.001042,10.935429,150.945461,-176.449410,-3.164855,-4.034423,-1.060742,4.935531,3.850531,0.979456,-4.984602,-0.032517,0.591251,-0.052556,145.272631,188.344871,990.523358,1001.150170,0
0.002083,-65.745864,166.648540,-139.787816,-2.421741,-2.445541,-2.786490,4.927961,2.446882,2.670450,-4.961892,-0.036163,0.588426,-0.071140,236.003469,188.420374,990.038346,1001.301032,0
0.003125,-122.584488,185.722436,-55.844068,-0.822920,-0.456687,-4.459942,4.500263,0.502810,4.378355,-4.579607,-0.043455,0.587462,-0.067423,310.612387,188.269471,990.131626,1001.660092,0
0.004167,-161.185033,158.849853,17.199630,0.584492,1.227601,-4.982896,3.345857,-1.096697,5.004023,-3.497099,-0.072625,0.588771,-0.052556,318.526989,188.194123,990.390617,1002.902122,0
0.005208,-181.265001,109.051010,87.776539,1.946867,3.260489,-4.978873,1.336055,-2.982737,4.923700,-1.445631,-0.098148,0.569479,-0.059989,286.035464,188.269545,988.975174,1003.054455,0
0.006250,-181.242401,28.726886,139.251021,2.915167,4.394356,-4.262829,-0.321748,-4.110734,4.310715,0.250046,-0.112733,0.539370,-0.071140,203.388103,188.420253,987.007750,1002.472028,0
0.007292,-150.811702,-41.578744,174.357200,3.624503,5.043853,-2.838785,-2.248281,-4.745459,2.966374,2.180394,-0.167425,0.561762,-0.093440,104.427429,188.269460,985.461631,1002.569774,0
0.008333,-94.187776,-110.216583,175.049846,3.635763,4.853040,-0.807310,-3.841740,-4.571363,0.886451,3.838221,-0.207533,0.553425,-0.059989,-23.410847,188.269462,983.563047,1001.638309,0
0.009375,-9.201038,-150.913043,176.726776,3.782133,4.005392,1.123597,-4.738770,-3.762542,-0.986325,4.742835,-0.233057,0.549291,-0.097156,-145.811352,188.269445,981.839822,1001.157146,0
0.010417,66.983059,-166.569141,139.737088,3.072797,2.434858,2.793026,-4.727415,-2.406044,-2.664638,4.814750,-0.218472,0.587875,-0.071140,-235.596491,188.420359,981.434332,1001.567800,0
0.011458,122.759490,-185.666528,55.975615,1.428940,0.471690,4.466479,-4.314857,-0.509123,-4.334495,4.470316,-0.225764,0.588426,-0.052556,-316.183578,188.269445,980.711918,1002.788969,0
0.012500,161.190536,-159.005355,-16.108102,0.010268,-1.208929,5.025637,-3.213440,1.101265,-4.972845,3.387807,-0.185656,0.596143,-0.074856,-325.201497,188.269499,980.255094,1003.569682,0
0.013542,181.225304,-110.016918,-86.867286,-1.397145,-3.230809,5.045751,-1.214993,3.001813,-5.006665,1.370405,-0.134610,0.579194,-0.078573,-288.161608,188.269485,979.604420,1004.393947,0
0.014583,181.473902,-30.573670,-138.985806,-2.376704,-4.375684,4.309593,0.537433,4.234993,-4.347177,-0.363123,-0.145548,0.585464,-0.074856,-204.759940,188.420330,979.912338,1004.464168,0
0.015625,151.077103,40.401426,-174.432232,-3.063521,-5.054537,2.893594,2.407193,4.833448,-2.956334,-2.354030,-0.094502,0.582708,-0.086006,-104.774759,188.269485,979.787406,1004.071081,0
0.016667,95.176373,109.673496,-174.918299,-3.086040,-4.808682,0.805802,4.042286,4.670233,-0.944051,-4.000503,-0.039809,0.587806,-0.104590,23.705242,188.269557,979.438123,1003.728401,0
0.017708,10.065335,150.804521,-176.704595,-3.097299,-3.990389,-1.080855,4.927961,3.897682,1.009048,-4.889977,-0.014286,0.530413,-0.074856,146.882572,188.194074,978.629603,1003.748998,0
0.018750,-67.022756,166.707265,-139.265295,-2.410482,-2.423525,-2.854876,4.871187,2.399731,2.729635,-5.007312,-0.036163,0.556319,-0.048839,237.140560,188.420316,979.478686,1003.848766,0
0.019792,-122.607088,185.957336,-54.665356,-0.755365,-0.453018,-4.443851,4.500263,0.502810,4.348762,-4.526617,0.007591,0.581881,-0.019106,310.522320,188.344974,978.669828,1003.409216,0
0.020833,-161.004235,158.896833,17.576332,0.640789,1.205584,-5.019100,3.364782,-1.151102,4.982885,-3.466819,-0.054394,0.586497,-0.093440,318.504472,188.269447,978.983073,1002.663866,0
0.021875,-181.152001,109.544301,87.399838,2.003164,3.242142,-4.918532,1.343625,-3.037142,4.936383,-1.400211,-0.083563,0.582639,-0.045123,287.228846,188.194052,980.108493,1002.082740,0
0.022917,-181.174601,30.042328,139.384689,2.937686,4.398025,-4.266851,-0.325533,-4.190528,4.344535,0.280326,-0.160133,0.553839,-0.074856,205.527185,188.420312,981.684245,1002.316930,0
0.023958,-151.354098,-39.535112,174.660992,3.692059,5.084217,-2.806603,-2.236926,-4.814372,2.957919,2.199319,-0.171072,0.582914,-0.052556,107.140686,188.269492,983.108419,1002.237873,0
0.025000,-95.882765,-109.347452,174.758205,3.703318,4.831023,-0.742947,-3.868234,-4.651157,0.903361,3.898781,-0.196595,0.583259,-0.104590,-22.026073,188.269472,984.623258,1002.812611,0
0.026042,-11.404523,-150.842573,176.605260,3.737096,3.972367,1.135665,-4.719845,-3.838709,-0.973643,4.788255,-0.214826,0.587324,-0.071140,-145.102078,188.194132,985.545057,1003.581421,0
0.027083,66.169464,-166.510416,139.724936,2.993982,2.398163,2.841299,-4.678211,-2.384282,-2.626590,4.795825,-0.218472,0.586497,-0.059989,-236.181924,188.420352,985.152433,1003.025475,0
0.028125,122.544792,-185.936663,55.210059,1.406421,0.464351,4.462456,-4.314857,-0.418448,-4.321812,4.402186,-0.207533,0.581812,-0.059989,-316.420003,188.269514,985.301431,1001.514164,0
0.029167,160.795039,-158.923140,-17.785033,-0.046029,-1.227276,5.041728,-3.171806,1.130281,-4.968618,3.334817,-0.171072,0.579676,-0.100873,-323.918048,188.269400,985.203838,1000.989848,0
0.030208,180.954106,-109.124297,-87.462718,-1.352108,-3.267503,5.025637,-1.196068,3.048964,-4.930570,1.321200,-0.163779,0.565345,-0.082290,-287.260943,188.194127,985.137773,999.858157,0
0.031250,181.327003,-28.717958,-138.767076,-2.365445,-4.372015,4.309593,0.495799,4.256755,-4.342950,-0.374478,-0.116379,0.551289,-0.052556,-204.275832,188.420131,984.933437,1000.034083,0
0.032292,150.975404,40.730287,-174.432232,-3.086040,-5.025181,2.945890,2.403408,4.800805,-2.960562,-2.342675,-0.047102,0.587737,-0.089723,-105.821783,188.344925,984.412769,999.960453,0
0.033333,95.549270,109.473831,-174.590204,-3.086040,-4.838038,0.858097,4.034716,4.641217,-0.910231,-3.962653,-0.036163,0.585533,-0.093440,21.566160,188.269474,984.071461,999.145920,0
0.034375,11.511725,150.698816,-176.388652,-3.153596,-4.023415,-1.092923,4.901467,3.846904,0.983683,-4.942967,0.000299,0.585601,-0.086006,144.450773,188.194016,984.578410,998.650783,0
0.035417,-65.610265,166.401895,-139.885030,-2.478038,-2.467558,-2.774421,4.852262,2.432374,2.653540,-4.935397,0.007591,0.584637,-0.071140,235.879628,188.420316,983.393363,998.083616,0
0.036458,-122.494089,185.464046,-56.245074,-0.800402,-0.504390,-4.387533,4.432134,0.520945,4.336080,-4.556897,-0.014286,0.588289,-0.078573,310.263379,188.344930,983.544241,998.204625,0
0.037500,-160.936435,159.108243,16.944445,0.584492,1.183567,-4.926578,3.311793,-1.103951,4.965975,-3.459249,-0.043455,0.582845,-0.052556,318.583280,188.269451,983.083374,998.106823,0
0.038542,-181.016402,109.403361,87.424141,1.924349,3.278836,-4.906464,1.343625,-2.971856,4.911018,-1.438061,-0.098148,0.561349,-0.082290,286.395730,188.194125,981.887638,998.314829,0
0.039583,-181.445799,28.891317,138.971532,2.926427,4.365000,-4.262829,-0.317963,-4.176020,4.302260,0.215981,-0.127317,0.584706,-0.056273,203.714594,188.420218,980.818647,998.398553,0
0.040625,-150.698703,-41.179414,174.478717,3.647022,5.054861,-2.826717,-2.195292,-4.741832,2.953692,2.172824,-0.156487,0.574233,-0.078573,104.990346,188.344956,979.360139,998.259857,0
0.041667,-94.549374,-109.770273,174.964784,3.714578,4.856710,-0.771106,-3.834170,-4.564109,0.920271,3.811726,-0.233057,0.562658,-0.078573,-22.318789,188.269431,977.389025,997.729459,0
0.042708,-9.619135,-150.819083,176.714625,3.737096,4.023739,1.083369,-4.738770,-3.777050,-0.986325,4.754190,-0.207533,0.581812,-0.048839,-145.259694,188.194190,976.694967,997.082046,0
0.043750,66.508462,-166.533906,140.174548,3.061538,2.464213,2.817163,-4.727415,-2.387909,-2.685775,4.807180,-0.225764,0.582156,-0.067423,-235.191191,188.420430,977.535328,997.176721,0
0.044792,122.578691,-185.466863,56.595350,1.451458,0.479029,4.482570,-4.299717,-0.494615,-4.300675,4.462746,-0.200241,0.589598,-0.082290,-315.767020,188.420358,977.214040,998.216830,0
0.045833,161.043637,-159.228510,-15.767855,-0.000992,-1.186912,5.065865,-3.164236,1.094011,-5.019347,3.372667,-0.182010,0.589046,-0.059989,-325.167722,188.269666,977.820124,998.795497,0
0.046875,181.123605,-110.404503,-86.539191,-1.340848,-3.252825,4.965297,-1.199853,3.059845,-4.993983,1.340125,-0.149195,0.576507,-0.067423,-288.544392,188.194188,978.777104,999.282449,0
0.047917,181.609501,-30.702865,-138.839986,-2.342926,-4.397701,4.309593,0.518509,4.249501,-4.355632,-0.416113,-0.109087,0.585670,-0.093440,-204.928815,188.420242,979.694253,998.791687,0
0.048958,151.167503,39.931626,-174.456536,-3.063521,-5.072884,2.857390,2.467752,4.855210,-2.964789,-2.335105,-0.065333,0.581536,-0.086006,-105.258867,188.420274,980.296397,999.085105,0
0.050000,95.402371,109.403361,-175.015513,-3.108558,-4.838038,0.789711,4.012006,4.706503,-0.880638,-4.000503,-0.036163,0.555630,-0.045123,23.119809,188.269373,981.350119,999.587348,0
0.051042,10.065335,150.698816,-176.765353,-3.131077,-3.975712,-1.113037,4.931746,3.832396,1.000593,-4.897547,-0.025225,0.575473,-0.048839,146.567338,188.269474,980.784745,999.379981,0
0.052083,-66.864557,166.672030,-139.702755,-2.421741,-2.401508,-2.814649,4.905252,2.403358,2.661995,-4.965677,-0.043455,0.587393,-0.059989,236.724002,188.420231,981.023934,999.705443,0
0.053125,-122.426290,185.851631,-55.212181,-0.789143,-0.456687,-4.463965,4.488908,0.495556,4.378355,-4.545542,-0.061686,0.582088,-0.033973,310.398478,188.420309,981.467037,999.643568,0
0.054167,-160.789536,159.249184,17.065962,0.652048,1.223931,-5.019100,3.349642,-1.143848,4.944838,-3.474389,-0.039809,0.588426,-0.056273,318.493214,188.269622,981.680008,999.464277,0
0.055208,-181.061602,110.014101,86.998832,2.003164,3.315531,-4.970828,1.328485,-3.037142,4.936383,-1.456986,-0.101794,0.578643,-0.078573,287.690438,188.269525,982.754570,999.689878,0
0.056250,-181.445799,30.547363,139.263172,2.948945,4.431051,-4.282942,-0.359597,-4.183274,4.340307,0.291681,-0.152841,0.556319,-0.059989,206.135134,188.420394,984.035545,999.355188,0
0.057292,-151.659196,-39.088802,174.770357,3.635763,5.080547,-2.830739,-2.282345,-4.850642,2.995967,2.203104,-0.134610,0.582156,-0.056273,107.636052,188.420253,985.964510,1000.108715,0
0.058333,-96.357362,-109.030337,174.952632,3.658281,4.842032,-0.746969,-3.860665,-4.647530,0.911816,3.864716,-0.211179,0.582294,-0.059989,-21.373090,188.344945,987.667571,1000.557856,0
0.059375,-11.517522,-150.736868,176.896900,3.759615,4.001722,1.123597,-4.772835,-3.845963,-0.939823,4.780685,-0.247641,0.592285,-0.086006,-144.944461,188.269407,988.076968,1001.441130,0
0.060417,66.203364,-166.569141,140.089486,3.027760,2.420180,2.833254,-4.674426,-2.409671,-2.660410,4.810965,-0.189302,0.584292,-0.071140,-236.114374,188.420271,987.767447,1001.708071,0
0.061458,122.420492,-185.995388,55.647519,1.406421,0.446003,4.466479,-4.311072,-0.440210,-4.397907,4.432466,-0.225764,0.581605,-0.067423,-316.442520,188.420383,989.044662,1001.281417,0
0.062500,160.693340,-159.240255,-17.578454,-0.023510,-1.208929,5.057819,-3.183161,1.199194,-4.985528,3.308322,-0.189302,0.581881,-0.067423,-324.458447,188.344827,989.472679,1000.068498,0
0.063542,180.908906,-109.394432,-87.219685,-1.352108,-3.307867,5.025637,-1.199853,3.056218,-4.993983,1.321200,-0.174718,0.572442,-0.067423,-287.756309,188.269521,989.103972,1000.085346,0
0.064583,181.553002,-29.211248,-138.572649,-2.354185,-4.405040,4.349820,0.450380,4.220485,-4.376770,-0.385833,-0.116379,0.582777,-0.104590,-204.996365,188.420386,988.136557,1000.627931,0
0.065625,151.178802,40.154781,-174.505142,-3.029743,-5.094901,2.929799,2.456397,4.851583,-3.011291,-2.372955,-0.083563,0.579056,-0.048839,-106.688674,188.420292,988.389477,1001.054443,0
0.066667,96.125566,109.074500,-174.784631,-3.119818,-4.915097,0.842006,4.038501,4.688368,-0.965188,-4.034568,-0.050748,0.577196,-0.082290,20.733044,188.420256,988.325165,1001.490357,0
0.067708,11.997622,150.675326,-176.558775,-3.131077,-4.049101,-1.064764,4.946886,3.868666,0.987911,-4.965677,-0.003348,0.575749,-0.048839,144.293157,188.269485,989.360551,1001.960002,0
0.068750,-65.146968,166.507600,-140.358945,-2.444260,-2.452880,-2.774421,4.878757,2.446882,2.632403,-5.003527,-0.025225,0.578298,-0.082290,235.586911,188.420238,989.602543,1002.334208,0
0.069792,-122.268091,185.511026,-56.463804,-0.822920,-0.434670,-4.467987,4.424564,0.455659,4.391037,-4.549327,-0.032517,0.589529,-0.074856,310.218345,188.420372,990.329398,1001.751646,0
0.070833,-160.800836,159.354889,16.944445,0.584492,1.209254,-4.994964,3.349642,-1.107578,4.974430,-3.466819,-0.076271,0.584086,-0.067423,318.594539,188.420274,990.297977,1002.032689,0
0.071875,-181.129402,109.626516,87.132501,1.913090,3.286175,-4.910487,1.370120,-3.011753,4.915245,-1.396427,-0.079917,0.572028,-0.045123,286.654672,188.269617,990.052550,1001.295191,0
0.072917,-181.728298,29.055747,138.801409,2.971464,4.412703,-4.218579,-0.333102,-4.168766,4.302260,0.287896,-0.149195,0.541781,-0.067423,204.153669,188.420274,989.431844,1001.001331,0
0.073958,-150.936001,-41.026729,174.442262,3.658281,5.032844,-2.846830,-2.244496,-4.738205,2.962147,2.165254,-0.163779,0.555837,-0.082290,105.553262,188.420464,987.452113,1000.308330,0
0.075000,-94.662373,-109.547117,175.025542,3.714578,4.838362,-0.755015,-3.830385,-4.589498,0.916043,3.849576,-0.171072,0.538336,-0.045123,-21.778390,188.495691,986.418404,1000.044857,0
0.076042,-10.082432,-150.713378,176.884748,3.770874,3.979706,1.099460,-4.746340,-3.795185,-0.973643,4.807180,-0.222118,0.575955,-0.045123,-144.674261,188.269433,986.623849,999.626346,0
0.077083,66.090365,-166.639611,140.502643,3.039020,2.460544,2.821185,-4.734985,-2.384282,-2.673093,4.860170,-0.207533,0.588082,-0.056273,-234.864700,188.420197,987.401071,999.722974,0
0.078125,122.420492,-185.584313,56.899142,1.451458,0.446003,4.490615,-4.322427,-0.494615,-4.347177,4.413541,-0.218472,0.591871,-0.074856,-315.789537,188.420419,986.584927,999.632572,0
0.079167,161.088837,-159.357705,-15.573428,-0.012251,-1.219937,5.033683,-3.194516,1.191940,-5.010893,3.357527,-0.200241,0.590907,-0.041406,-325.471696,188.495723,987.196147,1000.051677,0
0.080208,181.281804,-110.381013,-86.369068,-1.419663,-3.234478,4.985410,-1.177144,3.056218,-4.943253,1.306060,-0.174718,0.576438,-0.067423,-288.510617,188.269528,987.411025,999.177429,0
0.081250,181.812900,-30.608905,-138.596953,-2.387963,-4.401370,4.313615,0.567713,4.231366,-4.330267,-0.423683,-0.145548,0.581054,-0.056273,-205.086431,188.420408,988.205120,998.194182,0
0.082292,151.201402,40.143036,-174.395777,-3.086040,-5.098570,2.861413,2.445042,4.826194,-3.002836,-2.346460,-0.061686,0.584223,-0.067423,-105.191317,188.420206,987.693298,997.976138,0
0.083333,95.424971,109.215441,-175.039816,-3.097299,-4.849046,0.781665,4.038501,4.681114,-0.863728,-4.011858,-0.036163,0.564174,-0.056273,22.894643,188.495743,987.888317,997.065228,0
0.084375,10.212234,150.499151,-176.971932,-3.119818,-3.990389,-1.137173,4.931746,3.861412,1.013276,-4.920257,-0.010640,0.544950,-0.063706,146.083231,188.269462,987.331982,996.901581,0
0.085417,-66.593358,166.648540,-139.885030,-2.466778,-2.412516,-2.842808,4.874972,2.392477,2.704270,-4.954322,-0.028871,0.572855,-0.041406,236.341219,188.495785,987.614444,996.127192,0
0.086458,-122.211591,186.016062,-55.455215,-0.777883,-0.438340,-4.504192,4.458629,0.452032,4.374127,-4.541757,-0.025225,0.583741,-0.030256,310.297153,188.420263,987.274580,996.191524,0
0.087500,-160.710437,159.296164,16.652805,0.629529,1.234940,-4.990941,3.292868,-1.187372,4.991340,-3.428969,-0.050748,0.587668,-0.074856,318.617055,188.495694,988.331572,995.321482,0
0.088542,-181.185901,110.354707,86.658586,1.946867,3.326539,-4.958760,1.336055,-3.040769,4.949065,-1.407781,-0.094502,0.578849,-0.033973,288.129512,188.269431,989.115901,995.564222,0
0.089583,-181.581399,30.782263,139.251021,2.937686,4.412703,-4.234670,-0.382307,-4.259441,4.352990,0.272756,-0.116379,0.592354,-0.041406,206.337784,188.495597,990.552410,996.395675,0
0.090625,-151.738296,-39.065312,174.770357,3.647022,5.106234,-2.818671,-2.301270,-4.854269,2.924099,2.286374,-0.189302,0.579538,-0.071140,107.512210,188.420332,993.672966,995.976159,0
0.091667,-96.334762,-108.889397,175.134907,3.703318,4.823684,-0.738924,-3.853095,-4.622141,0.903361,3.894996,-0.214826,0.583397,-0.071140,-21.294282,188.495796,995.022688,995.904579,0
0.092708,-11.641822,-150.560693,177.030568,3.748356,3.983375,1.123597,-4.746340,-3.784304,-1.020145,4.814750,-0.243995,0.589667,-0.045123,-144.651745,188.344921,995.944031,995.189102,0
0.093750,66.169464,-166.639611,140.271761,3.039020,2.376146,2.885549,-4.689566,-2.362520,-2.719595,4.799610,-0.218472,0.572993,-0.071140,-236.035565,188.495660,995.988499,994.334248,0
0.094792,122.205794,-186.148073,55.586761,1.428940,0.409309,4.526820,-4.284578,-0.407567,-4.372542,4.390831,-0.218472,0.582570,-0.093440,-316.228612,188.420370,996.638805,993.577622,0
0.095833,160.410841,-159.404685,-17.335421,-0.000992,-1.219937,5.077933,-3.152881,1.195567,-4.985528,3.308322,-0.211179,0.584637,-0.056273,-324.402155,188.495875,996.068537,993.048799,0
0.096875,181.010605,-109.641077,-86.842983,-1.340848,-3.274842,5.033683,-1.173359,3.067099,-4.972845,1.271995,-0.171072,0.565483,-0.048839,-288.116575,188.420392,996.233040,993.084424,0
0.097917,181.654701,-29.469639,-138.499739,-2.342926,-4.412379,4.321661,0.510939,4.231366,-4.347177,-0.423683,-0.134610,0.579194,-0.086006,-205.469214,188.495743,995.922081,993.424269,0
0.098958,151.359601,39.696726,-174.626659,-3.074780,-5.094901,2.893594,2.456397,4.851583,-2.964789,-2.350245,-0.076271,0.572235,-0.063706,-107.251590,188.420282,996.440961,993.122289,0
0.100000,96.521064,108.733895,-174.869693,-3.063521,-4.863724,0.862120,4.027146,4.695622,-0.956733,-4.042138,-0.028871,0.578091,-0.041406,20.226420,188.495709,996.589628,993.911100,0
0.101042,12.415719,150.463916,-176.765353,-3.176114,-4.030754,-1.084878,4.939316,3.868666,0.937181,-4.984602,-0.028871,0.594903,-0.071140,143.730241,188.420399,997.008551,994.368913,0
0.102083,-64.807970,166.507600,-140.699192,-2.500556,-2.474897,-2.822694,4.909036,2.472271,2.716953,-5.007312,0.000299,0.584292,-0.059989,235.271678,188.495725,997.782036,995.171236,0
0.103125,-122.256791,185.558006,-56.548865,-0.890476,-0.434670,-4.419715,4.485123,0.517318,4.365672,-4.594747,-0.043455,0.586153,-0.067423,310.274637,188.420379,997.581219,996.104804,0
0.104167,-160.461838,159.789454,16.652805,0.561974,1.205584,-4.994964,3.323148,-1.114832,4.995568,-3.489529,-0.068979,0.583397,-0.074856,318.695864,188.495754,996.957248,997.201704,0
0.105208,-180.948603,109.896651,87.010984,1.913090,3.256819,-4.978873,1.377689,-3.011753,4.944838,-1.422921,-0.105440,0.563002,-0.082290,286.755997,188.344910,996.289209,997.430654,0
0.106250,-181.841297,29.243667,138.667740,2.926427,4.387017,-4.258806,-0.325533,-4.157885,4.348762,0.261401,-0.127317,0.559695,-0.093440,204.570227,188.495213,994.674691,997.242975,0
0.107292,-151.071600,-40.662633,174.539475,3.635763,5.098895,-2.830739,-2.248281,-4.767221,2.953692,2.233384,-0.178364,0.545846,-0.078573,106.183728,188.496235,992.706979,997.460643,0
0.108333,-95.148270,-109.276982,175.232121,3.624503,4.867718,-0.759037,-3.856880,-4.604006,0.924498,3.879856,-0.185656,0.545639,-0.086006,-20.967790,188.496116,991.946438,997.700950,0
0.109375,-10.557029,-150.619418,176.981961,3.793393,4.023739,1.099460,-4.787974,-3.842336,-0.973643,4.822320,-0.240349,0.588840,-0.067423,-144.088828,188.420649,991.372171,998.934985,0
0.110417,65.706167,-166.710081,140.976558,3.050279,2.478891,2.861413,-4.746340,-2.409671,-2.702685,4.867740,-0.251287,0.578229,-0.086006,-234.628275,188.496172,991.852717,999.979898,0
