1-Time,2-VGERA,3-VGERB,4-VGERC,5-VN,6-IGERAN,7-IGERBN,8-IGERCN,9-IGERAT,10-IGERBT,11-IGERCT,12-IN,13-IFD,14-IFAULT,15-VFAULT,16-Speed (rad/s),17-Active Power,18-Reactive Power,19-FAULT 
0.000000,137.584992,-182.119535,18.098854,0.742122,-3.006915,4.104705,-0.511615,3.313918,-4.013456,0.400731,0.019036,0.416176,0.003860,17.051572,188.721929,1194.106921,8.919619,0
0.001042,169.959278,-136.936481,-50.169238,-0.597734,-3.656411,3.188963,1.015505,4.031722,-3.042859,-1.175716,-0.017425,0.422171,0.018727,-1.648505,188.571161,1194.380019,8.522242,0
0.002083,195.463210,-63.694598,-101.206259,-1.611071,-4.162799,1.778558,2.743663,4.495066,-1.684025,-2.851166,-0.057533,0.420310,-0.022156,-12.422722,188.646379,1195.061722,7.939262,0
0.003125,166.072104,1.020408,-157.043190,-2.714483,-3.744479,0.384505,3.532353,4.062105,-0.264797,-3.688892,-0.086703,0.432506,-0.003573,-32.136048,188.721940,1195.893710,7.982360,0
0.004167,121.697297,63.186746,-189.779794,-3.356263,-2.819772,-1.352952,4.239854,3.112629,1.495218,-4.248644,-0.053887,0.428096,0.018727,-40.534758,188.646525,1196.373654,7.651025,0
0.005208,46.993491,118.388293,-187.568190,-3.322485,-1.219881,-2.939147,4.027217,1.449146,3.005034,-4.069676,-0.072118,0.431059,-0.029590,-46.355312,188.571118,1196.555912,7.919984,0
0.006250,-23.416344,166.883440,-158.659363,-2.770779,0.306619,-3.948916,3.551684,-0.028239,3.988572,-3.509923,-0.046595,0.427131,-0.003573,-50.363276,188.646489,1197.468271,7.879781,0
0.007292,-81.351061,181.870073,-94.899541,-1.520997,2.020263,-4.092000,1.962706,-1.794266,4.204260,-1.880167,-0.050241,0.418037,0.041027,-34.038705,188.721869,1197.834755,8.068117,0
0.008333,-137.059693,181.870073,-17.298966,-0.023510,3.469705,-4.063384,0.474247,-3.248863,4.044651,-0.463650,-0.021072,0.413765,0.003860,-15.304853,188.646411,1197.868871,7.477911,0
0.009375,-170.270173,135.770908,50.981278,1.293828,4.126540,-3.180347,-1.068337,-3.989455,3.108564,1.166107,0.051852,0.416659,0.000144,2.190584,188.571243,1198.358812,6.983897,0
0.010417,-195.446407,61.918285,101.362108,2.295906,4.614580,-1.733148,-2.827425,-4.403427,1.650513,2.814902,0.051852,0.407082,0.000144,14.608516,188.646565,1197.966672,6.956587,0
0.011458,-165.546805,-3.066856,157.016765,3.376799,4.071498,-0.306390,-3.612249,-3.909699,0.201089,3.664051,0.059144,0.431679,-0.003573,32.824485,188.721886,1198.645752,5.415209,0
0.012500,-120.573102,-64.105673,189.619700,4.052357,3.168808,1.447419,-4.265624,-2.956425,-1.515788,4.223804,0.084667,0.418106,0.018727,41.166903,188.570955,1199.517046,4.404504,0
0.013542,-45.541598,-118.520305,187.906314,3.973542,1.583596,3.025438,-4.064586,-1.327123,-3.029918,3.999141,0.055498,0.416521,0.000144,47.505340,188.571134,1199.633851,3.841217,0
0.014583,24.077242,-166.921492,158.657240,3.444354,0.101129,4.043383,-3.546525,0.146464,-3.987573,3.405118,0.055498,0.425822,-0.003573,48.845081,188.646484,1199.472061,3.630823,0
0.015625,81.548663,-182.236985,94.946026,2.205831,-1.608846,4.182379,-1.973011,1.939076,-4.190320,1.851518,0.029975,0.420999,0.000144,33.083426,188.721867,1200.720522,3.048568,0
0.016667,137.528493,-181.755439,18.111006,0.708344,-3.050948,4.084264,-0.488419,3.332907,-3.961691,0.355036,0.040913,0.415832,0.011294,17.029055,188.571009,1200.156075,2.180598,0
0.017708,170.727673,-136.325740,-49.962659,-0.608994,-3.660081,3.172611,1.027103,4.043115,-3.034232,-1.202371,-0.006487,0.422515,0.003860,-2.053805,188.571053,1200.350912,1.900557,0
0.018750,195.259811,-63.612383,-101.364231,-1.633590,-4.188485,1.807175,2.790057,4.529247,-1.666770,-2.847359,-0.075764,0.424169,-0.007290,-13.177030,188.646502,1200.600795,1.847728,0
0.019792,165.812206,1.384503,-157.237617,-2.725742,-3.726131,0.384505,3.551684,4.054509,-0.273425,-3.726970,-0.064826,0.430990,0.011294,-32.541348,188.722011,1200.889460,1.825642,0
0.020833,121.211400,63.456881,-189.597519,-3.356263,-2.797755,-1.340687,4.224390,3.070852,1.439139,-4.248644,-0.050241,0.434504,0.029877,-41.559266,188.571129,1200.234855,2.212209,0
0.021875,46.258996,118.482254,-187.653251,-3.277448,-1.142823,-2.939147,4.046548,1.475731,3.043858,-4.050637,-0.079410,0.424789,0.011294,-45.893721,188.570998,1200.384540,2.331946,0
0.022917,-24.083039,166.871695,-158.477087,-2.759520,0.332306,-3.965268,3.540085,-0.051027,3.971317,-3.490884,-0.050241,0.408873,0.011294,-50.464601,188.571064,1200.015281,2.227480,0
0.023958,-81.599659,181.917053,-94.413474,-1.464701,1.994577,-4.165587,2.005233,-1.836043,4.182691,-1.883975,-0.024718,0.431265,0.015011,-34.747980,188.721819,1199.998882,2.020777,0
0.025000,-137.308291,181.811348,-16.727837,-0.012251,3.469705,-4.067472,0.489711,-3.226076,4.061906,-0.402724,0.004452,0.415487,0.018727,-16.374394,188.571109,1199.895768,1.752147,0
0.026042,-170.123274,135.723928,51.345828,1.293828,4.097185,-3.159906,-1.060605,-3.959072,3.069741,1.196569,0.055498,0.419139,0.007577,2.618400,188.571151,1199.308335,1.285999,0
0.027083,-195.502907,61.659895,101.580838,2.318424,4.566877,-1.700443,-2.823559,-4.403427,1.667768,2.868212,0.037267,0.415556,0.011294,15.317790,188.646500,1199.787916,1.068799,0
0.028125,-165.501605,-3.149071,156.931703,3.410576,4.071498,-0.298214,-3.623847,-3.936284,0.239913,3.675474,0.077375,0.433332,0.026161,32.216535,188.721811,1200.152492,1.604856,0
0.029167,-120.200204,-64.046948,189.801975,4.018579,3.139452,1.451507,-4.234695,-2.994404,-1.476964,4.181917,0.099252,0.425753,0.007577,41.954986,188.571192,1199.754485,2.495111,0
0.030208,-45.801496,-118.590775,187.784797,3.996060,1.565248,2.972292,-4.033657,-1.338517,-3.042859,4.052451,0.088314,0.425960,0.007577,47.786798,188.495678,1200.512908,2.624111,0
0.031250,23.998143,-167.168137,158.499269,3.444354,0.101129,4.031119,-3.534926,0.154060,-3.974632,3.405118,0.084667,0.428165,-0.018440,49.340447,188.646469,1200.412364,2.628173,0
0.032292,81.639062,-181.896380,95.128301,2.205831,-1.594168,4.202820,-1.976877,1.893501,-4.190320,1.821056,0.037267,0.423755,0.018727,34.547008,188.721847,1199.922578,2.762217,0
0.033333,137.856190,-181.743694,18.208219,0.719604,-3.017923,4.104705,-0.503883,3.355694,-4.000515,0.374076,-0.002841,0.419346,0.000144,17.096605,188.571138,1200.638333,3.014969,0
0.034375,170.693773,-136.267015,-50.120631,-0.608994,-3.737140,3.193051,1.042568,4.054509,-3.055801,-1.221410,-0.002841,0.422791,0.007577,-1.479630,188.495741,1200.989726,2.977150,0
0.035417,195.474510,-63.213053,-101.595112,-1.577294,-4.217841,1.749941,2.743663,4.521651,-1.709907,-2.896861,-0.042949,0.420241,0.000144,-12.524047,188.721849,1201.503784,3.094176,0
0.036458,165.541008,1.901283,-157.504954,-2.691964,-3.740809,0.392681,3.563282,4.031722,-0.256170,-3.723162,-0.068472,0.434366,-0.014723,-32.327440,188.646411,1201.219954,2.998525,0
0.037500,120.759403,63.985407,-189.585367,-3.322485,-2.764730,-1.373392,4.243720,3.067054,1.439139,-4.225797,-0.083057,0.426994,0.000144,-40.455950,188.571170,1200.887854,3.226998,0
0.038542,45.490601,118.975544,-187.677555,-3.322485,-1.150161,-2.963676,4.100674,1.403571,3.082682,-4.062060,-0.093995,0.413145,-0.007290,-46.580479,188.495694,1201.107216,2.433378,0
0.039583,-24.794935,166.672030,-158.489239,-2.782039,0.361661,-3.973445,3.497558,-0.089006,4.066219,-3.479460,-0.057533,0.426442,0.011294,-50.385792,188.721831,1201.999280,1.652106,0
0.040625,-81.678759,182.445578,-93.356279,-1.475960,2.064297,-4.210556,1.920178,-1.908203,4.195632,-1.823049,-0.061180,0.416314,0.007577,-33.757247,188.571118,1202.191533,0.568301,0
0.041667,-137.308291,181.541213,-16.266074,-0.000992,3.539425,-4.092000,0.420121,-3.275449,4.048964,-0.360838,0.022683,0.412180,0.026161,-14.955845,188.571114,1202.344708,-0.189607,0
0.042708,-170.891669,134.854798,51.224311,1.316347,4.166905,-3.131289,-1.137928,-4.008445,3.043858,1.211801,0.033621,0.411147,-0.007290,2.348200,188.495617,1202.741996,-0.534961,0
0.043750,-195.570706,61.483720,101.568687,2.318424,4.559538,-1.675914,-2.839023,-4.414820,1.585807,2.879636,0.095606,0.432161,-0.007290,14.721099,188.721824,1202.576356,-1.450557,0
0.044792,-165.083508,-3.348736,157.587893,3.376799,4.159566,-0.232803,-3.627713,-3.943880,0.157952,3.728784,0.062790,0.412456,0.015011,32.925810,188.571089,1203.227571,-2.486665,0
0.045833,-120.550502,-64.281848,189.437425,3.973542,3.150461,1.500565,-4.223097,-2.948829,-1.554612,4.197149,0.073729,0.429267,-0.003573,41.099353,188.571160,1203.386380,-3.768210,0
0.046875,-45.552898,-119.095811,187.869859,4.018579,1.521215,3.013174,-4.056853,-1.292942,-3.068742,4.033412,0.091960,0.424169,0.022444,47.753023,188.495731,1203.312843,-4.386089,0
0.047917,24.190242,-166.862767,158.560027,3.478132,0.053426,4.006590,-3.507863,0.192039,-4.017770,3.382271,0.073729,0.430921,-0.014723,48.653689,188.721822,1203.531857,-5.172377,0
0.048958,81.718161,-182.589335,94.423504,2.217091,-1.638201,4.186468,-1.973011,1.977055,-4.181693,1.828671,0.066437,0.421137,-0.003573,32.903293,188.571058,1204.043316,-5.756413,0
0.050000,137.923990,-181.273894,18.062399,0.742122,-3.061957,4.104705,-0.476820,3.348099,-3.978946,0.324574,0.019036,0.418588,-0.011006,17.085347,188.571013,1203.554575,-6.272041,0
0.051042,171.281370,-135.574060,-50.059873,-0.608994,-3.707784,3.164435,1.069630,4.077297,-3.077370,-1.274720,-0.013779,0.420999,0.011294,-1.929963,188.495694,1204.152897,-6.619937,0
0.052083,195.350211,-62.555332,-101.655871,-1.566034,-4.177477,1.754029,2.797789,4.495066,-1.632259,-2.866398,-0.050241,0.419897,-0.011006,-13.255838,188.722007,1203.183210,-7.000584,0
0.053125,165.247209,2.641219,-157.675077,-2.680705,-3.693106,0.327271,3.555550,4.069701,-0.200091,-3.738394,-0.083057,0.433884,-0.007290,-32.676448,188.571040,1203.679055,-7.273240,0
0.054167,120.318706,64.290777,-189.415244,-3.311226,-2.735374,-1.389745,4.247586,3.036670,1.534041,-4.210566,-0.108580,0.418174,0.007577,-41.491716,188.571187,1203.580638,-8.366456,0
0.055208,44.778706,119.057759,-187.835526,-3.322485,-1.124475,-2.963676,4.034949,1.422560,3.065427,-4.062060,-0.057533,0.412938,-0.014723,-46.118887,188.495787,1203.497215,-7.826430,0
0.056250,-25.326031,166.648540,-158.258357,-2.782039,0.383678,-3.977533,3.470495,-0.142177,3.997199,-3.445190,-0.072118,0.431817,-0.007290,-50.554667,188.721994,1202.463574,-8.183108,0
0.057292,-81.927357,182.469068,-93.064639,-1.453441,2.053288,-4.136970,1.924044,-1.896809,4.225829,-1.796394,-0.028364,0.415625,-0.025873,-34.410230,188.570975,1202.586241,-8.211751,0
0.058333,-137.624689,181.412018,-16.071647,0.010268,3.510069,-4.079736,0.439452,-3.279247,4.036023,-0.345606,-0.024718,0.409493,0.011294,-16.126711,188.571055,1202.485190,-8.349263,0
0.059375,-170.880369,134.983993,51.515951,1.305087,4.141218,-3.135377,-1.095400,-4.016040,3.048172,1.242264,0.055498,0.413283,0.018727,2.719725,188.495645,1202.739127,-8.640192,0
0.060417,-195.469007,61.284054,101.957540,2.318424,4.574216,-1.671826,-2.835157,-4.418618,1.603062,2.872020,0.081021,0.420241,-0.022156,15.475407,188.721813,1202.825718,-8.253081,0
0.061458,-165.230407,-3.196051,157.575742,3.388058,4.075168,-0.290037,-3.612249,-3.928689,0.175207,3.740208,0.102898,0.427476,-0.007290,32.329119,188.495667,1202.824047,-8.267487,0
0.062500,-120.301904,-64.176143,189.765520,4.029838,3.132113,1.496477,-4.277223,-2.937435,-1.541670,4.162878,0.081021,0.431679,-0.003573,41.943728,188.571051,1202.316461,-8.142207,0
0.063542,-45.914495,-119.154536,187.626826,4.041097,1.513876,3.013174,-4.064586,-1.308134,-3.025604,3.991525,0.102898,0.426718,0.033594,47.944415,188.495655,1201.527181,-7.803719,0
0.064583,24.111142,-167.062432,158.389904,3.466873,0.064434,4.051559,-3.538792,0.180645,-3.970318,3.424157,0.081021,0.432850,0.011294,49.295414,188.721900,1201.425564,-7.131592,0
0.065625,81.966760,-182.248730,94.569324,2.205831,-1.590498,4.223261,-1.976877,1.958065,-4.186006,1.809632,0.040913,0.421619,-0.014723,34.366875,188.571187,1201.212377,-7.106107,0
0.066667,138.172588,-181.332619,17.977337,0.708344,-3.039940,4.080176,-0.457490,3.389876,-4.026397,0.370268,0.029975,0.420862,0.003860,17.130380,188.571102,1202.232526,-6.616491,0
0.067708,171.145770,-135.350905,-50.315058,-0.586475,-3.722462,3.209404,1.061898,4.103882,-3.064428,-1.267104,-0.017425,0.425133,-0.003573,-1.412080,188.495709,1202.341233,-6.627677,0
0.068750,195.451910,-61.979827,-101.898904,-1.633590,-4.173807,1.754029,2.786191,4.514056,-1.671083,-2.832127,-0.046595,0.424720,-0.022156,-12.715438,188.721918,1202.502737,-5.685068,0
0.069792,164.976011,3.240215,-157.869504,-2.725742,-3.700445,0.343623,3.594211,4.069701,-0.178522,-3.749817,-0.090349,0.429405,0.018727,-32.417506,188.570997,1202.590584,-5.784317,0
0.070833,119.979709,64.737087,-189.403092,-3.345004,-2.739043,-1.438803,4.259185,3.055660,1.534041,-4.282915,-0.072118,0.399640,0.003860,-40.410917,188.495752,1203.553712,-5.555790,0
0.071875,44.258909,119.445344,-187.714010,-3.345004,-1.139153,-2.988205,4.042682,1.392177,3.091309,-4.115370,-0.064826,0.407357,-0.018440,-46.850679,188.495566,1204.261989,-5.729658,0
0.072917,-25.789328,166.507600,-158.319116,-2.759520,0.380009,-4.006150,3.520755,-0.085208,4.040337,-3.418535,-0.032010,0.434435,0.011294,-50.419567,188.721873,1204.381923,-5.355594,0
0.073958,-82.040356,182.950614,-92.481359,-1.464701,2.093653,-4.165587,1.873785,-1.908203,4.247397,-1.826857,-0.035656,0.413558,-0.003573,-33.543339,188.571102,1204.946315,-4.997354,0
0.075000,-137.624689,181.188862,-15.889372,-0.000992,3.543094,-4.063384,0.412389,-3.302034,4.018768,-0.315144,0.004452,0.412249,0.015011,-14.741937,188.495700,1204.856003,-5.522641,0
0.076042,-171.558365,134.291037,51.370131,1.327606,4.181583,-3.110849,-1.130196,-4.050222,3.086996,1.257495,0.029975,0.414523,-0.048173,2.348200,188.570964,1205.629115,-5.347013,0
0.077083,-195.401207,61.166604,102.042602,2.295906,4.625589,-1.671826,-2.869952,-4.418618,1.624630,2.913906,0.059144,0.416039,0.000144,14.844940,188.721817,1206.006614,-5.469201,0
0.078125,-164.857509,-3.231286,158.268387,3.433095,4.067829,-0.261420,-3.658642,-3.955274,0.136383,3.766863,0.066437,0.429543,-0.025873,33.128460,188.570986,1206.613866,-5.790103,0
0.079167,-120.674801,-64.411044,189.291605,4.041097,3.132113,1.496477,-4.269490,-2.975414,-1.558926,4.235227,0.091960,0.431748,0.003860,41.076837,188.495653,1207.776597,-5.782825,0
0.080208,-45.767596,-119.636081,187.638977,4.018579,1.510206,3.082672,-4.060719,-1.289144,-3.133448,4.056259,0.077375,0.425547,-0.033307,47.921898,188.571067,1209.393664,-6.558897,0
0.081250,24.472740,-166.768807,158.523572,3.433095,0.024070,4.080176,-3.558123,0.207231,-4.030711,3.420349,0.077375,0.432161,0.007577,48.518589,188.646388,1209.983022,-7.120132,0
0.082292,81.944160,-183.023901,93.803769,2.194572,-1.645540,4.194644,-1.942082,2.015034,-4.242085,1.790593,0.059144,0.424238,0.000144,32.790710,188.571129,1210.935214,-7.723555,0
0.083333,138.070889,-181.038994,17.673545,0.742122,-3.069296,4.096529,-0.449757,3.393674,-4.022083,0.324574,0.029975,0.420724,-0.011006,17.074089,188.495769,1210.745810,-8.211735,0
0.084375,171.823766,-134.775399,-50.387968,-0.563957,-3.718792,3.193051,1.085095,4.141861,-3.051487,-1.263296,-0.017425,0.420448,0.003860,-1.941222,188.571122,1211.121763,-8.208888,0
0.085417,195.350211,-61.263381,-101.886752,-1.622331,-4.199493,1.754029,2.824852,4.563428,-1.619318,-2.893053,-0.061180,0.415487,0.003860,-13.435971,188.646545,1211.781709,-9.094295,0
0.086458,164.863012,3.886190,-157.978869,-2.703224,-3.682098,0.306830,3.652203,4.050711,-0.182836,-3.768856,-0.090349,0.434573,-0.011006,-32.732739,188.571141,1211.778046,-9.062425,0
0.087500,119.539012,65.101183,-189.257272,-3.322485,-2.757391,-1.418362,4.247586,3.044266,1.516786,-4.267684,-0.090349,0.418726,-0.022156,-41.390391,188.495754,1211.359318,-8.776419,0
0.088542,43.931211,119.574539,-187.908436,-3.345004,-1.076772,-2.992293,4.077477,1.399773,3.125819,-4.092523,-0.079410,0.400881,0.003860,-46.355312,188.495539,1211.442892,-8.947255,0
0.089583,-25.845828,166.601560,-158.161144,-2.748261,0.328636,-4.047031,3.493692,-0.104198,4.040337,-3.410919,-0.068472,0.448904,0.018727,-50.667251,188.646502,1211.385094,-9.166684,0
0.090625,-82.119456,182.891889,-92.177567,-1.430923,2.075305,-4.165587,1.873785,-1.915799,4.268966,-1.804010,-0.021072,0.411491,-0.018440,-34.196322,188.571111,1211.492901,-9.386938,0
0.091667,-137.884587,181.141882,-15.925827,0.010268,3.546764,-4.067472,0.423987,-3.324822,4.014454,-0.353222,0.004452,0.410458,0.018727,-16.059161,188.495647,1211.757918,-9.084034,0
0.092708,-171.377566,134.525937,51.418738,1.305087,4.214608,-3.127201,-1.118597,-4.057817,3.082682,1.242264,0.055498,0.417210,0.000144,2.640917,188.571009,1211.764203,-9.018104,0
0.093750,-195.559406,61.284054,102.285635,2.329684,4.629258,-1.684090,-2.846756,-4.433810,1.611689,2.883443,0.040913,0.418174,0.018727,15.542957,188.721909,1211.763767,-8.830852,0
0.094792,-164.959208,-3.137326,158.183325,3.365539,4.093515,-0.265509,-3.631579,-3.928689,0.196775,3.721169,0.088314,0.431541,0.003860,32.441702,188.571208,1211.042683,-8.058906,0
0.095833,-120.482702,-64.317084,189.668307,3.996060,3.198164,1.492388,-4.292687,-3.002000,-1.511474,4.239035,0.073729,0.429336,-0.014723,41.943728,188.495805,1211.136262,-7.298298,0
0.096875,-45.914495,-119.647826,187.481006,3.996060,1.539562,3.045879,-4.107113,-1.342315,-3.124821,4.037219,0.095606,0.429267,-0.007290,48.034481,188.646496,1211.002071,-6.716863,0
0.097917,24.619639,-167.050687,158.365600,3.466873,0.049756,4.092441,-3.546525,0.165454,-4.035025,3.427965,0.055498,0.429267,-0.007290,49.194089,188.646393,1211.110526,-6.102712,0
0.098958,82.317057,-182.683295,93.755162,2.217091,-1.660218,4.243701,-1.969145,1.973257,-4.216203,1.824863,0.022683,0.423480,-0.018440,34.265550,188.571094,1210.738026,-5.220867,0
0.100000,138.206488,-181.085974,17.223934,0.730863,-3.058287,4.100617,-0.476820,3.386078,-4.043652,0.351229,0.004452,0.418932,-0.022156,17.085347,188.495595,1210.973659,-4.621563,0
0.101042,171.462168,-134.610969,-50.825428,-0.597734,-3.781174,3.164435,1.112158,4.096286,-3.085997,-1.270912,-0.021072,0.421137,0.007577,-1.457114,188.719480,1210.682866,-4.172358,0
0.102083,195.508409,-60.770090,-102.020421,-1.622331,-4.254535,1.737676,2.805521,4.563428,-1.640887,-2.870206,-0.050241,0.429543,-0.003573,-12.828022,188.646498,1210.632381,-3.582601,0
0.103125,164.648313,4.379480,-158.124689,-2.703224,-3.696776,0.343623,3.625140,4.065903,-0.217346,-3.776472,-0.061180,0.433608,-0.022156,-32.485056,188.571428,1210.848497,-2.973476,0
0.104167,119.516412,65.359573,-189.293727,-3.322485,-2.724365,-1.418362,4.274649,3.029075,1.564238,-4.294338,-0.090349,0.411973,0.018727,-40.388400,188.496049,1211.281925,-3.587687,0
0.105208,43.852112,119.926890,-187.811223,-3.311226,-1.120806,-3.000469,4.077477,1.399773,3.143075,-4.100139,-0.068472,0.408528,-0.007290,-47.030812,188.722357,1211.541181,-3.609490,0
0.106250,-26.207425,166.484110,-158.282661,-2.725742,0.357992,-4.038855,3.516889,-0.126985,4.014454,-3.429958,-0.079410,0.412249,0.026161,-50.408309,188.571542,1211.476423,-3.553911,0
0.107292,-82.322855,183.291219,-91.946685,-1.475960,2.082644,-4.210556,1.877651,-1.946182,4.264653,-1.819241,-0.006487,0.419277,0.000144,-33.374464,188.571428,1211.789507,-3.600508,0
0.108333,-137.974987,180.977452,-15.828613,0.021527,3.524747,-4.063384,0.396924,-3.290640,4.027396,-0.360838,0.000805,0.413351,-0.007290,-14.696903,188.496147,1211.607985,-3.147241,0
0.109375,-172.247660,133.973922,51.321524,1.305087,4.196260,-3.127201,-1.153392,-4.065413,3.069741,1.253687,0.044560,0.418863,0.029877,2.269392,188.722299,1211.732547,-3.247212,0
0.110417,-195.299508,61.331034,102.419304,2.295906,4.629258,-1.688179,-2.862220,-4.437608,1.594434,2.891059,0.073729,0.419208,0.022444,14.946265,188.571525,1211.708988,-3.476568,0
0.111458,-164.710610,-3.031621,158.863819,3.376799,4.137549,-0.245068,-3.697304,-4.000849,0.132069,3.797325,0.084667,0.431610,0.003860,33.218526,188.571355,1213.311589,-4.192754,0
0.112500,-120.765200,-64.587219,189.072875,3.962282,3.201833,1.533270,-4.284955,-2.948829,-1.576181,4.242843,0.110191,0.433746,0.033594,41.088095,188.494828,1213.162489,-5.367207,0
