1-Time,2-VGERA,3-VGERB,4-VGERC,5-VN,6-IGERAN,7-IGERBN,8-IGERCN,9-IGERAT,10-IGERBT,11-IGERCT,12-IN,13-IFD,14-IFAULT,15-VFAULT,16-Speed (rad/s),17-Active Power,18-Reactive Power,19-FAULT 
0.000000,139.833677,69.681737,-166.910348,-3.007225,-4.922380,2.519520,2.639278,4.941167,-2.354277,-3.125977,0.004452,0.579263,0.011294,130.861976,188.495584,965.813693,1025.794408,0
0.001042,60.802000,122.827907,-185.235069,-3.311226,-4.687533,0.372171,4.359704,4.752198,-0.255410,-4.805235,-0.075764,0.578160,0.022444,52.267611,188.495481,966.055298,1025.927582,0
0.002083,-11.754821,159.460594,-159.279098,-2.759520,-3.748148,-1.329895,4.850702,3.759186,1.384880,-5.273599,-0.086703,0.582432,-0.033307,-16.565785,188.495591,966.029035,1026.753992,0
0.003125,-83.961344,178.417040,-107.986892,-1.870035,-2.012488,-3.352398,4.951221,1.980658,3.422016,-5.323101,-0.112226,0.577196,-0.025873,-86.705148,188.420233,965.971081,1026.421193,0
0.004167,-133.568016,177.266029,-29.341272,-0.350030,-0.276827,-4.509303,4.205059,0.268825,4.462630,-4.481568,-0.061180,0.576438,-0.063040,-133.303353,188.495506,965.757860,1026.630377,0
0.005208,-172.089461,146.869943,44.638105,1.102420,1.679002,-5.154340,2.882844,-1.669029,5.141675,-3.122169,-0.050241,0.569617,-0.048173,-166.943227,188.495589,965.293403,1026.593388,0
0.006250,-172.451059,87.956972,113.975544,2.431017,3.447688,-5.000364,0.988442,-3.403094,4.912387,-1.271558,0.011744,0.571064,0.000144,-167.596210,188.495399,964.644045,1026.790538,0
0.007292,-173.840950,4.332500,152.156096,3.207909,4.511835,-4.101473,-0.921425,-4.477621,4.043739,0.655210,0.044560,0.581123,0.000144,-168.575684,188.420160,964.255312,1027.759392,0
0.008333,-139.003280,-70.999994,166.713799,3.511910,4.893460,-2.528415,-2.661182,-4.829622,2.359354,2.376355,0.044560,0.578022,-0.011006,-129.982148,188.495564,963.581284,1027.789613,0
0.009375,-58.762510,-123.417974,185.512435,3.883467,4.691639,-0.422682,-4.350679,-4.692527,0.242850,4.044189,0.088314,0.569892,-0.022156,-51.117584,188.495508,962.697205,1027.898625,0
0.010417,13.206714,-159.463410,159.410644,3.376799,3.777941,1.300192,-4.930598,-3.718042,-1.454763,4.516362,0.088314,0.557766,-0.066757,17.006539,188.495334,962.869372,1028.316252,0
0.011458,84.543143,-178.490327,108.191348,2.397239,1.994577,3.314372,-5.034983,-1.954335,-3.478670,4.588711,0.121129,0.577265,-0.025873,86.864443,188.420148,962.593557,1028.175242,0
0.012500,133.573519,-177.433276,29.971037,0.911012,0.240569,4.512892,-4.315884,-0.227681,-4.607472,3.747178,0.102898,0.581467,0.000144,133.822915,188.495548,962.796826,1028.735715,0
0.013542,172.309663,-146.954975,-43.777458,-0.541438,-1.645540,5.128799,-2.947275,1.721290,-5.229195,2.422049,0.099252,0.577954,-0.033307,167.811797,188.420131,962.984929,1029.638479,0
0.014583,172.479162,-88.875900,-113.455144,-1.903813,-3.443582,4.970660,-1.099267,3.447944,-4.999907,0.514320,0.040913,0.574509,-0.022156,168.138288,188.495551,963.363149,1030.830213,0
0.015625,173.857753,-5.850423,-152.243280,-2.635668,-4.548093,4.063447,0.868592,4.607693,-4.073937,-1.366754,-0.006487,0.574784,-0.037023,169.083988,188.420063,963.270698,1031.748202,0
0.016667,139.698078,69.822677,-167.068319,-2.984706,-4.915041,2.540327,2.643144,4.892998,-2.393961,-3.129785,-0.039302,0.577333,0.007577,130.884492,188.495531,962.751542,1031.845717,0
0.017708,60.576001,123.027572,-185.222917,-3.356263,-4.724228,0.347201,4.351972,4.748493,-0.281867,-4.816658,-0.097641,0.583741,-0.044457,52.695428,188.419829,962.588279,1032.150092,0
0.018750,-11.562722,159.765964,-159.254794,-2.838335,-3.766496,-1.354864,4.889363,3.785123,1.389290,-5.269792,-0.083057,0.588151,-0.018440,-16.059161,188.420052,962.652143,1032.455119,0
0.019792,-84.017843,178.264355,-108.193470,-1.881295,-2.027165,-3.364883,4.955088,2.047353,3.461700,-5.326909,-0.064826,0.580021,0.000144,-86.716406,188.420157,962.835818,1033.129234,0
0.020833,-133.884414,177.207304,-29.730126,-0.361289,-0.258480,-4.500980,4.243720,0.228067,4.519952,-4.477761,-0.064826,0.579607,-0.011006,-133.618586,188.495642,963.884167,1033.002975,0
0.021875,-172.145961,146.975648,44.443678,1.091161,1.701019,-5.154340,2.894442,-1.694966,5.154903,-3.148824,-0.032010,0.575060,-0.040740,-166.853161,188.495620,964.290083,1033.271479,0
0.022917,-172.484959,88.074422,113.866179,2.453536,3.425671,-4.950425,0.976843,-3.414210,4.943253,-1.237287,0.008098,0.580710,-0.037023,-167.843893,188.420050,964.851304,1033.233729,0
0.023958,-173.874850,4.896261,152.216854,3.219168,4.563208,-4.043212,-0.921425,-4.518379,4.017282,0.647595,0.026329,0.551772,-0.003573,-168.553168,188.420086,965.340177,1033.078043,0
0.025000,-138.890281,-70.753349,167.066197,3.478132,4.875113,-2.540900,-2.680512,-4.818506,2.350535,2.422049,0.055498,0.567205,-0.025873,-129.464265,188.495437,965.872230,1032.809754,0
0.026042,-58.807710,-123.253544,185.901288,3.804652,4.728334,-0.376905,-4.385474,-4.699937,0.234031,4.036574,0.106545,0.560177,-0.037023,-50.599701,188.495506,966.003847,1032.803677,0
0.027083,13.636111,-159.663075,159.191914,3.343021,3.770602,1.300192,-4.915133,-3.666168,-1.428306,4.558248,0.121129,0.571546,-0.040740,17.873430,188.420150,966.006491,1032.754534,0
0.028125,84.893440,-178.502072,107.911859,2.419758,1.972560,3.355987,-5.011787,-1.965451,-3.447804,4.603942,0.095606,0.578436,-0.044457,87.427359,188.420180,965.561087,1033.162240,0
0.029167,133.776917,-177.245356,29.278392,0.911012,0.247908,4.471277,-4.284955,-0.201744,-4.528103,3.735754,0.077375,0.578711,-0.044457,133.935498,188.495571,964.649862,1032.688693,0
0.030208,172.027165,-147.084170,-44.457952,-0.563957,-1.656549,5.120476,-2.947275,1.691648,-5.215967,2.425857,0.088314,0.576920,-0.022156,167.417756,188.495484,964.097450,1032.849849,0
0.031250,172.140164,-88.100729,-113.783239,-1.926332,-3.428904,4.962337,-1.029676,3.422007,-4.964632,0.506704,0.026329,0.572510,-0.022156,168.093255,188.420115,963.337981,1032.497859,0
0.032292,173.835153,-5.286663,-152.231128,-2.646927,-4.529746,4.092578,0.845395,4.596577,-4.095983,-1.351522,-0.002841,0.575198,-0.025873,168.937630,188.495526,962.941439,1032.906282,0
0.033333,139.381680,70.362947,-166.715921,-2.984706,-4.911371,2.519520,2.596750,4.926346,-2.411599,-3.129785,-0.039302,0.580572,-0.011006,130.783167,188.495530,962.893902,1033.444056,0
0.034375,60.146604,123.180258,-185.028490,-3.333744,-4.720559,0.347201,4.324909,4.763314,-0.281867,-4.790004,-0.083057,0.581054,-0.003573,52.695428,188.495559,962.469345,1033.602175,0
0.035417,-12.105119,159.531064,-159.011761,-2.804557,-3.755487,-1.317410,4.862301,3.807355,1.349605,-5.258368,-0.068472,0.585946,0.003860,-15.980352,188.420065,961.712570,1034.013527,0
0.036458,-84.142143,178.358315,-108.229925,-1.824998,-2.049182,-3.344075,5.001481,2.047353,3.461700,-5.334525,-0.057533,0.585877,-0.029590,-86.513756,188.420245,961.775126,1034.143833,0
0.037500,-133.952213,177.019384,-30.131131,-0.338771,-0.295174,-4.463527,4.270783,0.309583,4.493496,-4.500608,-0.057533,0.582570,0.003860,-133.663620,188.495470,960.886903,1034.863659,0
0.038542,-172.552758,146.588063,43.933308,1.102420,1.594604,-5.129371,2.929237,-1.635682,5.185769,-3.171671,-0.013779,0.580572,-0.037023,-167.382302,188.495598,960.460621,1035.568496,0
0.039583,-172.371959,88.732143,114.084909,2.498573,3.366960,-5.012848,1.054166,-3.340105,4.934434,-1.256326,0.040913,0.572855,-0.003573,-167.551177,188.420207,959.600254,1035.598955,0
0.040625,-173.716651,5.683177,152.605708,3.230428,4.500827,-4.163896,-0.863433,-4.462800,4.056967,0.575246,0.062790,0.574991,0.000144,-168.508134,188.420092,958.516169,1036.177353,0
0.041667,-139.421377,-70.271804,166.713799,3.545688,4.853096,-2.553385,-2.645717,-4.840738,2.354945,2.281159,0.088314,0.564105,-0.018440,-129.982148,188.495577,957.240116,1036.485420,0
0.042708,-59.610005,-123.605894,185.245098,3.894726,4.720995,-0.422682,-4.362277,-4.666590,0.335447,3.998495,0.121129,0.546191,-0.003573,-50.757317,188.495477,955.947842,1036.826786,0
0.043750,12.992016,-159.651330,159.167611,3.343021,3.785279,1.279384,-4.903535,-3.725452,-1.309253,4.493515,0.095606,0.575335,-0.003573,17.884688,188.420113,954.199350,1037.551777,0
0.044792,84.916040,-178.361131,107.766039,2.374721,2.038610,3.251949,-5.007920,-2.017324,-3.465442,4.611558,0.095606,0.584017,-0.011006,87.618751,188.420079,954.121509,1038.138810,0
0.045833,133.878617,-177.292336,29.096117,0.843456,0.266255,4.446308,-4.304285,-0.246207,-4.532512,3.747178,0.102898,0.580916,-0.018440,133.901723,188.495374,953.779191,1038.705262,0
0.046875,172.128864,-146.661349,-44.895412,-0.586475,-1.623523,5.095506,-2.974338,1.654595,-5.158645,2.441088,0.088314,0.572304,0.007577,167.519081,188.495437,952.639010,1038.717178,0
0.047917,172.377462,-87.807104,-113.904756,-1.915073,-3.395879,4.999791,-1.076070,3.388660,-4.991088,0.560014,0.008098,0.569203,-0.022156,167.969414,188.420050,951.987250,1039.605732,0
0.048958,173.541355,-4.499747,-152.061005,-2.680705,-4.474704,4.071770,0.810600,4.563229,-4.109212,-1.343907,0.008098,0.548327,-0.003573,168.768755,188.420173,951.282527,1039.715915,0
0.050000,138.997483,70.914963,-166.837438,-3.018484,-4.893024,2.507035,2.577420,4.892998,-2.407190,-3.125977,-0.039302,0.571821,0.003860,130.479193,188.495497,950.813325,1039.575542,0
0.051042,59.366909,123.462138,-185.052793,-3.356263,-4.680194,0.392978,4.340373,4.774430,-0.317142,-4.755733,-0.053887,0.590149,-0.014723,52.200062,188.495626,949.967631,1040.095372,0
0.052083,-12.692715,159.754219,-159.036064,-2.759520,-3.722462,-1.317410,4.885497,3.807355,1.393699,-5.246945,-0.046595,0.587806,0.007577,-16.329360,188.420131,950.212565,1039.989240,0
0.053125,-84.673239,178.088180,-107.926133,-1.847517,-2.027165,-3.348237,4.970552,2.080701,3.448472,-5.338333,-0.028364,0.580089,-0.025873,-86.828989,188.419974,949.699711,1040.486201,0
0.054167,-134.110412,176.984149,-29.681519,-0.316252,-0.236463,-4.542596,4.235988,0.324404,4.497905,-4.504415,-0.035656,0.581399,-0.029590,-133.933819,188.495535,949.499456,1040.785239,0
0.055208,-172.270260,146.693768,44.237100,1.113679,1.623960,-5.150179,2.902174,-1.643092,5.128447,-3.175479,-0.021072,0.581881,-0.007290,-167.235944,188.495468,949.025076,1040.357870,0
0.056250,-172.383259,88.532478,114.084909,2.476055,3.414663,-5.021171,1.007772,-3.399389,4.925615,-1.298213,0.000805,0.573957,-0.011006,-167.843893,188.420061,949.330019,1040.716356,0
0.057292,-173.750550,5.788882,152.666466,3.174131,4.526513,-4.097312,-0.902094,-4.507264,4.070195,0.590477,0.037267,0.575473,0.033594,-168.474359,188.495381,949.993974,1040.992693,0
0.058333,-139.127579,-70.107373,167.199866,3.511910,4.875113,-2.524254,-2.641851,-4.822211,2.363764,2.364931,0.044560,0.576231,-0.003573,-129.756981,188.495544,950.790468,1040.833440,0
0.059375,-59.949002,-123.335759,185.463828,3.894726,4.702648,-0.418520,-4.366143,-4.666590,0.278125,4.028958,0.124775,0.576231,-0.003573,-51.342750,188.495550,951.741771,1040.326010,0
0.060417,12.494819,-159.745291,158.827364,3.388058,3.726568,1.266899,-4.899669,-3.677284,-1.401850,4.497323,0.102898,0.585601,0.000144,17.535680,188.344683,952.786273,1039.228987,0
0.061458,84.441443,-178.384622,108.021224,2.385980,2.009255,3.281080,-5.004054,-1.987682,-3.465442,4.554440,0.124775,0.578574,0.022444,87.461134,188.495499,952.719224,1038.217199,0
0.062500,134.025516,-176.846025,29.339150,0.877234,0.277263,4.446308,-4.254026,-0.235091,-4.528103,3.758601,0.106545,0.578711,-0.018440,134.104373,188.495463,952.722175,1038.179520,0
0.063542,172.061064,-146.884504,-44.822502,-0.597734,-1.652879,5.091345,-2.924078,1.702763,-5.154236,2.410625,0.084667,0.572717,-0.037023,167.248881,188.495450,953.360058,1037.576391,0
0.064583,172.151464,-87.760124,-114.038424,-1.937591,-3.421565,4.962337,-1.072204,3.373839,-4.946994,0.537167,0.029975,0.585670,-0.029590,168.014447,188.344616,953.046073,1036.885342,0
0.065625,173.778653,-4.217867,-152.097460,-2.703224,-4.467365,4.050962,0.833797,4.537293,-4.021024,-1.324867,-0.010133,0.560935,-0.051890,168.678688,188.495484,952.526028,1035.958519,0
0.066667,138.647185,71.490468,-166.570101,-2.973447,-4.823304,2.494551,2.573554,4.867061,-2.398371,-3.099322,-0.039302,0.544468,-0.007290,129.983826,188.495595,951.810592,1035.786191,0
0.067708,58.824513,123.626568,-185.235069,-3.356263,-4.617813,0.368009,4.297846,4.707735,-0.321551,-4.736694,-0.075764,0.546949,-0.037023,51.547079,188.495524,951.181285,1035.194184,0
0.068750,-13.325510,159.495829,-158.975306,-2.815817,-3.718792,-1.263310,4.815907,3.785123,1.345196,-5.227905,-0.072118,0.564587,-0.037023,-16.835985,188.420139,950.315893,1035.105940,0
0.069792,-84.887938,178.264355,-107.549431,-1.858776,-1.994140,-3.302460,4.939623,2.051059,3.408787,-5.292639,-0.086703,0.582088,-0.037023,-86.952831,188.495506,949.606720,1034.504459,0
0.070833,-133.907014,176.890189,-29.304817,-0.361289,-0.309852,-4.500980,4.224390,0.350341,4.467040,-4.477761,-0.053887,0.578436,-0.040740,-133.742428,188.495495,948.869999,1034.275399,0
0.071875,-172.168561,146.505848,44.480133,1.102420,1.623960,-5.116887,2.882844,-1.606040,5.115219,-3.133592,-0.042949,0.575266,-0.007290,-167.280977,188.495448,948.342332,1033.874382,0
0.072917,-172.168561,88.262343,114.291487,2.476055,3.355951,-5.037818,1.065764,-3.325284,4.907978,-1.324867,0.026329,0.572304,-0.022156,-167.461110,188.420169,947.080050,1033.947667,0
0.073958,-173.434152,5.401296,152.702921,3.241687,4.500827,-4.138927,-0.832504,-4.399811,4.083423,0.552399,0.073729,0.571821,-0.025873,-168.260451,188.495754,945.409027,1033.864124,0
0.075000,-139.172779,-70.248314,166.908226,3.500651,4.834749,-2.557546,-2.614788,-4.799980,2.425495,2.311621,0.055498,0.575818,-0.022156,-130.151022,188.495477,944.333991,1034.426058,0
0.076042,-59.949002,-123.617639,185.087126,3.849689,4.687970,-0.426843,-4.323616,-4.662885,0.322219,4.002303,0.124775,0.581123,-0.018440,-51.748050,188.495432,943.570858,1034.727894,0
0.077083,12.167121,-159.850996,158.875971,3.309243,3.755924,1.229446,-4.833945,-3.725452,-1.335709,4.447821,0.121129,0.584637,-0.022156,16.882697,188.420140,942.484901,1035.259838,0
0.078125,84.339744,-178.419857,108.167045,2.363462,2.075305,3.251949,-4.953795,-2.017324,-3.408120,4.558248,0.110191,0.582639,0.000144,87.281001,188.495492,941.765597,1035.618117,0
0.079167,134.025516,-176.916495,29.910279,0.888493,0.317628,4.396369,-4.300419,-0.257323,-4.484009,3.762409,0.117483,0.581261,-0.040740,134.036823,188.495544,941.269061,1035.578373,0
0.080208,172.501762,-146.590879,-44.202767,-0.575216,-1.623523,5.087183,-2.924078,1.669416,-5.118960,2.410625,0.102898,0.573268,-0.033307,167.575372,188.495542,940.659224,1035.396065,0
0.081250,172.253163,-88.265159,-113.965514,-1.892554,-3.329828,4.958176,-1.095400,3.429418,-4.942585,0.563822,0.019036,0.567619,-0.029590,167.913122,188.420055,941.284277,1035.584975,0
0.082292,173.473555,-4.769882,-152.206825,-2.646927,-4.430670,4.075932,0.814466,4.548408,-4.021024,-1.347715,0.000805,0.552598,-0.033307,168.644913,188.420104,941.682146,1035.375665,0
0.083333,138.940983,70.961943,-166.752376,-2.894632,-4.830643,2.507035,2.519428,4.841124,-2.433646,-3.087898,-0.032010,0.563002,0.003860,129.882501,188.495483,941.417339,1035.466495,0
0.084375,58.835813,123.685293,-185.125704,-3.356263,-4.639830,0.417947,4.301712,4.678093,-0.281867,-4.725270,-0.064826,0.561418,-0.011006,50.950387,188.495410,941.449017,1034.770609,0
0.085417,-13.461110,159.695494,-158.780879,-2.804557,-3.707784,-1.288280,4.827505,3.733250,1.367243,-5.208866,-0.079410,0.565689,-0.022156,-17.567776,188.344744,941.451833,1034.011273,0
0.086458,-85.430334,178.264355,-107.257791,-1.824998,-2.001479,-3.298298,4.912560,2.010301,3.382331,-5.319294,-0.072118,0.572235,-0.007290,-87.538264,188.495571,941.350858,1034.030915,0
0.087500,-134.065213,177.136834,-28.587869,-0.327511,-0.221785,-4.459365,4.193461,0.298467,4.471449,-4.492992,-0.053887,0.576920,0.018727,-133.956336,188.495481,941.754746,1034.026919,0
0.088542,-172.055562,146.564573,45.269992,1.102420,1.660655,-5.062787,2.848049,-1.639387,5.146085,-3.106937,-0.028364,0.571064,-0.040740,-166.909452,188.495541,942.321219,1034.005964,0
0.089583,-172.213761,87.404957,114.473762,2.498573,3.422002,-5.000364,0.984576,-3.358631,4.925615,-1.267750,-0.024718,0.566516,-0.007290,-167.652502,188.344824,942.908266,1033.810871,0
0.090625,-173.592351,4.825791,152.520646,3.219168,4.478810,-4.088989,-0.882763,-4.485032,4.056967,0.601900,0.051852,0.566930,-0.033307,-168.294226,188.495546,944.156771,1033.694435,0
0.091667,-138.472183,-70.659389,166.908226,3.534429,4.820071,-2.515931,-2.599324,-4.766632,2.376992,2.304006,0.073729,0.573268,0.018727,-129.430490,188.495595,943.715886,1033.001080,0
0.092708,-59.304907,-123.500189,185.281553,3.894726,4.691639,-0.426843,-4.366143,-4.659180,0.269306,3.952801,0.121129,0.580158,0.000144,-51.601692,188.497904,943.415918,1032.443414,0
0.093750,12.698218,-159.862741,158.535724,3.388058,3.744915,1.246092,-4.861008,-3.688400,-1.348937,4.455436,0.124775,0.584912,0.007577,16.882697,188.346923,943.421259,1032.092475,0
0.094792,84.690042,-178.314151,107.948314,2.408499,2.005585,3.293564,-4.996322,-1.943219,-3.403710,4.543017,0.146652,0.578849,-0.014723,87.371068,188.495825,943.503621,1031.255717,0
0.095833,134.375813,-176.423205,29.885975,0.877234,0.266255,4.421339,-4.284955,-0.238796,-4.475190,3.743370,0.099252,0.583190,-0.014723,134.442123,188.495645,943.374624,1030.898621,0
0.096875,172.513061,-146.837524,-44.312132,-0.552697,-1.557473,5.074699,-2.939543,1.680532,-5.154236,2.433472,0.113837,0.574922,-0.003573,167.597889,188.495767,943.806293,1031.424446,0
0.097917,172.140164,-88.323884,-114.196396,-1.948850,-3.348176,4.949853,-1.087668,3.370133,-4.933766,0.521936,0.062790,0.571477,-0.018440,168.025705,188.344809,943.334324,1030.942457,0
0.098958,173.518755,-5.368878,-152.462010,-2.669446,-4.482043,4.034316,0.856994,4.507650,-4.016615,-1.347715,-0.021072,0.572924,-0.018440,168.464780,188.495629,943.081104,1030.651983,0
0.100000,138.794084,70.844493,-166.691618,-2.962187,-4.845321,2.502874,2.500097,4.848535,-2.416008,-3.080283,-0.002841,0.573682,-0.003573,129.668593,188.495521,943.080870,1030.486377,0
0.101044,59.118311,123.697038,-185.405192,-3.266189,-4.625152,0.347201,4.282382,4.652156,-0.277457,-4.698615,-0.093995,0.565620,-0.011006,50.657671,188.495340,942.864962,1030.122263,0
0.102083,-13.257711,159.718984,-158.647211,-2.770779,-3.671089,-1.263310,4.765647,3.703607,1.380471,-5.178403,-0.075764,0.546328,-0.003573,-17.849234,188.344901,942.735880,1029.468068,0
0.103125,-85.046137,178.346570,-107.039061,-1.858776,-1.990471,-3.314944,4.862301,2.028827,3.391150,-5.277407,-0.075764,0.572373,-0.011006,-87.617072,188.495732,942.485042,1029.174546,0
0.104167,-134.155612,176.866699,-28.259774,-0.316252,-0.262149,-4.446880,4.185728,0.324404,4.374442,-4.458721,-0.042949,0.569617,-0.014723,-133.911303,188.495627,940.967426,1028.662125,0
0.105208,-171.919962,146.376652,45.804665,1.136198,1.656985,-5.079433,2.882844,-1.598629,5.088763,-3.106937,-0.013779,0.571064,-0.007290,-167.010777,188.495712,939.861139,1028.475765,0
0.106250,-172.055562,86.982136,114.850464,2.453536,3.385307,-4.917133,1.027103,-3.303052,4.890340,-1.248711,-0.006487,0.566447,-0.029590,-167.461110,188.344742,938.982038,1028.017539,0
0.107292,-173.377653,3.780485,152.727225,3.207909,4.500827,-4.072343,-0.902094,-4.444274,4.004054,0.582861,0.048206,0.545777,-0.003573,-168.069060,188.495664,938.029259,1027.573926,0
0.108333,-138.359184,-71.411070,166.896074,3.455614,4.834749,-2.507608,-2.599324,-4.774043,2.381401,2.334469,0.081021,0.558179,-0.014723,-129.419231,188.495673,938.269397,1027.831951,0
0.109375,-58.299213,-123.969990,185.621800,3.827171,4.676961,-0.426843,-4.366143,-4.618422,0.260488,4.006111,0.081021,0.574509,-0.007290,-50.779834,188.495673,938.565766,1027.757658,0
0.110417,13.455313,-160.109386,158.657240,3.343021,3.733907,1.254415,-4.888070,-3.706926,-1.353347,4.455436,0.095606,0.583121,-0.011006,17.411838,188.344903,938.491268,1028.188194,0
