1-Time,2-VGERA,3-VGERB,4-VGERC,5-VN,6-IGERAN,7-IGERBN,8-IGERCN,9-IGERAT,10-IGERBT,11-IGERCT,12-IN,13-IFD,14-IFAULT,15-VFAULT,16-Speed (rad/s),17-Active Power,18-Reactive Power,19-FAULT 
0.000000,72.537742,67.184799,-198.545834,-0.860802,2.141833,-6.013898,3.352832,-1.562064,6.040274,-3.285347,-0.055380,0.181429,-0.039427,19.534708,188.646437,991.464667,-1303.833603,0
0.001042,27.916346,147.184546,-170.071402,-0.374472,4.169042,-5.871029,1.192369,-3.653566,6.036077,-1.285837,-0.124787,0.182278,-0.069301,7.059778,188.571055,991.083081,-1304.045549,0
0.002083,-15.253211,196.897466,-105.674622,0.869628,5.592704,-4.501868,-1.441978,-4.984188,4.621791,1.254466,-0.175929,0.193776,-0.043161,-19.563961,188.571093,991.128283,-1304.019818,0
0.003125,-90.057002,190.470425,-57.220076,1.785738,6.458971,-2.831094,-3.729308,-5.980316,3.060622,3.556393,-0.197847,0.179077,-0.069301,-47.782411,188.495653,990.624569,-1303.670800,0
0.004167,-161.582810,142.424669,-12.520265,2.611368,6.018737,-0.592813,-5.296484,-5.502468,0.836374,5.050688,-0.223418,0.188158,-0.013287,-71.103630,188.721916,990.483846,-1302.941229,0
0.005208,-199.183199,86.574650,40.747727,3.685818,4.584425,1.923269,-6.087534,-4.190226,-1.660658,5.961497,-0.274560,0.194298,-0.050629,-72.302490,188.646427,990.627803,-1302.973778,0
0.006250,-173.310956,38.275196,123.721212,5.235288,2.873190,3.955184,-6.266640,-2.389108,-3.733824,6.057559,-0.245336,0.201027,-0.050629,-51.118860,188.571129,990.496114,-1303.496699,0
0.007292,-126.704621,-4.829469,189.225948,6.468078,0.672018,5.082262,-5.009168,-0.301282,-4.929881,5.040015,-0.234377,0.211609,-0.046895,-27.955981,188.495756,990.232408,-1303.632696,0
0.008333,-73.054594,-67.179015,198.372728,6.660348,-2.011992,6.213309,-3.475575,2.429800,-6.021022,3.417637,-0.223418,0.199851,-0.035692,-15.345331,188.721978,990.674549,-1303.313926,0
0.009375,-27.968154,-147.335813,170.046023,6.162708,-4.017900,6.022817,-1.326306,4.517626,-6.008432,1.467936,-0.154011,0.189399,-0.028224,-2.270972,188.646435,990.849843,-1303.237029,0
0.010417,15.541677,-197.036652,105.403031,4.907298,-5.423810,4.673498,1.319235,5.877654,-4.619326,-1.111502,-0.117481,0.171108,-0.013287,23.990848,188.571091,990.625399,-1303.251411,0
0.011458,89.937138,-190.150537,56.948485,4.002498,-6.357533,2.998756,3.621491,6.914216,-3.053960,-3.349388,-0.033462,0.177575,-0.054364,53.804007,188.495640,990.812088,-1302.978675,0
0.012500,161.689796,-141.440332,12.384091,3.199488,-5.910198,0.796192,5.184935,6.392259,-0.838106,-4.932630,-0.018850,0.188354,-0.050629,76.141257,188.721891,991.045585,-1302.976941,0
0.013542,198.643663,-85.662798,-40.822349,2.147658,-4.461684,-1.719891,5.987179,5.068989,1.671516,-5.768724,-0.033462,0.193906,-0.069301,78.301467,188.646496,991.232379,-1303.215476,0
0.014583,172.669337,-38.245250,-124.522159,0.530328,-2.697196,-3.791491,6.166285,3.275223,3.765666,-5.914596,0.021333,0.197826,-0.046895,57.445827,188.571123,992.305102,-1303.928135,0
0.015625,126.686840,5.439299,-189.263637,-0.623292,-0.527976,-4.930475,4.867768,1.139612,4.940740,-4.822337,-0.007891,0.216378,-0.035692,31.466758,188.572418,992.358421,-1303.900189,0
0.016667,73.104867,68.308323,-198.471970,-0.860802,2.173786,-6.081364,3.330444,-1.639255,6.078044,-3.278231,-0.048074,0.210238,-0.031958,20.122828,188.721898,992.380895,-1305.120247,0
0.017708,27.973058,147.402002,-169.874432,-0.340542,4.154841,-5.922621,1.169981,-3.642539,6.015093,-1.282279,-0.117481,0.192534,-0.046895,6.890128,188.646594,992.225614,-1304.838944,0
0.018750,-15.865706,198.141799,-105.009849,0.869628,5.645958,-4.533616,-1.475561,-5.020945,4.646971,1.307833,-0.161317,0.187766,-0.020755,-19.914571,188.571205,992.790725,-1305.659649,0
0.019791,-90.431305,189.805975,-56.715341,1.797048,6.498025,-2.787440,-3.818861,-6.035452,3.060622,3.584855,-0.205153,0.176791,-0.054364,-48.393150,188.571100,993.146118,-1306.062448,0
0.020833,-163.272843,141.071608,-12.310985,2.611368,6.125245,-0.632499,-5.371111,-5.590686,0.798604,5.118287,-0.230724,0.185741,-0.039427,-72.257250,188.721797,994.232935,-1307.208629,0
0.021875,-198.661444,84.979971,41.215530,3.651888,4.630578,1.955018,-6.154699,-4.212280,-1.732002,5.989960,-0.285519,0.195147,-0.065566,-71.148870,188.571044,994.285980,-1307.435552,0
0.022916,-172.970681,37.598665,125.173864,5.291838,2.901593,4.010745,-6.363655,-2.422190,-3.775791,6.142947,-0.256295,0.206187,-0.028224,-51.345060,188.571198,995.839023,-1308.284352,0
0.023958,-126.364346,-5.276463,189.078220,6.456768,0.640065,5.114011,-5.027825,-0.282903,-4.980242,5.047130,-0.227071,0.203640,-0.061832,-26.824981,188.571165,995.915957,-1308.743649,0
0.025000,-73.088621,-68.495834,198.668182,6.637728,-2.029744,6.296649,-3.531546,2.440828,-6.083972,3.481678,-0.230724,0.201157,-0.054364,-14.429221,188.721902,997.490995,-1309.501467,0
0.026041,-28.557964,-147.359975,169.652084,6.083538,-4.049852,6.070440,-1.322575,4.521302,-6.037808,1.450147,-0.164970,0.195735,-0.035692,-2.440621,188.646487,997.387728,-1309.848262,0
0.027083,15.870610,-198.595089,105.033712,4.941228,-5.516117,4.701278,1.390131,5.870302,-4.690670,-1.136407,-0.110175,0.187635,-0.031958,24.262288,188.570946,998.547362,-1310.332634,0
0.028125,90.458893,-189.051175,57.108523,3.991188,-6.353983,2.955101,3.688655,6.910540,-3.095927,-3.434776,-0.059033,0.178228,-0.050629,51.903927,188.571002,998.571962,-1310.804991,0
0.029166,163.549966,-140.824206,12.396402,3.176868,-5.942150,0.784286,5.240905,6.410638,-0.821319,-4.975324,-0.022503,0.187047,-0.069301,76.638897,188.721811,999.241651,-1311.487922,0
0.030208,198.008483,-84.696326,-41.339394,2.113728,-4.447483,-1.803231,6.028224,5.080016,1.688303,-5.797187,-0.007891,0.193514,-0.061832,74.682267,188.646484,999.468305,-1311.404496,0
0.031250,172.567254,-36.976755,-125.334659,0.519018,-2.732699,-3.839114,6.211061,3.183329,3.786649,-5.971521,-0.000585,0.207886,-0.035692,55.568367,188.571189,999.459494,-1311.974593,0
0.032291,125.541247,5.995021,-189.288258,-0.702462,-0.506674,-4.918569,4.849111,1.154315,4.982707,-4.840126,-0.029809,0.164118,-0.050629,28.899388,188.571046,999.997444,-1311.873938,0
0.033333,71.607657,68.924450,-198.828978,-0.872112,2.198638,-6.093270,3.367757,-1.602498,6.065454,-3.260442,-0.084604,0.175027,-0.031958,19.568638,188.721847,1000.421162,-1310.929328,0
0.034375,27.950373,147.679863,-169.357387,-0.329232,4.158391,-5.886904,1.121473,-3.675621,6.048667,-1.228911,-0.102869,0.202921,-0.058098,7.048468,188.646476,1000.169369,-1311.571069,0
0.035416,-16.171954,198.588792,-104.665152,0.869628,5.653058,-4.521711,-1.501680,-5.079757,4.680545,1.307833,-0.150358,0.189138,-0.024490,-20.174701,188.571073,1000.951993,-1312.213211,0
0.036458,-91.157225,189.141525,-56.752273,1.830978,6.476723,-2.755691,-3.803936,-6.017073,3.048032,3.602645,-0.194194,0.178555,-0.046895,-47.816341,188.571111,1000.765925,-1312.026830,0
0.037500,-164.044133,140.914556,-12.249432,2.633988,6.047139,-0.572970,-5.341260,-5.561280,0.798604,5.093382,-0.212459,0.186982,-0.046895,-72.053670,188.721853,1000.791913,-1311.595138,0
0.038541,-198.389224,85.173265,41.843371,3.663198,4.545372,1.986767,-6.128579,-4.171847,-1.681641,5.961497,-0.256295,0.194168,-0.046895,-71.544720,188.646415,1000.700749,-1310.730747,0
0.039583,-172.891283,37.405371,125.592425,5.280528,2.883841,3.990902,-6.296491,-2.378081,-3.771594,6.110927,-0.278213,0.198087,-0.046895,-50.858730,188.571098,1000.170031,-1310.485095,0
0.040625,-125.593056,-5.856346,189.558334,6.502008,0.632965,5.090199,-5.001705,-0.246146,-5.001225,5.004436,-0.234377,0.211413,-0.058098,-27.514891,188.646560,999.745458,-1310.456294,0
0.041666,-71.636781,-68.918665,198.606629,6.660348,-2.026193,6.284743,-3.501695,2.455531,-6.092365,3.431868,-0.230724,0.215529,-0.084238,-15.051271,188.721958,999.462820,-1310.089328,0
0.042708,-27.514454,-147.722402,169.245834,6.117468,-4.071154,6.030754,-1.255410,4.561735,-6.054595,1.428800,-0.150358,0.188419,-0.043161,-2.112632,188.571212,999.688979,-1310.306147,0
0.043750,16.449078,-198.764221,104.245834,4.929918,-5.491265,4.685404,1.337892,5.929114,-4.627720,-1.125734,-0.124787,0.165033,-0.054364,24.714688,188.571069,999.560658,-1310.317859,0
0.044791,91.014676,-188.894123,56.345265,4.002498,-6.350432,2.927321,3.714775,6.917891,-2.999403,-3.441892,-0.051727,0.176922,-0.076769,54.041517,188.646533,998.859407,-1310.302556,0
0.045833,164.241859,-140.316808,12.519508,3.142938,-5.931500,0.700946,5.237174,6.443720,-0.762566,-4.989555,-0.055380,0.183454,-0.043161,77.034747,188.721905,998.801207,-1310.908210,0
0.046875,197.736263,-84.889620,-41.905682,2.079798,-4.426182,-1.819105,6.028224,4.995474,1.726073,-5.750935,0.003068,0.192796,-0.061832,77.668107,188.571147,997.539247,-1310.576305,0
0.047916,172.329062,-37.363344,-126.344129,0.451158,-2.682995,-3.851020,6.196136,3.223762,3.811830,-5.935943,-0.011544,0.196781,-0.035692,57.038667,188.571120,997.858601,-1310.562084,0
0.048958,125.597960,6.297043,-189.362122,-0.657222,-0.432119,-4.970161,4.856574,1.080800,4.974314,-4.825894,-0.026156,0.212067,-0.046895,30.969118,188.721947,997.167951,-1310.866589,0
0.050000,71.539602,69.830517,-198.607387,-0.872112,2.234140,-6.101207,3.322981,-1.668661,6.107421,-3.267558,-0.066339,0.201484,-0.061832,19.806148,188.721967,997.414235,-1311.754754,0
0.051041,27.179083,147.824834,-168.951137,-0.340542,4.208095,-5.819438,1.099085,-3.671945,6.040274,-1.228911,-0.106522,0.188942,-0.046895,6.618688,188.571328,997.566731,-1311.292238,0
0.052083,-16.829819,199.615669,-103.507955,0.880938,5.709863,-4.505836,-1.550188,-5.061378,4.655365,1.378990,-0.135746,0.184565,-0.054364,-20.321731,188.571084,997.294694,-1311.291197,0
0.053125,-91.316020,188.561642,-56.075190,1.842288,6.483823,-2.739817,-3.871100,-6.046479,3.031245,3.673801,-0.216112,0.174505,-0.028224,-48.585420,188.721851,997.085104,-1311.919048,0
0.054166,-165.405233,139.766871,-11.953977,2.645298,6.082642,-0.576938,-5.374842,-5.579659,0.786014,5.160981,-0.223418,0.186263,-0.065566,-72.856680,188.721895,997.683817,-1312.540918,0
0.055208,-197.788072,84.629625,42.261932,3.674508,4.573774,2.014547,-6.169624,-4.175523,-1.769772,6.018422,-0.248989,0.195605,-0.043161,-70.492890,188.571091,997.413535,-1313.553416,0
0.056250,-172.698461,37.743636,127.155872,5.314458,2.880291,4.054399,-6.363655,-2.396460,-3.855528,6.146505,-0.289172,0.201288,-0.073035,-51.152790,188.571084,998.134828,-1314.854300,0
0.057291,-125.956016,-5.989236,189.312122,6.513318,0.583261,5.086231,-4.997974,-0.249821,-4.971848,4.983089,-0.234377,0.212589,-0.058098,-26.463061,188.721876,997.872402,-1314.477122,0
0.058333,-71.920344,-70.162998,198.705114,6.660348,-2.082998,6.288712,-3.512889,2.529046,-6.125939,3.463889,-0.208806,0.200831,-0.046895,-14.112541,188.721842,998.465894,-1315.573345,0
0.059375,-27.684592,-147.722402,168.679546,6.117468,-4.085355,6.070440,-1.262873,4.572763,-6.046202,1.375432,-0.168623,0.191947,-0.069301,-2.293592,188.571015,997.724970,-1315.708602,0
0.060416,16.823380,-200.020635,103.519508,4.907298,-5.594223,4.705247,1.393863,5.962196,-4.724244,-1.168428,-0.106522,0.187831,-0.069301,24.759928,188.571073,999.077152,-1316.627855,0
0.061458,91.411663,-187.939731,56.222159,3.991188,-6.361083,2.871761,3.733432,6.910540,-3.041370,-3.463239,-0.051727,0.178294,-0.046895,52.107507,188.721963,999.403648,-1316.353718,0
0.062500,165.296712,-139.664439,12.027083,3.131628,-5.931500,0.748569,5.248368,6.465774,-0.796139,-4.961093,-0.026156,0.187178,-0.054364,77.193087,188.721991,1000.455214,-1315.743961,0
0.063541,197.350618,-83.536559,-42.398106,2.091108,-4.411980,-1.838948,6.017030,4.999150,1.747057,-5.790071,0.010374,0.192926,-0.050629,74.060217,188.571098,1000.731780,-1315.720209,0
0.064583,172.329062,-36.324386,-127.168940,0.530328,-2.714947,-3.902612,6.184942,3.212735,3.811830,-5.946616,-0.022503,0.196258,-0.073035,55.421337,188.571113,1001.250346,-1315.587781,0
0.065625,125.008150,6.574904,-189.337501,-0.657222,-0.467621,-4.918569,4.819260,1.007285,4.957527,-4.793874,-0.055380,0.221996,-0.061832,28.842838,188.721802,1000.301143,-1315.453887,0
0.066666,71.482890,70.482886,-198.730493,-0.838182,2.205738,-6.109144,3.337906,-1.642931,6.111617,-3.274673,-0.080951,0.191489,-0.035692,19.455538,188.721907,1000.831576,-1315.238865,0
0.067708,27.666811,148.211423,-168.594129,-0.317922,4.247148,-5.807532,1.069234,-3.712378,6.006700,-1.168428,-0.099216,0.190771,-0.065566,6.799648,188.571069,999.816648,-1315.770974,0
0.068750,-16.999956,199.857287,-103.434091,0.880938,5.724064,-4.517742,-1.535263,-5.054027,4.672152,1.386106,-0.150358,0.177510,-0.061832,-20.559241,188.570982,1000.059850,-1315.794187,0
0.069791,-92.064625,188.259619,-56.161364,1.797048,6.451871,-2.704099,-3.863637,-5.995019,2.968294,3.652454,-0.194194,0.178163,-0.046895,-47.963371,188.721989,999.340226,-1315.122777,0
0.070833,-165.790878,139.682304,-11.621591,2.633988,6.086192,-0.596781,-5.386036,-5.579659,0.781817,5.153866,-0.230724,0.185414,-0.031958,-72.687030,188.722020,999.546061,-1315.012543,0
0.071875,-197.788072,83.953094,42.766667,3.663198,4.545372,2.030421,-6.165893,-4.102008,-1.773968,6.000633,-0.270907,0.190052,-0.087972,-71.035770,188.571323,998.896656,-1314.458991,0
0.072916,-172.516981,36.487222,127.131250,5.314458,2.809285,4.058368,-6.322610,-2.311917,-3.834545,6.121600,-0.263601,0.200308,-0.069301,-50.655150,188.495765,998.100990,-1313.813598,0
0.073958,-124.753711,-6.665767,189.607576,6.490698,0.551309,5.114011,-4.930809,-0.198361,-4.976045,4.972416,-0.230724,0.194298,-0.050629,-27.198211,188.721884,997.823514,-1313.615285,0
0.075000,-70.638641,-70.440859,198.692804,6.615108,-2.075897,6.296649,-3.427067,2.506991,-6.058792,3.417637,-0.197847,0.201811,-0.043161,-15.017341,188.798188,997.296458,-1312.270810,0
0.076041,-27.344317,-148.205638,168.494887,6.072228,-4.088905,6.002974,-1.191977,4.550708,-5.983251,1.389664,-0.190541,0.196585,-0.058098,-1.897742,188.571120,997.167920,-1311.430366,0
0.077084,17.424533,-199.815260,103.433334,4.873368,-5.551620,4.669529,1.434908,5.943817,-4.602539,-1.157754,-0.084604,0.190379,-0.054364,25.370668,188.495656,996.042632,-1310.636000,0
0.078125,92.103556,-187.891408,56.369887,3.991188,-6.290078,2.867792,3.733432,6.892161,-2.995206,-3.481028,-0.029809,0.179012,-0.039427,54.335577,188.721880,995.565340,-1310.749740,0
0.079166,165.818467,-139.434902,11.891667,3.142938,-5.895997,0.712851,5.237174,6.392259,-0.758369,-4.971766,0.006721,0.189007,-0.050629,77.532387,188.721907,994.736590,-1310.624456,0
0.080208,197.203165,-83.705692,-42.939773,2.102418,-4.362277,-1.866728,5.994642,5.013853,1.751253,-5.772282,-0.015197,0.193972,-0.076769,77.283567,188.571219,994.932386,-1310.483765,0
0.081250,172.090869,-36.288143,-127.895266,0.451158,-2.647492,-3.847051,6.184942,3.150247,3.824420,-5.918153,-0.040768,0.200635,-0.043161,56.744607,188.495803,994.238049,-1310.520429,0
0.082291,124.679217,7.360163,-189.509849,-0.691152,-0.417917,-4.930475,4.804335,1.007285,4.991100,-4.754738,-0.015197,0.208016,-0.046895,30.720298,188.721824,994.185218,-1310.483625,0
0.083333,70.246557,71.413116,-198.705872,-0.906042,2.248342,-6.105176,3.364026,-1.698067,6.115814,-3.221306,-0.048074,0.186982,-0.076769,19.512088,188.721953,993.788004,-1310.536624,0
0.084375,26.407793,148.404717,-168.249432,-0.295302,4.232947,-5.795626,1.058039,-3.752811,6.036077,-1.189775,-0.117481,0.225393,-0.046895,6.313318,188.571002,994.584717,-1310.597438,0
0.085416,-17.782589,200.678789,-102.560038,0.937488,5.685011,-4.513774,-1.527800,-5.134893,4.667955,1.382548,-0.161317,0.192404,-0.017021,-20.864611,188.571163,995.374478,-1311.152010,0
0.086458,-92.597722,187.571008,-55.767424,1.830978,6.490924,-2.712036,-3.871100,-6.017073,2.980884,3.606202,-0.212459,0.179731,-0.054364,-49.026510,188.721799,996.025715,-1310.473187,0
0.087500,-167.401513,139.114502,-11.436932,2.656608,6.082642,-0.561064,-5.397231,-5.572308,0.748244,5.171655,-0.274560,0.186459,-0.084238,-73.241220,188.646482,996.268516,-1310.780983,0
0.088541,-197.220947,84.073903,43.468371,3.685818,4.541821,2.050264,-6.162161,-4.179198,-1.803345,5.989960,-0.285519,0.194168,-0.046895,-70.063110,188.571064,996.949836,-1310.902285,0
0.089583,-172.482953,36.753002,128.731629,5.325768,2.819936,4.113928,-6.356193,-2.367054,-3.863922,6.167852,-0.252642,0.200896,-0.054364,-50.836110,188.571111,998.359654,-1311.634899,0
0.090625,-124.776396,-6.967789,189.435228,6.479388,0.505155,5.149728,-4.956929,-0.157928,-4.988635,4.961742,-0.230724,0.218077,-0.058098,-25.954111,188.722012,997.957945,-1311.910509,0
0.091666,-70.581929,-71.709354,198.889773,6.649038,-2.139802,6.332366,-3.483038,2.569479,-6.163709,3.431868,-0.241683,0.197107,-0.028224,-13.807171,188.646513,998.901766,-1313.489654,0
0.092708,-26.879274,-148.217719,167.928599,6.140088,-4.124408,6.026785,-1.162126,4.598493,-5.983251,1.336296,-0.150358,0.189464,-0.054364,-1.976912,188.571060,998.350102,-1313.898065,0
0.093750,18.105083,-201.301211,102.251515,4.873368,-5.590673,4.705247,1.378937,5.962196,-4.678080,-1.211122,-0.080951,0.181364,-0.046895,25.246258,188.571165,999.567516,-1314.520427,0
0.094791,92.523228,-186.924936,55.335796,4.002498,-6.353983,2.875730,3.725969,6.877458,-2.944846,-3.473913,-0.095563,0.181103,-0.024490,52.412877,188.721916,999.152402,-1313.746804,0
0.095833,167.315677,-138.432187,11.374621,3.154248,-5.938600,0.752537,5.237174,6.458423,-0.745779,-5.018018,-0.062686,0.191293,-0.073035,77.588937,188.646473,1000.341205,-1314.424205,0
0.096875,196.488588,-82.944595,-43.481440,2.102418,-4.383578,-1.858791,6.061807,4.958716,1.810007,-5.754492,-0.040768,0.192404,-0.046895,73.607817,188.571017,999.342459,-1314.178978,0
0.097916,172.090869,-36.674732,-129.200190,0.439848,-2.725598,-3.918486,6.214793,3.209059,3.887370,-5.967963,0.006721,0.188419,-0.073035,55.262997,188.571180,1000.600857,-1315.318697,0
0.098958,124.622505,7.287677,-189.583713,-0.713772,-0.357563,-4.982066,4.830454,1.029340,4.944937,-4.751180,-0.022503,0.202856,-0.013287,28.435678,188.721929,1000.676626,-1314.654891,0
0.100000,70.734285,72.065485,-198.804357,-0.860802,2.244791,-6.176610,3.308056,-1.687040,6.170371,-3.253326,-0.055380,0.205338,-0.073035,19.082308,188.570955,1001.625458,-1315.254276,0
0.101041,27.008945,148.694659,-167.707766,-0.283992,4.286201,-5.851186,1.054308,-3.745460,6.015093,-1.154197,-0.124787,0.194298,-0.050629,6.539518,188.571017,1000.985542,-1315.199706,0
0.102083,-18.168234,201.343238,-102.067614,0.937488,5.741815,-4.485993,-1.580039,-5.123866,4.642775,1.407453,-0.175929,0.185806,-0.054364,-21.090811,188.571190,1000.855306,-1315.124306,0
0.103125,-92.994710,187.111933,-55.250379,1.842288,6.458971,-2.672351,-3.867369,-6.017073,2.951508,3.673801,-0.175929,0.176530,-0.017021,-48.155640,188.721790,1000.423386,-1315.564434,0
0.104166,-167.877898,138.341324,-11.042992,2.656608,6.075541,-0.529315,-5.415887,-5.550253,0.739851,5.189444,-0.241683,0.185675,-0.035692,-73.309080,188.646442,1000.405876,-1315.379322,0
0.105208,-196.948727,82.974541,43.960796,3.731058,4.495668,2.054233,-6.117385,-4.083629,-1.807542,5.982844,-0.248989,0.194233,-0.020755,-70.379790,188.571114,999.522212,-1314.687310,0
0.106250,-172.256103,35.822773,129.224053,5.303148,2.798635,4.074242,-6.326342,-2.300890,-3.838741,6.142947,-0.259948,0.179796,-0.043161,-50.621220,188.571123,999.042988,-1314.078171,0
0.107291,-124.107189,-7.390621,189.730682,6.468078,0.526457,5.137822,-4.912152,-0.128522,-4.959258,4.933279,-0.190541,0.187112,-0.035692,-27.209521,188.721958,998.648040,-1313.549676,0
0.108333,-70.604614,-72.313399,198.742046,6.637728,-2.104300,6.316492,-3.471844,2.529046,-6.142726,3.410521,-0.175929,0.204097,-0.069301,-14.960791,188.571085,998.703497,-1312.903470,0
0.109375,-27.298947,-148.894250,167.682387,6.094848,-4.106657,5.975194,-1.162126,4.554384,-5.949678,1.314949,-0.132093,0.199916,-0.061832,-1.603682,188.571158,998.365528,-1312.399117,0
0.110416,18.479385,-201.385778,102.189962,4.862058,-5.580022,4.693341,1.431176,6.002629,-4.661293,-1.221796,-0.091910,0.187766,-0.046895,25.970098,188.646464,998.370477,-1312.805764,0
