1-Time,2-VGERA,3-VGERB,4-VGERC,5-VN,6-IGERAN,7-IGERBN,8-IGERCN,9-IGERAT,10-IGERBT,11-IGERCT,12-IN,13-IFD,14-IFAULT,15-VFAULT,16-Speed (rad/s),17-Active Power,18-Reactive Power,19-FAULT 
0.000000,-69.486139,-78.810426,199.098004,4.176209,-0.133773,5.983045,-5.022641,0.415762,-5.721110,5.227315,-0.203887,0.317925,-0.097156,62.377587,188.571031,1498.562304,-923.430201,0
0.001042,-15.528996,-151.652979,172.303568,3.568207,-2.500583,6.526113,-3.183161,2.795074,-6.482058,3.520282,-0.203887,0.270935,-0.071140,13.358842,188.495750,1499.127221,-924.367322,0
0.002083,31.569093,-193.946760,106.648086,2.340943,-4.694928,5.894545,-0.533704,4.724638,-5.784523,0.825366,-0.130964,0.298082,-0.100873,-28.645968,188.495631,1500.584403,-925.523379,0
0.003125,103.255819,-192.020578,48.708915,1.271309,-6.258124,4.639456,2.032484,6.374923,-4.702286,-1.850626,-0.087210,0.310828,-0.093440,-96.049557,188.721987,1500.309236,-926.301537,0
0.004167,165.394108,-143.689862,-2.303803,0.291750,-6.617732,2.716595,4.193683,6.636067,-2.685775,-4.000503,-0.003348,0.315858,-0.082290,-157.981601,188.571151,1500.926198,-927.172295,0
0.005208,203.226258,-83.132590,-55.552428,-0.744105,-5.909524,0.057575,5.813637,6.139168,-0.107008,-5.768096,-0.014286,0.320612,-0.093440,-186.003571,188.495651,1501.413123,-927.970135,0
0.006250,176.569735,-29.904204,-136.227377,-2.387963,-4.548149,-2.263536,6.608474,4.760908,2.163152,-6.532665,0.003945,0.315445,-0.078573,-164.927987,188.495678,1502.585128,-928.730244,0
0.007292,130.861537,18.884568,-190.764079,-3.457597,-2.606998,-4.041579,6.207270,2.954662,4.031701,-6.316920,0.007591,0.355613,-0.082290,-122.743045,188.721924,1502.210194,-929.032117,0
0.008333,70.734634,79.007275,-198.869244,-3.592708,0.233174,-5.883986,5.211832,0.223531,5.824155,-5.170066,0.000299,0.335012,-0.108307,-63.220283,188.571040,1503.086681,-930.177963,0
0.009375,16.924390,151.814592,-172.026201,-3.097299,2.647687,-6.459235,3.398846,-2.094122,6.576648,-3.466819,-0.043455,0.333152,-0.115740,-13.875046,188.495736,1503.437556,-930.324992,0
0.010417,-31.292392,193.803003,-106.686663,-1.813739,4.790659,-5.827668,0.700186,-4.041821,5.870657,-0.760547,-0.094502,0.322886,-0.082290,28.895330,188.495785,1503.715754,-930.428452,0
0.011458,-103.871812,191.688901,-49.148497,-0.676550,6.390549,-4.544419,-1.862217,-5.724749,4.830696,1.885164,-0.156487,0.312137,-0.093440,96.681702,188.721998,1504.322125,-930.546213,0
0.012500,-165.761503,143.381675,2.483956,0.303010,6.757497,-2.581331,-4.049911,-6.022163,2.784592,4.076676,-0.214826,0.315169,-0.078573,158.658779,188.571147,1505.240480,-931.009529,0
0.013542,-203.232056,82.859638,55.963463,1.338865,6.111669,0.073666,-5.685005,-5.478113,0.197371,5.874549,-0.254934,0.318545,-0.089723,185.712533,188.495674,1506.035955,-930.931831,0
0.014583,-176.123535,29.208432,136.322468,2.892649,4.698922,2.426959,-6.464702,-4.088972,-2.136202,6.612623,-0.273164,0.329362,-0.123173,165.222382,188.571076,1506.418712,-931.320595,0
0.015625,-129.782541,-19.462890,191.090052,3.984801,2.706399,4.213047,-6.063498,-2.322623,-4.008978,6.423373,-0.258580,0.337217,-0.052556,122.035449,188.646522,1506.469570,-932.194154,0
0.016667,-68.898543,-79.327206,199.195217,4.119912,-0.126435,6.035341,-5.056705,0.419389,-5.792977,5.261380,-0.200241,0.340317,-0.082290,61.859704,188.571080,1507.507559,-932.595037,0
0.017708,-15.415997,-152.005329,171.829653,3.669540,-2.507922,6.610590,-3.194516,2.740669,-6.490513,3.539207,-0.200241,0.352444,-0.078573,13.640300,188.495703,1507.908638,-931.720051,0
0.018750,31.828991,-194.745421,105.858227,2.340943,-4.698598,5.987068,-0.514780,4.739146,-5.843707,0.821581,-0.116379,0.334323,-0.093440,-29.040009,188.571107,1508.911252,-931.756364,0
0.019792,103.775616,-191.621248,48.830432,1.282569,-6.309496,4.715888,2.047623,6.425701,-4.731878,-1.827916,-0.068979,0.312413,-0.104590,-96.387307,188.646440,1509.753518,-931.755686,0
0.020833,166.456301,-142.844221,-1.963556,0.291750,-6.727816,2.728663,4.250457,6.708607,-2.736505,-4.042138,-0.076271,0.319027,-0.063706,-159.287567,188.571087,1511.176172,-932.126961,0
0.021875,203.079359,-82.909434,-55.989888,-0.755365,-6.001261,0.053552,5.889335,6.179065,-0.145056,-5.847581,-0.028871,0.323299,-0.086006,-185.474430,188.495758,1512.367122,-932.455255,0
0.022917,176.174237,-30.080379,-137.393937,-2.376704,-4.628878,-2.352036,6.737161,4.833448,2.239247,-6.634859,0.014883,0.333910,-0.100873,-164.747854,188.570957,1514.212675,-933.754905,0
0.023958,130.816337,19.131213,-190.885596,-3.345004,-2.629015,-4.105942,6.275399,2.969170,4.078203,-6.403975,0.054991,0.353477,-0.112023,-122.551653,188.571125,1515.502970,-934.432756,0
0.025000,70.271337,79.982110,-199.173036,-3.637746,0.244182,-6.016736,5.317810,0.219904,5.942525,-5.276046,-0.032517,0.338733,-0.078573,-62.499750,188.571089,1517.902582,-935.254463,0
0.026042,16.562792,151.720632,-171.625196,-3.097299,2.680712,-6.575894,3.391276,-2.159408,6.699245,-3.474389,-0.050748,0.334461,-0.086006,-13.649879,188.495651,1518.986000,-936.458996,0
0.027083,-31.507090,195.517775,-105.532254,-1.802480,4.922760,-5.980531,0.677476,-4.161512,6.022847,-0.764332,-0.120025,0.327295,-0.104590,29.086721,188.571027,1521.737432,-937.773485,0
0.028125,-104.109111,190.913731,-48.917615,-0.665290,6.489625,-4.624874,-1.907637,-5.804543,4.877198,1.949509,-0.149195,0.313240,-0.115740,97.368460,188.571093,1522.459221,-938.747861,0
0.029167,-168.134487,142.019254,2.082951,0.280491,6.893267,-2.581331,-4.110470,-6.189005,2.797275,4.216721,-0.229410,0.316823,-0.086006,160.662761,188.571122,1524.949409,-940.840069,0
0.030208,-202.700959,82.190172,56.109283,1.372643,6.119008,0.150098,-5.794768,-5.565161,0.159323,5.965389,-0.236703,0.319510,-0.093440,185.183392,188.495741,1525.990612,-941.871905,0
0.031250,-175.841037,28.950042,138.084460,2.971464,4.794329,2.507413,-6.608529,-4.230425,-2.195387,6.748883,-0.269518,0.328536,-0.093440,165.087283,188.495834,1529.267547,-942.860224,0
0.032292,-129.398343,-19.956180,190.810564,3.984801,2.699060,4.273388,-6.127842,-2.366147,-4.076618,6.461223,-0.269518,0.336115,-0.086006,121.618891,188.571093,1530.170254,-943.124724,0
0.033333,-68.084949,-80.478217,199.802801,4.153690,-0.148451,6.188204,-5.143759,0.452032,-5.928257,5.382499,-0.262226,0.315100,-0.112023,61.217980,188.571141,1532.867496,-944.289989,0
0.034375,-15.110899,-151.723449,171.343586,3.635763,-2.606998,6.691044,-3.213440,2.813209,-6.613110,3.558132,-0.192949,0.324608,-0.086006,13.550233,188.495698,1533.963431,-945.507621,0
0.035417,31.975890,-196.847777,104.643060,2.363462,-4.808682,6.079591,-0.526134,4.833448,-5.970532,0.783731,-0.127317,0.324333,-0.059989,-29.006234,188.569023,1536.160316,-946.890654,0
0.036458,104.205013,-190.493727,48.951948,1.271309,-6.346191,4.756115,2.104398,6.538138,-4.774153,-1.869551,-0.094502,0.313653,-0.112023,-97.096581,188.567726,1537.087706,-947.924298,0
0.037500,168.795386,-141.998580,-1.574703,0.291750,-6.819553,2.712572,4.299661,6.850060,-2.719595,-4.140548,0.003945,0.323092,-0.104590,-161.066382,188.571116,1539.109362,-949.757716,0
0.038542,202.356164,-82.662789,-56.330135,-0.834180,-6.004930,0.005280,5.942325,6.211708,-0.085871,-5.938420,-0.014286,0.326055,-0.112023,-185.046613,188.495807,1539.409444,-951.021931,0
0.039583,176.185537,-29.986419,-138.791379,-2.466778,-4.720615,-2.356058,6.831785,4.876972,2.239247,-6.706774,-0.025225,0.314204,-0.071140,-164.849179,188.495731,1541.112622,-951.336507,0
0.040625,130.262641,19.366113,-190.788383,-3.446337,-2.614337,-4.166283,6.294324,2.954662,4.154298,-6.396405,0.014883,0.352030,-0.086006,-121.752312,188.571265,1541.001964,-951.967308,0
0.041667,69.615941,80.581106,-199.792771,-3.603968,0.277208,-6.073054,5.329165,0.201769,5.967890,-5.325251,-0.021578,0.334392,-0.082290,-61.869284,188.495812,1542.063892,-952.151549,0
0.042708,16.427193,151.885062,-171.054068,-3.052262,2.691721,-6.591985,3.398846,-2.166662,6.690790,-3.481959,-0.036163,0.334737,-0.056273,-13.481004,188.495772,1542.025102,-951.876764,0
0.043750,-31.665289,196.692276,-104.487210,-1.802480,4.974133,-5.960418,0.685046,-4.208663,6.027074,-0.741622,-0.105440,0.336252,-0.123173,29.368179,188.495826,1542.490224,-952.273574,0
0.044792,-104.515908,190.244265,-48.662430,-0.699068,6.540998,-4.632919,-1.918991,-5.877083,4.877198,1.949509,-0.138256,0.314204,-0.119457,97.481043,188.571292,1542.996499,-952.560703,0
0.045833,-169.094981,141.279318,2.228771,0.291750,6.915284,-2.621558,-4.129395,-6.221648,2.784592,4.205366,-0.225764,0.317374,-0.074856,161.709785,188.561663,1543.500409,-952.362681,0
0.046875,-202.474961,81.685137,56.571047,1.350125,6.148364,0.125961,-5.813693,-5.572415,0.117048,5.961604,-0.243995,0.320130,-0.089723,184.834384,188.496040,1543.372479,-952.390528,0
0.047917,-175.694138,28.491986,138.570527,3.005242,4.764973,2.527527,-6.638809,-4.201409,-2.199614,6.771593,-0.247641,0.334116,-0.104590,164.985958,188.495921,1543.470617,-952.468998,0
0.048958,-128.946346,-20.120611,191.029294,4.007319,2.728415,4.285456,-6.127842,-2.308115,-4.110438,6.465008,-0.262226,0.326675,-0.108307,121.123525,188.495911,1543.139434,-953.084185,0
0.050000,-67.519952,-80.795333,199.936469,4.209987,-0.177807,6.180159,-5.177823,0.495556,-5.894437,5.356004,-0.236703,0.288780,-0.123173,60.970296,188.571317,1542.548844,-952.969694,0
0.051042,-15.020499,-152.193249,170.991187,3.658281,-2.551956,6.691044,-3.175591,2.856733,-6.566607,3.535422,-0.192949,0.296221,-0.071140,13.640300,188.495886,1541.956980,-953.110524,0
0.052083,32.235788,-197.129658,104.181296,2.352202,-4.834368,6.071545,-0.510995,4.862464,-5.953622,0.791301,-0.141902,0.326262,-0.093440,-29.343984,188.495991,1542.084049,-953.092238,0
0.053125,104.510111,-190.258827,48.951948,1.293828,-6.379216,4.768183,2.096828,6.487360,-4.795291,-1.884691,-0.072625,0.316891,-0.086006,-97.276715,188.496156,1541.937816,-952.656278,0
0.054167,169.484681,-141.528780,-1.526096,0.269232,-6.823222,2.708549,4.311016,6.853687,-2.749187,-4.163258,-0.006994,0.322541,-0.115740,-161.809431,188.571610,1542.455703,-952.601232,0
0.055208,202.254465,-82.686279,-56.609624,-0.822920,-6.056303,0.013325,5.976389,6.222589,-0.090098,-5.919495,0.007591,0.327364,-0.100873,-184.607539,188.495989,1542.575803,-952.309462,0
0.056250,175.891739,-29.821989,-139.508328,-2.466778,-4.720615,-2.360081,6.862064,4.866091,2.264612,-6.744624,0.011237,0.331567,-0.082290,-164.545204,188.496244,1542.970423,-952.737748,0
0.057292,130.251341,19.835914,-190.836989,-3.480115,-2.629015,-4.154215,6.332173,2.951035,4.107796,-6.407760,0.018530,0.348930,-0.097156,-121.504629,188.496092,1543.110097,-952.152804,0
0.058333,69.005745,81.461982,-199.780620,-3.603968,0.273538,-6.129372,5.340519,0.212650,6.005937,-5.332821,-0.014286,0.338871,-0.086006,-61.193784,188.571748,1543.814800,-951.994758,0
0.059375,16.009096,151.943787,-170.969006,-3.074780,2.724746,-6.583939,3.342072,-2.177543,6.716155,-3.459249,-0.083563,0.333979,-0.126890,-13.244580,188.496167,1543.873958,-952.203661,0
0.060417,-32.015587,197.502681,-103.721655,-1.757442,5.029175,-5.992599,0.632057,-4.292084,6.056667,-0.722697,-0.098148,0.346587,-0.108307,29.683412,188.629272,1544.704729,-953.031648,0
0.061458,-104.775806,189.692250,-48.176364,-0.699068,6.518981,-4.616828,-1.990905,-5.880710,4.877198,1.960864,-0.163779,0.313722,-0.071140,98.010184,188.476889,1544.676244,-952.798673,0
0.062500,-170.315373,140.821263,2.204467,0.314269,6.966656,-2.597422,-4.178599,-6.189005,2.784592,4.250786,-0.273164,0.318063,-0.093440,162.610451,188.476030,1544.790305,-952.997403,0
0.063542,-202.022964,81.027416,56.838383,1.383902,6.152034,0.125961,-5.825047,-5.576042,0.155096,5.972959,-0.269518,0.320474,-0.078573,184.541667,188.486848,1545.046793,-952.370037,0
0.064583,-175.513339,28.233596,139.579116,3.005242,4.786990,2.527527,-6.669088,-4.205036,-2.254571,6.835937,-0.233057,0.316616,-0.086006,164.940924,188.555051,1545.934071,-953.266526,0
0.065625,-128.720348,-20.672626,190.689047,3.962282,2.710068,4.325684,-6.093778,-2.279099,-4.072391,6.472578,-0.269518,0.323368,-0.108307,120.819550,188.488959,1545.657238,-952.794253,0
0.066667,-67.180955,-81.570503,200.203806,4.142431,-0.133773,6.220386,-5.162683,0.524572,-5.919802,5.378714,-0.225764,0.308072,-0.086006,60.823938,188.566536,1546.301790,-953.109487,0
0.067708,-14.670202,-151.887879,170.687395,3.624503,-2.625346,6.699090,-3.175591,2.845852,-6.613110,3.508927,-0.189302,0.305867,-0.078573,13.572750,188.496111,1546.340007,-953.174730,0
0.068750,32.393987,-198.116238,104.047628,2.340943,-4.871063,6.087636,-0.469360,4.891480,-5.957849,0.779946,-0.134610,0.318614,-0.082290,-29.467825,188.496143,1546.811459,-953.633963,0
0.069792,104.792609,-189.659831,48.976252,1.293828,-6.375547,4.727956,2.138462,6.494614,-4.744561,-1.914971,-0.054394,0.317305,-0.082290,-97.884664,188.496016,1546.108960,-953.944897,0
0.070833,170.479075,-141.270390,-1.671916,0.257972,-6.775519,2.728663,4.337511,6.835552,-2.694230,-4.140548,-0.036163,0.324333,-0.082290,-162.417381,188.496154,1545.793572,-953.787497,0
0.071875,201.836368,-82.392654,-56.913415,-0.845439,-6.012269,0.001257,5.946109,6.208081,-0.081643,-5.858936,0.007591,0.324264,-0.093440,-184.652572,188.496161,1545.219262,-952.965628,0
0.072917,176.027338,-29.446149,-139.848575,-2.466778,-4.687589,-2.380195,6.824215,4.829821,2.260384,-6.718129,0.029468,0.337630,-0.082290,-164.657787,188.494446,1544.837723,-952.713680,0
0.073958,129.833243,20.082559,-190.824838,-3.345004,-2.588651,-4.162261,6.286754,2.965543,4.099341,-6.343415,0.011237,0.352444,-0.078573,-121.043038,188.496082,1544.235342,-952.033713,0
0.075000,68.711947,81.426747,-200.023653,-3.581449,0.295555,-6.081099,5.287530,0.150991,5.967890,-5.249551,-0.010640,0.337010,-0.089723,-60.979876,188.496060,1542.766329,-952.302064,0
0.076042,15.715298,152.002512,-170.713821,-3.018484,2.750432,-6.527621,3.334502,-2.159408,6.631605,-3.421399,-0.061686,0.325297,-0.097156,-12.951863,188.496100,1541.610445,-951.550811,0
0.077083,-32.128586,197.303016,-103.648745,-1.791220,4.992480,-5.912145,0.609347,-4.208663,5.980572,-0.718912,-0.098148,0.314687,-0.089723,29.807254,188.495953,1540.409919,-950.416774,0
0.078125,-105.114804,189.680505,-47.811813,-0.687809,6.474947,-4.528328,-1.968196,-5.826305,4.784193,1.994929,-0.152841,0.310415,-0.067423,98.066476,188.496206,1539.017936,-950.316199,0
0.079167,-169.784277,140.668578,2.714838,0.303010,6.882259,-2.561217,-4.152105,-6.120092,2.746545,4.190226,-0.196595,0.314204,-0.097156,162.250185,188.496121,1537.817896,-949.255074,0
0.080208,-202.056863,80.874731,57.190782,1.406421,6.089652,0.174234,-5.741779,-5.492621,0.108593,5.908614,-0.258580,0.317167,-0.074856,184.440343,188.496214,1536.392858,-948.798181,0
0.081250,-175.400339,27.752051,139.263172,2.982723,4.698922,2.491322,-6.559325,-4.096226,-2.216524,6.726173,-0.254934,0.315582,-0.112023,164.783308,188.496056,1534.238324,-947.689927,0
0.082292,-128.403950,-20.778331,191.053597,4.029838,2.644017,4.257297,-6.014294,-2.253710,-4.042798,6.389308,-0.265872,0.285129,-0.082290,120.853325,188.496094,1533.161098,-947.118174,0
0.083333,-66.954956,-81.417818,199.778497,4.176209,-0.119096,6.119818,-5.075630,0.477421,-5.818342,5.280305,-0.236703,0.322955,-0.089723,60.925263,188.420792,1531.431204,-945.578666,0
0.084375,-14.545902,-152.275464,170.808912,3.579466,-2.610668,6.570363,-3.099892,2.776939,-6.486285,3.459722,-0.189302,0.350515,-0.093440,13.707850,188.496203,1529.994292,-944.242472,0
0.085417,32.766885,-197.000463,104.144841,2.295906,-4.771987,5.987068,-0.473145,4.793551,-5.856390,0.742096,-0.149195,0.326400,-0.126890,-29.839350,188.496100,1527.937576,-943.064266,0
0.086458,105.165507,-190.129632,49.037010,1.271309,-6.261793,4.659570,2.123322,6.440209,-4.714968,-1.914971,-0.094502,0.313929,-0.112023,-97.817114,188.496141,1527.484470,-942.748431,0
0.087500,169.597681,-141.329115,-1.987859,0.235454,-6.731486,2.656254,4.292092,6.752131,-2.681548,-4.148118,-0.054394,0.321646,-0.086006,-161.775656,188.420699,1526.267488,-942.388713,0
0.088542,201.949367,-82.157754,-57.302269,-0.890476,-5.935210,-0.047016,5.866626,6.121033,-0.035141,-5.824871,0.007591,0.319716,-0.067423,-184.258531,188.496134,1524.996808,-942.220300,0
0.089583,175.631841,-29.117288,-139.654148,-2.511815,-4.599522,-2.368126,6.748516,4.735519,2.247702,-6.631074,0.029468,0.334737,-0.074856,-164.286263,188.496109,1523.092959,-941.493389,0
0.090625,129.675045,20.564104,-190.788383,-3.446337,-2.522600,-4.113988,6.203485,2.914765,4.095113,-6.309350,-0.003348,0.347621,-0.097156,-121.054296,188.493235,1522.355736,-941.480192,0
0.091667,68.361650,81.779097,-199.525434,-3.637746,0.335919,-6.032827,5.226971,0.118348,5.929842,-5.181421,0.003945,0.340524,-0.097156,-60.642126,188.420770,1521.114875,-941.167358,0
0.092708,15.082502,152.026002,-170.568001,-3.097299,2.739424,-6.499462,3.277728,-2.163035,6.610468,-3.368409,-0.021578,0.315100,-0.104590,-12.456497,188.496025,1520.434657,-941.057604,0
0.093750,-32.704882,196.868451,-103.272043,-1.768702,4.952116,-5.851804,0.597992,-4.183274,5.946752,-0.643213,-0.116379,0.320543,-0.082290,30.336395,188.496058,1519.370867,-940.988668,0
0.094792,-105.058304,189.574800,-47.313595,-0.665290,6.441922,-4.488101,-2.006045,-5.797289,4.779966,1.987359,-0.163779,0.306556,-0.089723,98.325417,188.496129,1519.147795,-940.440014,0
0.095833,-169.739077,140.386697,3.091539,0.359306,6.816208,-2.500876,-4.148320,-6.101957,2.670450,4.224291,-0.218472,0.312000,-0.074856,161.946210,188.420725,1518.306993,-940.993127,0
0.096875,-201.864765,80.428421,57.373057,1.417680,6.038280,0.190325,-5.692575,-5.423708,0.057864,5.923754,-0.280457,0.314824,-0.071140,184.327759,188.496176,1517.274748,-941.312392,0
0.097917,-175.287340,27.493660,139.433296,3.039020,4.687914,2.459140,-6.521476,-4.099853,-2.241889,6.669398,-0.258580,0.325986,-0.100873,164.625691,188.420708,1516.837874,-941.003909,0
0.098958,-128.460450,-21.224642,190.652592,4.018579,2.622001,4.229138,-6.014294,-2.206559,-4.038571,6.343888,-0.251287,0.326606,-0.108307,120.977167,188.420824,1515.883802,-940.970084,0
0.100000,-66.853257,-81.852384,199.608374,4.209987,-0.170468,6.091659,-5.007501,0.549961,-5.814115,5.215960,-0.247641,0.323988,-0.115740,60.981555,188.420766,1514.826309,-941.547373,0
0.101042,-14.252104,-152.064054,170.590182,3.624503,-2.584981,6.550249,-3.054473,2.856733,-6.452465,3.421872,-0.233057,0.296221,-0.071140,13.257517,188.496212,1513.946464,-942.246606,0
0.102083,33.071983,-196.988718,104.242055,2.363462,-4.786665,5.938795,-0.408801,4.826194,-5.776068,0.658826,-0.152841,0.319096,-0.104590,-30.064517,188.496185,1512.608668,-943.105024,0
0.103125,105.380205,-189.671576,48.660308,1.237532,-6.236107,4.599229,2.164957,6.425701,-4.617736,-1.888476,-0.083563,0.314480,-0.071140,-98.233672,188.420866,1511.518008,-942.594234,0
0.104167,169.563781,-141.540525,-2.522533,0.201676,-6.643418,2.620049,4.299661,6.672337,-2.601225,-4.106483,-0.068979,0.317236,-0.086006,-161.618040,188.420797,1510.092995,-942.094496,0
0.105208,201.678169,-81.206408,-57.411634,-0.890476,-5.836134,-0.087243,5.832561,6.063001,0.032499,-5.813516,-0.010640,0.317649,-0.104590,-184.438664,188.496187,1508.882298,-942.108302,0
0.106250,175.744840,-28.764938,-139.423266,-2.421741,-4.493107,-2.364104,6.642538,4.688368,2.260384,-6.547805,0.003945,0.332256,-0.093440,-164.286263,188.496246,1507.600877,-941.674976,0
0.107292,129.381246,20.763770,-190.654714,-3.423819,-2.471228,-4.061693,6.116432,2.813209,4.065521,-6.192015,-0.006994,0.345140,-0.089723,-120.727805,188.420629,1505.311641,-941.456174,0
0.108333,67.954852,81.685137,-199.464676,-3.626486,0.324911,-5.936281,5.109638,0.121975,5.815700,-5.101937,-0.003348,0.329500,-0.093440,-60.383185,188.420746,1503.635779,-940.241662,0
0.109375,14.551405,152.108217,-170.397877,-3.063521,2.735754,-6.362690,3.213384,-2.206559,6.483643,-3.292709,-0.032517,0.330189,-0.115740,-11.961131,188.496192,1501.687693,-940.069406,0
