1-Time,2-VGERA,3-VGERB,4-VGERC,5-VN,6-IGERAN,7-IGERBN,8-IGERCN,9-IGERAT,10-IGERBT,11-IGERCT,12-IN,13-IFD,14-IFAULT,15-VFAULT,16-Speed (rad/s),17-Active Power,18-Reactive Power,19-FAULT 
0.000000,-152.202562,163.868274,-5.614015,2.792328,6.494474,-2.922371,-3.576322,-6.160428,3.274653,3.424752,-0.194194,0.307245,0.001650,-0.529232,188.571094,1491.398544,-884.922142,0
0.001042,-200.226709,96.722610,43.763826,3.742368,6.114595,-0.545190,-5.423350,-5.682580,0.777621,5.203676,-0.256295,0.310707,-0.073035,-14.169091,188.495640,1491.805443,-886.208608,0
0.002083,-186.275434,41.851144,118.193750,5.144808,4.903950,1.768495,-6.236789,-4.693803,-1.488593,6.086022,-0.252642,0.325340,-0.054364,-27.435721,188.570979,1492.195248,-886.642523,0
0.003125,-139.895949,-8.973220,185.754357,6.400218,3.288573,3.736912,-6.419626,-3.002958,-3.494613,6.285261,-0.267254,0.331677,-0.039427,-31.824001,188.721853,1493.577823,-887.425559,0
0.004167,-83.376269,-64.279598,204.577273,6.750828,0.604563,5.443403,-5.233050,-0.356418,-5.215257,5.207233,-0.219765,0.336837,-0.065566,-21.961681,188.571024,1493.747149,-887.593620,0
0.005208,-29.431337,-145.680729,178.934281,6.309738,-1.887733,6.467298,-3.785279,2.143092,-6.256036,3.776979,-0.212459,0.316456,-0.024490,-11.352901,188.571029,1494.294494,-888.426881,0
0.006250,21.235613,-190.633773,124.558334,5.269218,-3.826185,5.947413,-1.393471,4.065509,-5.916104,1.596019,-0.135746,0.324099,-0.061832,-12.370801,188.571091,1493.913117,-887.911422,0
0.007292,84.855698,-201.941499,59.989205,4.070358,-5.785938,5.046545,1.352818,6.076144,-4.959258,-1.150639,-0.066339,0.303652,-0.035692,-11.737441,188.721793,1494.193760,-887.906371,0
0.008333,151.719738,-163.777923,5.748674,3.063768,-6.290078,3.185279,3.423728,6.741455,-3.217631,-3.207074,-0.044421,0.305155,-0.017021,6.437728,188.571098,1494.618316,-887.868577,0
0.009375,199.551063,-96.535612,-43.370644,2.091108,-5.849843,0.748569,5.267025,6.204796,-0.779352,-4.943303,-0.022503,0.315345,-0.035692,18.720388,188.495664,1494.408947,-887.313904,0
0.010417,185.974090,-41.495013,-117.751326,0.711288,-4.756357,-1.525430,6.140165,5.179261,1.482665,-5.893248,0.035945,0.321029,-0.031958,35.538358,188.571047,1494.144761,-886.516489,0
0.011458,139.719373,9.365593,-185.373485,-0.600672,-3.140981,-3.513690,6.311808,3.514147,3.484488,-6.042678,0.035945,0.311687,-0.054364,36.533638,188.721849,1494.159310,-885.577500,0
0.012500,83.108953,64.684052,-204.504167,-0.962592,-0.449870,-5.168590,5.143890,0.948473,5.184148,-5.067828,-0.007891,0.327104,-0.031958,28.198168,188.571078,1494.488457,-884.932843,0
0.013542,29.470268,145.577785,-178.885796,-0.487572,1.999822,-6.212327,3.703581,-1.547361,6.254305,-3.584206,-0.026156,0.327431,-0.061832,17.487598,188.570093,1494.007197,-883.961757,0
0.014583,-21.230709,190.820771,-124.632955,0.530328,3.945375,-5.736097,1.334161,-3.546969,5.952143,-1.381899,-0.106522,0.324883,-0.039427,16.684588,188.571060,1493.329987,-883.750329,0
0.015625,-84.794082,201.790232,-59.805303,1.729188,5.986784,-4.819354,-1.438247,-5.487765,4.982707,1.325623,-0.172276,0.304436,-0.058098,17.284018,188.721896,1492.954162,-882.846235,0
0.016667,-152.145850,164.339429,-5.478599,2.735778,6.455421,-2.969994,-3.516620,-6.127346,3.228489,3.399847,-0.205153,0.307702,-0.054364,-1.004252,188.570993,1492.276998,-882.714386,0
0.017708,-199.659584,96.903823,43.763826,3.731058,6.022287,-0.549158,-5.356185,-5.642147,0.836374,5.118287,-0.223418,0.312602,-0.073035,-14.214331,188.495591,1491.697674,-881.163363,0
0.018750,-186.593024,41.778658,118.046023,5.144808,4.925251,1.701029,-6.218132,-4.668073,-1.434036,6.064674,-0.227071,0.311099,-0.013287,-28.973881,188.716307,1491.472789,-880.494561,0
0.019792,-140.054744,-9.190676,185.323485,6.434148,3.324076,3.713101,-6.378581,-2.947822,-3.435859,6.249683,-0.256295,0.322662,-0.035692,-32.208541,188.719360,1490.420137,-879.950274,0
0.020833,-83.705202,-64.182951,204.885039,6.784758,0.586811,5.403717,-5.206931,-0.396852,-5.194273,5.210791,-0.223418,0.331546,-0.017021,-21.633691,188.571476,1490.682471,-879.568161,0
0.021875,-29.760270,-145.233736,178.958902,6.343668,-1.830928,6.447455,-3.785279,2.091631,-6.222463,3.752074,-0.179582,0.327692,-0.028224,-12.031501,188.499352,1490.016902,-879.013206,0
0.022917,21.178900,-190.935796,124.853788,5.303148,-3.772930,5.963288,-1.371082,4.061833,-5.966465,1.613808,-0.179582,0.324034,-0.039427,-12.981541,188.653520,1490.846525,-879.154291,0
0.023958,84.798986,-201.772367,60.013826,4.047738,-5.782388,5.062419,1.349086,6.072469,-4.963455,-1.147081,-0.091910,0.303522,-0.035692,-12.336871,188.646495,1490.815211,-879.058700,0
0.025000,151.878533,-164.212836,5.797917,3.029838,-6.286527,3.224965,3.449848,6.715725,-3.242811,-3.199958,-0.066339,0.309727,-0.061832,4.628128,188.571038,1490.973184,-878.826786,0
0.026042,199.392268,-96.583935,-43.456818,2.125038,-5.895997,0.760474,5.263293,6.204796,-0.783549,-4.964650,0.003068,0.315672,-0.028224,19.048378,188.495763,1491.062369,-879.005240,0
0.027083,186.325707,-41.362123,-117.997538,0.688668,-4.784760,-1.505587,6.155091,5.238073,1.482665,-5.903922,0.017680,0.307768,-0.031958,32.710858,188.721989,1492.015441,-878.981597,0
0.028125,139.492523,9.498483,-185.681251,-0.578052,-3.144531,-3.529565,6.326734,3.484741,3.526455,-6.106719,-0.000585,0.344350,-0.069301,36.477088,188.646563,1492.579244,-879.862888,0
0.029167,83.108953,64.708214,-204.787311,-0.973902,-0.488923,-5.200339,5.173740,0.900688,5.200935,-5.064270,0.006721,0.333898,-0.035692,26.015338,188.571109,1492.431649,-880.538253,0
0.030208,29.300131,145.867727,-178.922728,-0.498882,1.953668,-6.291699,3.737163,-1.584119,6.296272,-3.658921,-0.033462,0.326908,-0.039427,16.028608,188.495750,1493.690135,-880.873514,0
0.031250,-21.332792,191.110713,-124.596023,0.496398,4.005729,-5.779752,1.311773,-3.561672,5.943750,-1.385457,-0.077298,0.327300,-0.054364,17.442358,188.721800,1493.790710,-880.960431,0
0.032298,-86.121154,202.043931,-59.275947,1.763118,6.025838,-4.851103,-1.497949,-5.564956,4.999494,1.364759,-0.124787,0.303587,-0.065566,16.277428,188.501892,1494.862267,-881.686146,0
0.033333,-151.987055,164.134054,-5.712500,2.735778,6.458971,-3.029523,-3.561397,-6.167779,3.274653,3.438984,-0.208806,0.308813,-0.035692,-0.506612,188.571558,1495.551204,-882.160508,0
0.034375,-200.113284,96.831338,43.874621,3.742368,6.128796,-0.549158,-5.393499,-5.726689,0.861555,5.185886,-0.223418,0.313908,-0.043161,-14.169091,188.495217,1497.163664,-882.858348,0
0.035417,-186.400201,41.766577,118.218372,5.133498,5.006908,1.724840,-6.236789,-4.715858,-1.455020,6.118042,-0.234377,0.319330,-0.031958,-27.492271,188.721891,1498.060572,-883.374448,0
0.036458,-139.884607,-9.057786,185.815910,6.411528,3.345377,3.740881,-6.423357,-3.006634,-3.452646,6.313724,-0.238030,0.339189,-0.043161,-31.812691,188.571033,1499.445929,-883.520187,0
0.037500,-83.421639,-64.291679,204.737311,6.728208,0.636515,5.455309,-5.266633,-0.429933,-5.240437,5.264159,-0.248989,0.329521,-0.050629,-21.984301,188.571172,1500.510138,-883.534763,0
0.038542,-29.329254,-145.668648,179.155872,6.309738,-1.869981,6.483172,-3.796473,2.102659,-6.310593,3.809000,-0.219765,0.327365,-0.054364,-11.307661,188.495790,1502.166886,-883.939668,0
0.039583,21.224270,-190.694178,124.644508,5.246598,-3.790682,5.979162,-1.419590,4.124321,-5.958071,1.578230,-0.175929,0.320049,-0.031958,-12.370801,188.721724,1501.812195,-884.776285,0
0.040625,84.787643,-202.086470,60.112311,4.081668,-5.817891,5.070356,1.371475,6.101875,-5.005422,-1.111502,-0.091910,0.304371,-0.058098,-11.748751,188.571082,1502.744434,-884.732553,0
0.041670,151.844506,-163.463820,5.564015,3.086388,-6.286527,3.228934,3.472236,6.737780,-3.247008,-3.182169,-0.066339,0.310446,-0.017021,6.505588,188.571113,1502.886262,-884.315073,0
0.042709,199.698516,-96.644340,-43.493750,2.125038,-5.910198,0.768412,5.311801,6.259932,-0.812926,-4.946861,-0.037115,0.315280,-0.061832,18.697768,188.495673,1503.774704,-884.022090,0
0.043750,186.132885,-41.531256,-117.849811,0.733908,-4.788310,-1.501618,6.158822,5.249101,1.507845,-5.857670,0.039598,0.328084,-0.020755,35.583598,188.721931,1503.307589,-883.909794,0
0.044792,139.776085,9.389755,-185.558145,-0.578052,-3.148081,-3.497816,6.337928,3.506795,3.513864,-6.110277,-0.000585,0.315672,-0.046895,36.556258,188.571051,1503.520928,-883.767069,0
0.045834,83.142980,64.829023,-204.590342,-0.973902,-0.464071,-5.192401,5.173740,0.955825,5.196738,-5.018018,-0.011544,0.332526,-0.076769,28.232098,188.571152,1503.274760,-883.135271,0
0.046875,29.470268,145.686514,-178.996591,-0.544122,1.992721,-6.200422,3.733432,-1.510604,6.275288,-3.630458,-0.026156,0.308160,-0.054364,17.476288,188.514921,1502.859433,-882.382190,0
0.047917,-21.389504,190.989904,-124.706819,0.519018,3.966676,-5.771815,1.330429,-3.546969,5.943750,-1.399688,-0.066339,0.322597,-0.102909,16.695898,188.740938,1502.926498,-882.117412,0
0.048959,-84.782739,201.850636,-59.854546,1.717878,5.983234,-4.847135,-1.419590,-5.487765,4.991100,1.329180,-0.139399,0.303391,-0.073035,17.284018,188.593778,1501.944174,-881.459113,0
0.050000,-152.145850,164.448157,-5.589394,2.781018,6.501575,-3.029523,-3.512889,-6.164103,3.245276,3.396289,-0.205153,0.308290,-0.058098,-0.992942,188.583854,1501.775389,-881.151824,0
0.051042,-199.738982,96.964228,43.800758,3.764988,6.114595,-0.549158,-5.378574,-5.678904,0.840571,5.128961,-0.241683,0.314235,-0.087972,-14.214331,188.515104,1500.692512,-880.637199,0
0.052084,-186.899271,41.959872,118.033712,5.167428,4.971405,1.661343,-6.240520,-4.682776,-1.455020,6.061117,-0.256295,0.322401,-0.087972,-28.996501,188.731588,1499.935352,-880.436794,0
0.053125,-140.043402,-9.106109,185.557387,6.388908,3.316975,3.725006,-6.423357,-3.058095,-3.435859,6.231893,-0.278213,0.342717,-0.061832,-32.185921,188.577693,1499.463979,-879.545157,0
0.054167,-83.614462,-64.243355,204.958902,6.773448,0.636515,5.403717,-5.259170,-0.415230,-5.152306,5.232138,-0.234377,0.338013,-0.058098,-21.656311,188.570872,1498.574316,-878.900322,0
0.055209,-29.771612,-145.318302,179.082008,6.287118,-1.838029,6.443486,-3.792741,2.113686,-6.272823,3.801884,-0.216112,0.327496,-0.084238,-12.008881,188.495264,1497.932388,-878.942486,0
0.056263,22.074958,-191.008281,123.536553,5.257908,-3.811983,5.943445,-1.333769,4.116970,-5.899318,1.556883,-0.168623,0.326516,-0.061832,-13.060711,188.721438,1497.311621,-878.179323,0
0.057304,86.489018,-202.050227,58.832008,4.070358,-5.835642,5.042576,1.364012,6.090847,-4.980242,-1.171986,-0.095563,0.306265,-0.039427,-12.201151,188.646053,1497.326710,-877.926372,0
0.058352,152.491028,-162.062435,4.222159,3.041148,-6.300728,3.193216,3.479699,6.726752,-3.221828,-3.231979,-0.037115,0.308225,-0.039427,5.182318,188.570627,1497.201232,-877.652764,0
0.059381,200.140873,-95.895324,-44.096970,2.068488,-5.920849,0.736663,5.289413,6.274635,-0.825516,-4.932630,0.010374,0.316325,-0.046895,19.082308,188.570685,1497.714612,-877.043928,0
0.060426,185.701870,-40.842644,-119.130114,0.722598,-4.752807,-1.541304,6.170016,5.238073,1.486862,-5.882575,0.006721,0.316064,-0.065566,32.733478,188.721460,1498.274185,-876.573484,0
0.061462,139.345070,9.715939,-186.149054,-0.634602,-3.148081,-3.525596,6.352853,3.532525,3.488684,-6.096046,0.021333,0.342521,-0.028224,36.522328,188.570711,1498.548686,-875.836778,0
0.062503,82.938815,65.179369,-204.713448,-0.985212,-0.478272,-5.212244,5.222248,0.944797,5.205132,-5.085617,0.006721,0.333571,-0.073035,25.947478,188.570693,1499.467553,-875.922515,0
0.063542,29.572351,145.867727,-178.959660,-0.498882,1.999822,-6.271856,3.759551,-1.576767,6.355025,-3.644689,-0.069992,0.329521,-0.054364,16.028608,188.570770,1500.250904,-877.201380,0
0.064583,-21.355477,191.122794,-124.669887,0.530328,3.966676,-5.783720,1.367743,-3.561672,6.006700,-1.463729,-0.121134,0.326124,-0.076769,17.464978,188.721550,1501.571781,-877.064542,0
0.065625,-85.191069,201.995607,-60.002273,1.785738,6.050689,-4.859040,-1.427053,-5.564956,5.062444,1.325623,-0.132093,0.306723,-0.013287,16.503628,188.570658,1503.084126,-877.676299,0
0.066667,-152.168535,164.037407,-5.675568,2.758398,6.501575,-3.037460,-3.602442,-6.215564,3.295636,3.410521,-0.194194,0.309205,-0.043161,-0.495302,188.570651,1503.990553,-877.778666,0
0.067708,-200.238052,96.831338,43.751515,3.742368,6.157198,-0.517410,-5.404693,-5.723013,0.827981,5.189444,-0.219765,0.316129,-0.024490,-14.123851,188.570633,1504.812850,-878.668185,0
0.068750,-186.309461,41.766577,118.292235,5.167428,4.964304,1.732777,-6.259177,-4.734237,-1.455020,6.096695,-0.278213,0.320637,-0.069301,-27.480961,188.721491,1505.602243,-878.612373,0
0.069792,-139.839237,-9.130271,186.000569,6.445458,3.324076,3.740881,-6.412163,-2.977228,-3.498809,6.306608,-0.248989,0.315737,-0.069301,-31.869241,188.570721,1505.857282,-880.162780,0
0.070833,-83.648489,-64.315841,204.786554,6.773448,0.625864,5.431498,-5.285289,-0.404203,-5.215257,5.246370,-0.230724,0.340888,-0.065566,-21.995611,188.570720,1506.273038,-880.879301,0
0.071875,-29.465364,-145.801538,179.118940,6.332358,-1.852230,6.499047,-3.826324,2.154119,-6.243446,3.791210,-0.205153,0.326581,-0.106643,-11.330281,188.570644,1506.030723,-881.023053,0
0.072917,21.190243,-190.670016,124.558334,5.246598,-3.804883,6.002974,-1.412127,4.124321,-5.937088,1.571114,-0.168623,0.325210,-0.013287,-12.438661,188.721545,1506.329144,-881.750084,0
0.073958,84.844356,-202.086470,60.087690,4.070358,-5.814340,5.074325,1.322967,6.120253,-4.997029,-1.139965,-0.077298,0.302150,-0.046895,-11.771371,188.570738,1506.213322,-882.470937,0
0.075000,151.731081,-163.814166,5.884091,3.041148,-6.300728,3.220996,3.457310,6.748807,-3.263794,-3.207074,-0.026156,0.307768,-0.043161,6.437728,188.570734,1506.565903,-883.242922,0
0.076042,199.823283,-96.571854,-43.444508,2.102418,-5.903097,0.764443,5.259562,6.223174,-0.800336,-4.961093,-0.015197,0.314170,-0.050629,18.720388,188.570683,1505.639083,-884.042883,0
0.077083,186.087515,-41.410447,-117.923675,0.711288,-4.781209,-1.525430,6.147628,5.260128,1.465878,-5.861228,0.010374,0.311949,-0.073035,35.583598,188.727477,1505.393302,-883.991381,0
0.078125,139.594605,9.510564,-185.755114,-0.578052,-3.155182,-3.485910,6.326734,3.492092,3.530651,-6.092488,0.006721,0.347485,-0.050629,36.544948,188.571174,1504.875547,-884.843383,0
0.079167,83.131638,64.877347,-204.590342,-0.962592,-0.460521,-5.204307,5.158815,0.937446,5.234508,-5.021576,-0.022503,0.328998,-0.091706,28.164238,188.571055,1504.106441,-885.303882,0
0.080208,29.526981,145.795242,-178.922728,-0.498882,1.999822,-6.279793,3.737163,-1.562064,6.266895,-3.634016,-0.069992,0.332134,-0.050629,17.442358,188.571060,1503.193763,-884.511267,0
0.081250,-21.344134,190.953661,-124.608334,0.530328,3.984428,-5.795626,1.337892,-3.554321,5.973126,-1.421035,-0.095563,0.328541,-0.054364,16.752448,188.721838,1502.364647,-884.626694,0
0.082292,-84.884822,201.923122,-59.916099,1.717878,5.986784,-4.827292,-1.445710,-5.528199,5.033067,1.336296,-0.154011,0.304697,-0.065566,17.306638,188.570942,1501.615022,-884.440519,0
0.083333,-152.055110,164.279025,-5.737121,2.781018,6.512226,-3.041429,-3.557665,-6.167779,3.316620,3.403405,-0.172276,0.306200,-0.024490,-0.981632,188.571049,1501.372467,-884.046753,0
0.084375,-199.977174,96.831338,43.665341,3.742368,6.103944,-0.541221,-5.359917,-5.678904,0.811194,5.185886,-0.234377,0.312079,-0.084238,-14.248261,188.646518,1500.615953,-884.053643,0
0.085417,-186.695106,41.839063,118.156819,5.167428,5.003357,1.708966,-6.229326,-4.708506,-1.459217,6.086022,-0.245336,0.325797,-0.050629,-29.007811,188.721982,1500.293132,-884.202530,0
0.086460,-139.748497,-9.021543,185.963637,6.456768,3.359579,3.736912,-6.434551,-2.977228,-3.511399,6.274587,-0.241683,0.317501,-0.050629,-32.299021,188.571187,1499.907914,-884.193306,0
0.087500,-83.625804,-64.231274,204.897349,6.773448,0.636515,5.419592,-5.296484,-0.356418,-5.223650,5.232138,-0.201500,0.337817,-0.084238,-21.554521,188.571098,1499.495357,-884.756177,0
0.088542,-29.556104,-145.729053,179.094319,6.343668,-1.852230,6.495078,-3.803936,2.121037,-6.201479,3.819673,-0.175929,0.313974,-0.050629,-11.941021,188.646484,1499.458080,-883.992239,0
0.089583,21.031448,-191.044524,124.656819,5.303148,-3.801333,6.018848,-1.397202,4.120645,-5.987448,1.599577,-0.143052,0.306592,-0.050629,-13.060711,188.721911,1500.365311,-884.011445,0
0.090625,84.810328,-201.941499,60.087690,4.081668,-5.828541,5.074325,1.360280,6.083496,-5.005422,-1.171986,-0.062686,0.303652,-0.076769,-12.416041,188.571185,1500.018123,-883.973518,0
0.091667,151.957931,-164.031622,5.871780,3.075078,-6.322030,3.252745,3.472236,6.752483,-3.280581,-3.196401,-0.018850,0.308421,-0.039427,4.684678,188.495640,1500.365709,-883.835943,0
0.092708,199.982078,-96.438965,-43.518371,2.125038,-5.949251,0.756506,5.293144,6.274635,-0.796139,-4.936188,-0.033462,0.316260,-0.028224,19.138858,188.646616,1500.879471,-883.661827,0
0.093750,186.268995,-41.519175,-117.997538,0.699978,-4.798961,-1.505587,6.143897,5.289534,1.503649,-5.935943,-0.004238,0.326385,-0.043161,32.688238,188.721777,1501.757068,-884.738076,0
0.094792,139.356413,9.148136,-185.841288,-0.578052,-3.183584,-3.549408,6.386436,3.532525,3.522258,-6.160087,-0.004238,0.343305,-0.061832,36.511018,188.571073,1502.757054,-884.746945,0
0.095833,82.961500,64.780699,-204.824243,-0.928662,-0.460521,-5.216213,5.244637,0.922743,5.305852,-5.085617,-0.011544,0.329586,-0.028224,25.947478,188.495683,1503.850426,-885.640971,0
0.096875,29.549666,146.181831,-178.935038,-0.544122,2.017573,-6.248045,3.789402,-1.595146,6.346632,-3.673152,-0.055380,0.330631,-0.058098,15.983368,188.646639,1505.078015,-886.422499,0
0.097917,-21.298764,191.159036,-124.509849,0.496398,4.005729,-5.791658,1.386400,-3.605781,6.040274,-1.424593,-0.084604,0.327496,-0.024490,17.510218,188.646594,1506.031518,-887.185528,0
0.098958,-85.349864,202.225144,-60.051515,1.729188,6.057790,-4.906663,-1.441978,-5.553929,5.062444,1.346970,-0.146705,0.304893,-0.076769,16.492318,188.571065,1506.733357,-887.538565,0
0.100000,-152.077795,163.880355,-5.872538,2.747088,6.576131,-3.049366,-3.553934,-6.248646,3.308226,3.424752,-0.168623,0.308682,-0.020755,-0.517922,188.495707,1507.303391,-888.253614,0
0.101042,-200.635039,96.746771,43.714583,3.708438,6.210452,-0.553127,-5.423350,-5.785501,0.819588,5.196560,-0.201500,0.313712,-0.039427,-14.180401,188.646536,1508.860296,-888.556937,0
0.102083,-186.207379,41.851144,118.230682,5.144808,5.056612,1.740715,-6.307685,-4.741588,-1.455020,6.171410,-0.252642,0.327496,-0.054364,-27.492271,188.646647,1509.804055,-889.042841,0
0.103125,-139.691784,-8.779925,186.172917,6.445458,3.370229,3.780567,-6.494253,-3.036040,-3.511399,6.356418,-0.252642,0.335400,-0.069301,-31.937101,188.571062,1511.249467,-889.135741,0
0.104167,-83.603119,-64.195032,204.737311,6.762138,0.615214,5.463246,-5.311409,-0.374797,-5.211060,5.310411,-0.219765,0.339973,-0.024490,-21.927751,188.495763,1512.150094,-888.825935,0
0.105208,-29.748927,-146.067318,179.192804,6.366288,-1.862881,6.514921,-3.848712,2.139416,-6.323183,3.848136,-0.172276,0.329456,-0.084238,-11.296351,188.646545,1513.653930,-889.894252,0
0.106250,20.895338,-190.718339,124.644508,5.269218,-3.858137,6.030754,-1.438247,4.116970,-5.974858,1.599577,-0.135746,0.328345,-0.028224,-12.529141,188.646504,1513.346206,-889.819591,0
0.107292,85.127918,-202.303926,60.112311,4.036428,-5.906648,5.106074,1.349086,6.160687,-5.030602,-1.122176,-0.073645,0.307964,-0.050629,-11.748751,188.571084,1514.592725,-890.011057,0
0.108333,151.833163,-163.705438,6.044129,3.075078,-6.343332,3.296399,3.487161,6.785564,-3.272188,-3.207074,-0.029809,0.308617,-0.028224,6.415108,188.495732,1514.663006,-890.344429,0
0.109375,200.322353,-96.523531,-43.419886,2.136348,-5.995405,0.788254,5.315533,6.285662,-0.829713,-4.993113,0.003068,0.316064,-0.091706,18.765628,188.646487,1515.376334,-890.785306,0
0.110417,186.008117,-41.519175,-118.046781,0.711288,-4.838014,-1.505587,6.199867,5.307913,1.482665,-5.907480,-0.004238,0.306135,-0.020755,35.640148,188.646451,1515.357436,-890.195011,0
