1-Time,2-VGERA,3-VGERB,4-VGERC,5-VN,6-IGERAN,7-IGERBN,8-IGERCN,9-IGERAT,10-IGERBT,11-IGERCT,12-IN,13-IFD,14-IFAULT,15-VFAULT,16-Speed (rad/s),17-Active Power,18-Reactive Power,19-FAULT 
0.000000,70.757234,96.366400,-197.338134,-3.491375,-1.957446,-2.769784,4.649664,2.173332,2.866433,-4.999435,-0.064826,0.427752,-0.007290,64.347794,188.495651,1254.697084,-13.689630,0
0.001042,8.596345,150.663581,-169.450047,-2.973447,-0.416267,-3.772713,3.830045,0.568952,3.801223,-4.184557,-0.079410,0.436709,-0.011006,3.226349,188.344880,1255.307627,-14.002229,0
0.002083,-55.847129,186.485862,-120.272232,-2.050184,1.528554,-4.513465,2.759128,-1.305913,4.564046,-2.992702,-0.042949,0.431403,-0.025873,-59.065961,188.344853,1255.364979,-15.673857,0
0.003125,-112.369356,185.628476,-43.619487,-0.575216,3.007351,-4.442719,1.046434,-2.813957,4.383261,-1.309636,-0.017425,0.419415,0.015011,-114.051618,188.420197,1255.440035,-16.523019,0
0.004167,-166.202200,158.086428,24.672908,0.775900,4.221947,-3.847620,-0.616001,-3.966295,3.774766,0.282042,-0.006487,0.416934,-0.048173,-161.978306,188.495665,1255.458789,-16.614149,0
0.005208,-180.767804,94.287533,82.806506,1.856793,4.592564,-2.345308,-2.348025,-4.384990,2.227073,2.033649,0.055498,0.415005,-0.018440,-178.201552,188.344793,1256.065098,-16.609402,0
0.006250,-186.270868,20.423164,138.704196,2.960204,4.541191,-0.888773,-3.577454,-4.307179,0.811661,3.187425,0.022683,0.434435,-0.048173,-179.687651,188.269550,1255.657306,-15.655682,0
0.007292,-145.003540,-45.842183,172.753180,3.601985,3.686204,0.796647,-4.192168,-3.406799,-0.952093,3.830950,0.081021,0.389030,-0.051890,-136.951050,188.420251,1256.340158,-15.865554,0
0.008333,-69.599139,-96.275256,197.579045,4.074875,2.324829,2.785858,-4.656103,-2.091430,-2.878994,4.169848,0.091960,0.415281,-0.051890,-64.042140,188.495660,1256.794753,-15.333401,0
0.009375,-8.059745,-150.361027,169.946143,3.523169,0.761634,3.726363,-3.890610,-0.464818,-3.813783,3.393049,0.073729,0.430576,-0.055607,-3.641229,188.344889,1257.316366,-14.891386,0
0.010417,55.536234,-186.653109,121.120727,2.633685,-1.139153,4.571154,-2.769433,1.350763,-4.545741,2.220233,0.044560,0.428854,-0.040740,58.842473,188.269503,1257.175320,-15.431813,0
0.011458,112.329659,-185.748743,45.221385,1.203754,-2.643637,4.467115,-1.126329,2.877333,-4.404640,0.571438,0.022683,0.424238,-0.037023,114.233430,188.420204,1257.218995,-15.655376,0
0.012500,166.716200,-158.382869,-23.131768,-0.124844,-3.770165,3.838724,0.516774,4.011145,-3.787327,-1.008817,-0.017425,0.422722,-0.048173,162.801843,188.495667,1257.090268,-16.099633,0
0.013542,180.445609,-95.605790,-82.273954,-1.273292,-4.162799,2.423805,2.241067,4.407608,-2.314592,-2.783271,-0.032010,0.426787,-0.070474,178.270781,188.344919,1256.636450,-16.374373,0
0.014583,186.321570,-21.353837,-138.475436,-2.342926,-4.129773,0.938139,3.509156,4.366850,-0.810993,-3.963702,-0.090349,0.417072,-0.025873,180.162179,188.269487,1255.838607,-16.805172,0
0.015625,145.687039,45.851111,-171.880381,-2.984706,-3.278456,-0.755604,4.143201,3.481291,0.864573,-4.546302,-0.079410,0.444632,-0.011006,137.526904,188.420587,1254.638981,-16.237077,0
0.016667,69.762840,96.225459,-197.483954,-3.480115,-1.983132,-2.753138,4.576207,2.202974,2.857614,-4.980396,-0.079410,0.445872,-0.022156,63.616003,188.495678,1254.395249,-15.663052,0
0.017708,7.421152,149.571295,-170.203451,-2.973447,-0.364894,-3.676997,3.802982,0.606004,3.739491,-4.169325,-0.079410,0.403981,0.003860,3.361449,188.344918,1253.542045,-14.886866,0
0.018750,-55.711530,186.720762,-120.539568,-2.050184,1.418470,-4.492657,2.732065,-1.205871,4.519952,-3.026973,-0.035656,0.438224,-0.007290,-58.142778,188.269489,1253.026384,-13.482922,0
0.019792,-111.510562,185.781161,-44.871109,-0.597734,2.941301,-4.376134,1.123756,-2.702799,4.356805,-1.389601,0.000805,0.424582,-0.011006,-113.432410,188.420287,1252.132477,-12.223860,0
0.020833,-166.495998,158.133408,22.291181,0.697085,4.119202,-3.810166,-0.534812,-3.888484,3.765948,0.236348,0.022683,0.423962,-0.040740,-162.811422,188.495582,1251.174581,-11.973310,0
0.021875,-180.180208,97.024120,82.077405,1.845534,4.511835,-2.349470,-2.239774,-4.310884,2.302032,1.946069,0.029975,0.420724,-0.059323,-177.244594,188.344943,1250.446924,-11.125321,0
0.022917,-186.316067,22.877871,138.789257,2.903908,4.511835,-0.917904,-3.569721,-4.296063,0.899848,3.149347,0.066437,0.427131,-0.018440,-180.014142,188.269552,1250.301287,-10.554019,0
0.023958,-146.845428,-44.890837,171.732439,3.579466,3.649509,0.705093,-4.114845,-3.410505,-0.850677,3.701484,0.088314,0.440636,-0.040740,-138.155691,188.420329,1248.691837,-9.585941,0
0.025000,-70.977729,-96.040356,197.579045,4.097394,2.321160,2.715112,-4.598111,-2.135893,-2.817262,4.101307,0.033621,0.433057,-0.048173,-63.816974,188.495593,1247.857688,-9.008573,0
0.026042,-8.195344,-149.339212,170.723850,3.545688,0.728609,3.676425,-3.859681,-0.538923,-3.730005,3.358778,0.070083,0.440911,-0.022156,-2.999504,188.344858,1246.686945,-8.127499,0
0.027083,55.728333,-186.958479,120.744025,2.644944,-1.080441,4.504569,-2.773299,1.313710,-4.545741,2.254504,0.055498,0.432230,-0.037023,58.808698,188.269622,1246.846637,-7.262136,0
0.028125,111.290066,-186.324248,44.589498,1.215013,-2.559239,4.392208,-1.153392,2.836575,-4.325271,0.601900,0.044560,0.417485,-0.044457,113.208923,188.420316,1245.683525,-6.859767,0
0.029167,166.320702,-158.147969,-22.791521,-0.091066,-3.770165,3.851209,0.466515,3.974092,-3.831420,-0.955507,0.011744,0.419484,-0.029590,163.162109,188.420300,1245.495722,-5.860793,0
0.030208,180.264810,-96.745056,-81.848646,-1.262033,-4.118765,2.448774,2.109618,4.366850,-2.341049,-2.688075,-0.039302,0.427958,-0.025873,177.482698,188.344865,1244.732478,-4.962657,0
0.031250,186.287670,-22.563573,-138.232402,-2.354185,-4.137112,0.954785,3.458897,4.389082,-0.863905,-3.910392,-0.042949,0.413283,-0.063040,180.635029,188.269424,1244.597556,-4.255517,0
0.032292,147.269028,44.171575,-171.515831,-3.018484,-3.304142,-0.680696,4.100674,3.507228,0.824889,-4.534878,-0.083057,0.433332,-0.044457,139.305719,188.420292,1244.741067,-4.334766,0
0.033333,72.520022,95.661699,-196.961432,-3.513893,-2.049182,-2.678230,4.568475,2.240027,2.756199,-4.988011,-0.090349,0.434573,-0.037023,65.574951,188.420316,1244.488389,-3.761578,0
0.034375,9.737637,149.242435,-170.665214,-3.007225,-0.452962,-3.647867,3.849375,0.639352,3.730672,-4.169325,-0.075764,0.436915,-0.029590,4.554832,188.344858,1244.537562,-4.078885,0
0.035417,-54.852736,186.450627,-121.414489,-2.027666,1.407461,-4.471850,2.728199,-1.172524,4.528771,-3.061243,-0.050241,0.426442,-0.025873,-57.816287,188.269509,1244.777964,-3.859127,0
0.036458,-111.103764,186.215727,-44.956171,-0.575216,2.992673,-4.413588,1.112158,-2.710209,4.330349,-1.423871,0.011744,0.418795,-0.011006,-112.700619,188.420318,1244.708604,-3.745337,0
0.037500,-165.874502,158.250858,22.692186,0.719604,4.111863,-3.818489,-0.546410,-3.884779,3.792404,0.194461,0.011744,0.415074,-0.033307,-162.169698,188.420379,1244.768405,-3.056431,0
0.038542,-180.327107,96.448615,81.712855,1.845534,4.544860,-2.399408,-2.232042,-4.296063,2.337307,1.907990,0.033621,0.397367,-0.048173,-176.996911,188.344901,1244.510593,-2.248826,0
0.039583,-186.293467,21.550685,137.817123,2.926427,4.533852,-0.951196,-3.523328,-4.314590,0.899848,3.107460,0.084667,0.411973,-0.014723,-180.239309,188.269492,1244.049629,-1.658165,0
0.040625,-146.721129,-44.996542,171.465102,3.579466,3.726568,0.692608,-4.138042,-3.406799,-0.841858,3.754794,0.073729,0.417417,-0.014723,-138.819932,188.344948,1244.498177,-1.738016,0
0.041667,-71.700925,-95.535320,197.165888,4.097394,2.357855,2.710950,-4.621308,-2.132188,-2.781987,4.139386,0.077375,0.435744,-0.037023,-65.820956,188.420314,1244.591471,-1.677457,0
0.042708,-9.709534,-149.010351,171.051946,3.601985,0.846032,3.634810,-3.867413,-0.564860,-3.677092,3.370201,0.066437,0.392406,-0.014723,-5.104811,188.344834,1244.265671,-1.502673,0
0.043750,54.598341,-186.559149,122.226529,2.633685,-1.047416,4.492085,-2.835157,1.258131,-4.536922,2.277351,0.051852,0.424169,-0.029590,57.750416,188.269575,1244.187609,-1.319696,0
0.044792,111.007568,-186.218543,46.606676,1.192494,-2.518875,4.379723,-1.211384,2.803228,-4.316453,0.624748,0.011744,0.422102,-0.022156,112.837398,188.420285,1243.978376,-1.389022,0
0.045833,166.207703,-158.488574,-21.272562,-0.079807,-3.704115,3.834563,0.420121,3.925923,-3.782917,-0.989777,-0.002841,0.422240,-0.022156,162.903168,188.420247,1243.051550,-2.343437,0
0.046875,180.197011,-97.719892,-81.338276,-1.250774,-4.096748,2.461258,2.105752,4.348324,-2.332230,-2.646189,-0.039302,0.419277,-0.011006,177.235015,188.420294,1242.614795,-2.333606,0
0.047917,186.332870,-22.410888,-137.588364,-2.331667,-4.133443,0.954785,3.404771,4.326092,-0.828630,-3.879929,-0.042949,0.421137,-0.055607,180.770129,188.269425,1241.440295,-2.799146,0
0.048958,147.495027,44.970235,-170.580152,-2.984706,-3.252769,-0.689019,4.031083,3.477586,0.749929,-4.473953,-0.072118,0.395437,-0.029590,139.508369,188.420233,1240.159240,-1.842640,0
0.050000,71.638628,95.626464,-196.791308,-3.491375,-1.983132,-2.690715,4.533680,2.195564,2.769427,-4.957549,-0.097641,0.398676,-0.011006,65.349785,188.420254,1239.486877,-2.245920,0
0.051042,8.573745,148.443774,-171.236343,-3.007225,-0.504334,-3.610413,3.830045,0.676405,3.660122,-4.180749,-0.064826,0.424031,-0.033307,4.948873,188.344802,1238.857163,-1.200606,0
0.052083,-54.739737,186.391902,-121.864101,-2.027666,1.389114,-4.446880,2.801655,-1.146587,4.436174,-3.106937,-0.090349,0.423273,-0.025873,-56.949396,188.269541,1238.101513,-0.451727,0
0.053125,-110.414469,186.203982,-46.669556,-0.642772,2.871581,-4.401104,1.139221,-2.636104,4.347986,-1.461950,0.015390,0.427407,-0.025873,-112.058895,188.344914,1237.877390,0.061023,0
0.054167,-166.168300,158.192133,20.274003,0.697085,4.053151,-3.847620,-0.469088,-3.829200,3.783585,0.148767,0.011744,0.424789,-0.033307,-162.924005,188.420260,1237.141721,0.215434,0
0.055208,-180.146308,98.915067,81.093120,1.800497,4.438446,-2.441023,-2.162451,-4.277537,2.332898,1.888951,0.037267,0.424582,-0.025873,-176.388962,188.344865,1237.039775,-0.349480,0
0.056250,-186.327367,23.793982,137.829275,2.937686,4.489818,-0.988650,-3.515596,-4.273832,0.913076,3.099845,0.066437,0.428716,-0.018440,-180.464475,188.269539,1236.676840,-0.907689,0
0.057292,-148.495217,-43.998216,170.699547,3.568207,3.667856,0.634347,-4.087782,-3.451263,-0.775718,3.663405,0.073729,0.432023,-0.011006,-139.990798,188.420260,1236.009863,-0.130772,0
0.058333,-72.638819,-95.394380,196.874248,4.108653,2.390880,2.648527,-4.613576,-2.135893,-2.764350,4.120346,0.106545,0.434710,-0.044457,-65.258039,188.420399,1235.717228,-0.190513,0
0.059375,-9.121938,-148.293906,171.793198,3.568207,0.864379,3.605679,-3.859681,-0.564860,-3.681501,3.294045,0.088314,0.409700,0.003860,-4.215403,188.344979,1234.956305,-0.678990,0
0.060417,54.767840,-186.559149,121.910585,2.656203,-1.021730,4.450469,-2.804228,1.221079,-4.488419,2.307814,0.066437,0.422653,-0.040740,57.604057,188.269559,1234.460977,0.214769,0
0.061458,110.024474,-186.923244,46.144912,1.203754,-2.518875,4.396369,-1.215250,2.718007,-4.369365,0.674249,0.048206,0.422584,-0.044457,111.869182,188.344921,1234.592524,1.513505,0
0.062500,165.857405,-158.124479,-20.579917,-0.102325,-3.674759,3.851209,0.393058,3.914808,-3.840239,-0.928852,0.011744,0.422033,-0.014723,163.297209,188.420227,1234.769830,2.481879,0
0.063542,180.287410,-98.964863,-80.694237,-1.228255,-4.100418,2.465420,2.059359,4.329798,-2.407190,-2.600494,-0.068472,0.415832,-0.018440,176.773423,188.344815,1234.909361,3.260790,0
0.064583,186.344170,-24.301834,-137.357482,-2.331667,-4.137112,1.000561,3.377708,4.374261,-0.974140,-3.876121,-0.010133,0.416452,-0.033307,181.096620,188.269528,1235.759812,4.557317,0
0.065625,149.065716,43.008819,-170.628759,-3.007225,-3.344506,-0.605789,4.062012,3.503523,0.749929,-4.458721,-0.079410,0.428716,-0.040740,140.938176,188.344876,1236.063666,4.002092,0
0.066667,74.282811,95.003978,-196.293090,-3.502634,-2.030835,-2.653261,4.560743,2.221501,2.756199,-4.946125,-0.075764,0.430301,-0.018440,66.880917,188.420166,1236.110681,3.623786,0
0.067708,10.686831,148.114914,-171.916836,-2.962187,-0.474978,-3.597928,3.830045,0.691226,3.638075,-4.157902,-0.075764,0.409631,0.000144,5.680664,188.420374,1235.832752,3.088271,0
0.068750,-53.892242,186.063042,-122.471684,-2.061443,1.352419,-4.442719,2.770726,-1.139176,4.458221,-3.087898,-0.010133,0.418863,-0.014723,-56.679196,188.269534,1235.863704,2.577992,0
0.069792,-109.849473,186.779487,-46.122731,-0.620253,2.893598,-4.376134,1.166284,-2.639809,4.299483,-1.465758,-0.021072,0.418243,-0.018440,-111.270812,188.269498,1235.380559,2.458903,0
0.070833,-165.173907,158.109918,20.832980,0.674567,4.075168,-3.781036,-0.511615,-3.806968,3.757129,0.144959,0.019036,0.414040,-0.022156,-162.214731,188.420189,1234.659224,2.475245,0
0.071875,-180.101108,98.339561,80.631356,1.811756,4.500827,-2.453508,-2.104459,-4.255305,2.363764,1.843257,0.029975,0.417968,-0.022156,-176.242603,188.420321,1234.187386,3.295910,0
0.072917,-186.214368,22.936596,136.893596,2.881389,4.519174,-0.976165,-3.500131,-4.284948,0.908667,3.092229,0.066437,0.427958,-0.029590,-180.644608,188.269447,1233.953430,3.431339,0
0.073958,-148.585617,-43.810296,170.468665,3.568207,3.722898,0.601055,-4.083916,-3.458673,-0.771308,3.674829,0.088314,0.421413,-0.014723,-140.688814,188.269528,1234.083520,3.412533,0
0.075000,-74.096509,-94.818875,196.400333,4.029838,2.387210,2.627719,-4.578780,-2.198882,-2.729075,4.158425,0.106545,0.434090,-0.022156,-67.599771,188.420294,1234.611858,3.967071,0
0.076042,-11.325424,-147.765380,172.315719,3.590725,0.879057,3.564064,-3.863547,-0.579681,-3.606542,3.351162,0.081021,0.422584,-0.040740,-6.635943,188.495586,1234.571056,4.159036,0
0.077083,53.389249,-185.983643,123.551061,2.735018,-0.970357,4.413016,-2.839023,1.221079,-4.444325,2.246888,0.062790,0.428096,-0.033307,56.421933,188.269409,1233.626651,2.952353,0
0.078125,109.764576,-186.758814,47.821843,1.248791,-2.460163,4.367239,-1.222983,2.758764,-4.276768,0.666634,0.015390,0.422515,-0.014723,111.385074,188.344867,1232.883535,1.790381,0
0.079167,165.642707,-158.335889,-19.510570,-0.057288,-3.638064,3.797109,0.385326,3.870344,-3.778508,-0.928852,0.011744,0.420862,-0.033307,162.925684,188.420251,1231.798774,1.269800,0
0.080208,180.027512,-99.599094,-80.293232,-1.228255,-4.056384,2.507035,2.047760,4.277924,-2.323411,-2.585263,-0.042949,0.418519,0.007577,176.615807,188.495673,1230.564419,0.415037,0
0.081250,186.253771,-23.456193,-136.604078,-2.275370,-4.107757,0.942300,3.362243,4.277924,-0.947684,-3.792349,-0.083057,0.425891,-0.040740,181.107878,188.269505,1228.468419,0.527427,0
0.082292,149.133516,44.183320,-169.717384,-2.928410,-3.315150,-0.593304,3.984690,3.533165,0.639695,-4.409219,-0.072118,0.422722,-0.025873,141.320959,188.269532,1227.753459,2.418034,0
0.083333,73.717814,94.992233,-195.855630,-3.423819,-2.038174,-2.574192,4.487286,2.277080,2.681239,-4.908047,-0.093995,0.428785,-0.025873,67.196150,188.420276,1226.916366,3.813162,0
0.084375,10.031435,147.222293,-172.645937,-3.029743,-0.478648,-3.518859,3.799116,0.746805,3.580753,-4.154094,-0.042949,0.389857,-0.029590,6.637622,188.495712,1226.317429,4.734758,0
0.085417,-53.519345,185.581496,-123.370908,-2.061443,1.304716,-4.367811,2.774592,-1.046544,4.414127,-3.103130,-0.061180,0.422377,-0.022156,-55.587138,188.269537,1225.602123,5.663762,0
0.086458,-109.453975,186.791232,-48.310032,-0.687809,2.809200,-4.376134,1.220409,-2.565704,4.237752,-1.496220,-0.032010,0.423411,0.003860,-110.674121,188.269469,1224.557254,5.845644,0
0.087500,-165.467705,158.039447,18.439101,0.629529,3.972423,-3.810166,-0.391765,-3.732863,3.752719,0.087842,0.029975,0.422860,-0.022156,-162.788905,188.420283,1223.674635,6.282402,0
0.088542,-180.135008,100.829503,79.950863,1.800497,4.467801,-2.495123,-2.061932,-4.203432,2.368173,1.725214,0.048206,0.420310,-0.037023,-175.792270,188.495618,1222.782133,6.873592,0
0.089583,-185.818871,24.674858,136.674866,2.903908,4.420098,-1.051072,-3.384147,-4.192316,0.899848,3.054151,0.066437,0.427614,-0.018440,-180.588317,188.269478,1221.346679,6.259254,0
0.090625,-149.839908,-43.399221,169.861082,3.545688,3.715560,0.576085,-3.991129,-3.403094,-0.669892,3.591056,0.102898,0.427752,0.000144,-141.566964,188.269438,1219.773190,6.938870,0
0.091667,-74.571106,-94.830620,195.926418,4.041097,2.387210,2.577781,-4.509190,-2.150714,-2.640887,4.101307,0.077375,0.402396,-0.018440,-66.834205,188.420280,1218.212432,7.143952,0
0.092708,-10.206731,-147.037190,173.190640,3.590725,0.893735,3.539094,-3.817153,-0.635260,-3.558039,3.339739,0.059144,0.407908,-0.063040,-5.555144,188.420377,1217.676698,8.102699,0
0.093750,53.818646,-185.596058,123.247269,2.644944,-0.948340,4.363077,-2.792630,1.165500,-4.484009,2.262120,0.095606,0.443323,-0.025873,56.320608,188.269583,1217.924964,8.923135,0
0.094792,108.837982,-187.522239,47.736781,1.248791,-2.416130,4.308977,-1.269376,2.669838,-4.294406,0.723751,0.008098,0.419759,-0.037023,110.540700,188.269481,1217.722631,10.167262,0
0.095833,165.179410,-158.124479,-18.404768,-0.023510,-3.564675,3.826240,0.346665,3.811060,-3.774098,-0.852695,-0.017425,0.420310,-0.018440,163.240917,188.420345,1216.812967,11.012774,0
0.096875,180.366510,-101.161180,-79.551980,-1.183218,-4.034367,2.536166,1.954973,4.274219,-2.416008,-2.497683,-0.028364,0.420999,0.003860,176.300574,188.420249,1217.130561,12.306773,0
0.097917,186.050372,-25.711235,-136.458258,-2.309148,-4.089409,1.046338,3.284921,4.311271,-0.938865,-3.788541,-0.046595,0.436571,-0.037023,181.276753,188.344876,1217.486882,11.726869,0
0.098958,150.500807,42.104453,-169.838901,-2.939669,-3.355515,-0.543366,3.988556,3.555397,0.674970,-4.371141,-0.072118,0.437535,-0.044457,142.615667,188.269498,1217.565122,10.850499,0
0.100000,76.248998,94.534178,-195.260198,-3.457597,-2.052852,-2.561708,4.448625,2.265964,2.637145,-4.869968,-0.083057,0.434159,-0.018440,68.423307,188.344910,1216.897562,10.446730,0
0.101042,11.398726,146.940413,-173.156307,-3.018484,-0.570385,-3.523021,3.806848,0.743099,3.523431,-4.150286,-0.068472,0.432161,-0.033307,6.716430,188.420220,1216.408350,10.269557,0
0.102083,-53.225547,185.158676,-123.613941,-2.072703,1.246004,-4.347004,2.762994,-1.053955,4.414127,-3.065051,-0.050241,0.422722,-0.025873,-55.733497,188.344919,1216.050035,9.698032,0
0.103125,-108.685580,187.460698,-47.520173,-0.642772,2.864242,-4.342842,1.185614,-2.595346,4.330349,-1.492413,-0.002841,0.416865,-0.051890,-110.021138,188.269377,1217.304728,9.611742,0
0.104167,-164.586311,158.098173,19.034533,0.685826,3.983431,-3.806005,-0.438159,-3.740273,3.783585,0.103073,0.029975,0.417554,-0.025873,-162.113406,188.344900,1217.515946,9.623414,0
0.105208,-180.157608,100.230508,79.489099,1.777978,4.456793,-2.486800,-2.108326,-4.203432,2.376992,1.778524,0.051852,0.397573,-0.025873,-175.781012,188.420280,1217.704363,9.183120,0
0.106250,-185.988369,24.416468,136.055131,2.892649,4.449454,-1.013619,-3.434407,-4.244190,0.935123,3.031304,0.059144,0.417417,-0.025873,-180.790967,188.420222,1218.050325,9.891058,0
0.107292,-150.099807,-42.635795,169.848930,3.556947,3.733907,0.555278,-4.041389,-3.466084,-0.647845,3.621519,0.088314,0.429267,-0.022156,-142.343788,188.269543,1218.911082,10.243436,0
0.108333,-76.401694,-94.219879,195.403896,4.086135,2.427575,2.544489,-4.536253,-2.202588,-2.667343,4.074652,0.124775,0.432092,-0.037023,-69.266003,188.344914,1219.076201,9.942537,0
0.109375,-12.523216,-146.814034,173.457977,3.624503,0.879057,3.584871,-3.913807,-0.646376,-3.566857,3.343547,0.088314,0.432299,-0.011006,-7.716742,188.420358,1219.317015,9.337913,0
0.110417,52.406155,-185.149747,124.596105,2.689981,-0.893298,4.371400,-2.804228,1.150679,-4.404640,2.300198,0.055498,0.404877,-0.033307,55.431201,188.495662,1218.664499,9.325796,0
0.111458,108.645884,-187.346064,49.024858,1.260050,-2.438146,4.379723,-1.288707,2.651312,-4.294406,0.731367,0.051852,0.421826,-0.003573,110.225467,188.269447,1218.571168,9.207524,0
