1-Time,2-VGERA,3-VGERB,4-VGERC,5-VN,6-IGERAN,7-IGERBN,8-IGERCN,9-IGERAT,10-IGERBT,11-IGERCT,12-IN,13-IFD,14-IFAULT,15-VFAULT,16-Speed (rad/s),17-Active Power,18-Reactive Power,19-FAULT 
0.000000,-179.976809,117.730573,5.023655,0.348047,6.144751,-0.138776,-5.510517,-5.652938,-0.023226,5.489480,0.113837,0.198797,-0.007290,-55.418264,188.495707,1031.586359,-1328.075397,0
0.001042,-190.033743,63.656546,71.238114,1.620348,4.636597,2.551215,-6.504111,-4.228723,-2.620111,6.483327,0.168530,0.196454,0.011294,-51.252683,188.345012,1030.927236,-1328.097310,0
0.002083,-163.241620,20.646319,147.550612,3.061538,2.743149,4.358169,-6.144562,-2.212035,-4.349929,5.988307,0.128422,0.191080,-0.022156,-36.920836,188.344838,1030.281822,-1327.577759,0
0.003125,-102.402822,-24.043444,197.870685,4.018579,0.170849,5.564168,-4.783685,0.389530,-5.665626,4.659370,0.088314,0.199968,-0.003573,-18.074401,188.420345,1029.705656,-1327.752403,0
0.004167,-56.231327,-94.654445,187.736191,3.860949,-2.254673,6.373618,-3.051660,2.850573,-6.247984,2.843030,0.062790,0.212163,-0.014723,-8.335950,188.495618,1030.216168,-1327.695435,0
0.005208,-14.568502,-165.864441,140.551250,2.948945,-4.166468,5.968893,-0.704922,4.867261,-5.907197,0.569748,0.037267,0.197970,-0.011006,1.897867,188.344831,1030.281477,-1327.474561,0
0.006250,38.055250,-197.082678,84.459133,1.958127,-5.480139,4.394962,2.020698,6.147155,-4.142869,-2.160474,-0.039302,0.199417,-0.033307,23.693984,188.269554,1030.072242,-1326.792925,0
0.007292,119.075715,-169.540629,38.404297,1.068642,-5.938824,2.440835,4.259185,6.678862,-2.257755,-4.445179,-0.050241,0.185706,0.007577,49.362964,188.420244,1028.448800,-1326.581276,0
0.008333,179.790213,-118.038760,-4.697682,0.190417,-5.215937,0.180098,5.496345,5.778758,0.032852,-5.511375,-0.086703,0.200795,-0.014723,57.277566,188.495790,1028.077751,-1326.068389,0
0.009375,189.926246,-63.659363,-71.118720,-1.104403,-3.667420,-2.481276,6.431948,4.354544,2.629737,-6.501414,-0.112226,0.199899,0.007577,53.517285,188.344867,1027.306084,-1325.550360,0
0.010417,163.473121,-20.602156,-147.030213,-2.523075,-1.862039,-4.292319,6.114926,2.360643,4.376810,-6.063512,-0.090349,0.234418,-0.018440,37.485431,188.269568,1027.152374,-1324.900237,0
0.011458,102.611723,23.970157,-197.654077,-3.513893,0.717600,-5.502406,4.738585,-0.263710,5.636429,-4.704113,-0.101287,0.207203,-0.003573,18.481379,188.420325,1026.294707,-1324.829249,0
0.012500,56.349829,94.358003,-187.398066,-3.277448,3.172478,-6.385443,3.041355,-2.747540,6.300748,-2.868733,-0.042949,0.195145,-0.011006,10.240286,188.420329,1025.971416,-1324.659350,0
0.013542,14.822604,165.802899,-140.200973,-2.387963,5.172340,-5.927572,0.663687,-4.741440,5.934078,-0.618298,0.000805,0.178058,0.003860,-1.096847,188.420200,1026.217216,-1324.614886,0
0.014583,-37.846348,196.891941,-84.193918,-1.340848,6.430969,-4.337288,-1.996208,-6.032728,4.204260,2.169042,0.062790,0.180883,-0.011006,-22.847930,188.269518,1025.803528,-1323.969960,0
0.015625,-119.364010,169.490832,-38.151234,-0.485141,6.893323,-2.366809,-4.304285,-6.602414,2.306205,4.354743,0.091960,0.183363,-0.003573,-49.001019,188.420332,1025.783012,-1324.211211,0
0.016667,-179.423113,117.965473,4.804925,0.393084,6.148420,-0.085631,-5.495052,-5.721300,-0.044795,5.489480,0.124775,0.197694,-0.007290,-56.904362,188.420292,1026.002811,-1324.690812,0
0.017708,-189.988543,63.973662,71.043688,1.642866,4.570547,2.604360,-6.465450,-4.194542,-2.663248,6.464287,0.113837,0.199004,-0.037023,-52.986465,188.420332,1025.157093,-1325.016336,0
0.018750,-163.399819,20.634574,147.198214,3.061538,2.706454,4.366345,-6.179357,-2.261408,-4.324047,5.995923,0.124775,0.204447,-0.022156,-37.911569,188.269581,1025.650045,-1324.602915,0
0.019792,-102.594921,-23.855524,197.749168,4.041097,0.258916,5.568256,-4.748890,0.374339,-5.575037,4.659370,0.095606,0.173786,-0.025873,-18.344601,188.420247,1025.386256,-1323.616457,0
0.020833,-56.231327,-94.208134,187.602522,3.849689,-2.214309,6.361354,-3.001401,2.846775,-6.252298,2.797336,0.062790,0.172822,-0.048173,-8.313433,188.420345,1024.731887,-1323.636801,0
0.021875,-14.478103,-165.629541,140.806435,2.993982,-4.232519,5.923924,-0.677859,4.844473,-5.842491,0.550709,-0.010133,0.208236,-0.040740,1.683959,188.495835,1023.888751,-1323.198692,0
0.022917,38.111750,-196.871267,84.604953,1.913090,-5.476470,4.337729,2.009099,6.105378,-4.186006,-2.221400,-0.028364,0.192940,-0.048173,23.344975,188.269603,1023.726419,-1323.355782,0
0.023958,118.894916,-169.775529,38.392146,1.079901,-5.913137,2.424483,4.266917,6.621893,-2.253441,-4.418524,-0.057533,0.189564,-0.044457,49.655680,188.344807,1023.286678,-1322.709726,0
0.025000,179.598115,-118.238425,-4.661227,0.224195,-5.179243,0.196450,5.469282,5.755971,0.054421,-5.507567,-0.119518,0.196937,-0.044457,56.050409,188.420325,1022.785145,-1322.764966,0
0.026042,189.994046,-63.917753,-70.632653,-1.048106,-3.616047,-2.469012,6.435814,4.289979,2.638364,-6.512837,-0.093995,0.197832,-0.011006,53.393444,188.495691,1021.884246,-1323.066988,0
0.027083,163.631320,-20.942761,-146.884393,-2.534334,-1.755624,-4.308671,6.126524,2.280887,4.350928,-5.998779,-0.112226,0.190804,-0.029590,35.368866,188.269453,1020.397696,-1322.806710,0
0.028125,103.007221,23.747002,-197.034342,-3.502634,0.732278,-5.481965,4.711522,-0.275103,5.649370,-4.646995,-0.093995,0.222567,-0.033307,17.569455,188.495873,1019.457590,-1322.898483,0
0.029167,56.428929,94.076123,-187.641100,-3.322485,3.154130,-6.291416,3.010426,-2.713359,6.227414,-2.830654,-0.035656,0.191631,-0.044457,9.981344,188.420282,1018.609754,-1322.108932,0
0.030208,14.811304,164.698868,-140.832860,-2.421741,5.098951,-5.845809,0.655955,-4.722451,5.817607,-0.542141,-0.017425,0.181985,-0.048173,-1.434597,188.495700,1016.403689,-1321.802296,0
0.031250,-37.801149,197.021136,-84.752895,-1.374626,6.397944,-4.271878,-2.034869,-5.987153,4.156808,2.176658,0.059144,0.181296,-0.022156,-22.104881,188.269559,1015.604326,-1321.601247,0
0.032292,-118.245317,169.385127,-38.284903,-0.462623,6.834611,-2.317751,-4.308152,-6.503669,2.267381,4.377590,0.117483,0.182536,-0.011006,-48.843402,188.344909,1013.887605,-1321.165297,0
0.033333,-180.123708,118.294333,4.804925,0.381825,6.064022,-0.118336,-5.502785,-5.641544,-0.044795,5.443786,0.150299,0.200037,-0.022156,-55.542105,188.420405,1013.269749,-1320.559310,0
0.034375,-189.649545,64.196817,70.630531,1.631607,4.522844,2.588008,-6.415190,-4.133775,-2.637366,6.410978,0.150299,0.197212,-0.014723,-51.275200,188.495499,1012.148882,-1319.776190,0
0.035417,-163.829216,21.139610,147.502006,3.095316,2.644073,4.362257,-6.098168,-2.166460,-4.349929,5.938805,0.135714,0.228493,-0.029590,-37.303619,188.269565,1010.673137,-1320.388735,0
0.036458,-103.363315,-23.644114,196.752731,4.029838,0.148832,5.547816,-4.679300,0.423711,-5.579351,4.602253,0.102898,0.203275,-0.066757,-18.490959,188.420273,1009.292547,-1320.724966,0
0.037500,-56.468625,-94.196389,187.967073,3.928504,-2.273020,6.328649,-2.993669,2.842977,-6.209160,2.751642,0.070083,0.197763,-0.040740,-8.493567,188.420430,1008.530595,-1320.608943,0
0.038542,-14.625002,-164.361079,141.268198,3.050279,-4.162799,5.825809,-0.670126,4.806494,-5.816608,0.493591,0.033621,0.186602,-0.029590,1.774026,188.495669,1007.263747,-1320.408195,0
0.039583,37.930951,-197.352813,85.103172,1.946867,-5.443445,4.313200,2.024564,6.090187,-4.091104,-2.209976,0.004452,0.188186,-0.018440,23.705242,188.269527,1006.252381,-1320.381112,0
0.040625,118.126521,-169.505394,38.841758,1.079901,-5.861765,2.330456,4.270783,6.591510,-2.223245,-4.433756,-0.061180,0.183501,-0.007290,49.025214,188.420417,1005.200783,-1320.415569,0
0.041667,180.027512,-118.708225,-4.539710,0.224195,-5.149887,0.118776,5.488613,5.710396,0.127755,-5.488528,-0.097641,0.200313,-0.044457,57.378891,188.420269,1004.201515,-1320.777146,0
0.042708,189.530749,-64.352319,-70.717715,-1.003069,-3.619717,-2.509893,6.381688,4.278586,2.694443,-6.440488,-0.086703,0.204309,-0.025873,53.584835,188.495622,1003.215418,-1320.625647,0
0.043750,163.970318,-21.024976,-147.248943,-2.523075,-1.740947,-4.267790,6.087863,2.265696,4.346614,-5.991163,-0.075764,0.201277,0.000144,37.699339,188.420189,1003.156320,-1320.786205,0
0.044792,103.549617,23.782237,-196.730550,-3.457597,0.765303,-5.445172,4.668994,-0.271305,5.601919,-4.620340,-0.115872,0.212990,-0.033307,18.740321,188.571080,1002.667459,-1320.320995,0
0.045833,56.801826,94.123103,-187.774768,-3.311226,3.190825,-6.254622,2.944702,-2.747540,6.274865,-2.788768,-0.024718,0.172546,-0.014723,10.319094,188.571151,1002.351880,-1321.313886,0
0.046875,15.037302,164.616653,-140.917922,-2.421741,5.139315,-5.821280,0.636624,-4.722451,5.830548,-0.542141,-0.006487,0.189220,-0.018440,-1.096847,188.646487,1002.380044,-1321.463042,0
0.047917,-37.722049,197.103351,-84.983777,-1.419663,6.375927,-4.263702,-2.077397,-6.017537,4.143867,2.214736,0.048206,0.185499,-0.011006,-22.825414,188.495877,1002.067522,-1322.215844,0
0.048958,-118.403516,169.396872,-38.710211,-0.473882,6.878645,-2.334104,-4.342947,-6.530254,2.228557,4.385206,0.110191,0.183708,-0.033307,-48.685785,188.571118,1001.795540,-1322.757798,0
0.050000,-179.728211,118.658429,4.926442,0.348047,6.089708,-0.085631,-5.487320,-5.626352,-0.083619,5.478056,0.132068,0.198659,-0.018440,-56.926879,188.571111,1001.264414,-1323.382159,0
0.051042,-189.683445,64.737087,70.922171,1.642866,4.526513,2.616625,-6.453852,-4.133775,-2.628738,6.433825,0.143006,0.197901,-0.011006,-53.031499,188.646505,1001.479220,-1323.713826,0
0.052083,-163.976115,21.268805,147.307579,3.106575,2.677099,4.394962,-6.121365,-2.158865,-4.397381,5.957845,0.117483,0.197694,-0.014723,-38.204285,188.495763,1001.424245,-1324.447512,0
0.053125,-103.544114,-23.820289,197.092978,4.018579,0.104798,5.560080,-4.706363,0.385732,-5.609548,4.617484,0.110191,0.224497,-0.018440,-18.502217,188.495788,1002.139238,-1324.655576,0
0.054167,-56.931922,-94.208134,187.869859,3.883467,-2.276690,6.336825,-2.970472,2.877158,-6.265239,2.732602,0.059144,0.193629,0.000144,-8.369725,188.571138,1002.064737,-1325.636488,0
0.055208,-14.851000,-164.795645,141.535535,3.016501,-4.225180,5.887131,-0.685591,4.817888,-5.820922,0.474552,0.015390,0.205136,-0.018440,1.661442,188.646571,1002.011495,-1326.125854,0
0.056250,38.077850,-197.035698,85.394812,1.935608,-5.439775,4.333640,2.024564,6.105378,-4.121300,-2.206168,-0.046595,0.173304,0.003860,23.344975,188.495651,1002.355537,-1326.284492,0
0.057292,118.567218,-169.775529,38.866061,1.068642,-5.865434,2.354984,4.282382,6.610500,-2.184421,-4.433756,-0.057533,0.184603,-0.011006,49.531839,188.495725,1002.302177,-1326.665671,0
0.058333,179.745014,-118.896145,-4.588317,0.212935,-5.164565,0.139217,5.473149,5.714194,0.093245,-5.511375,-0.075764,0.200450,0.015011,56.129217,188.571189,1002.582000,-1326.716266,0
0.059375,189.779347,-64.904334,-70.474681,-1.059366,-3.616047,-2.481276,6.362358,4.286181,2.685816,-6.463336,-0.130457,0.198797,-0.003573,53.438477,188.646625,1002.723994,-1327.130142,0
0.060417,164.094617,-21.400817,-147.139578,-2.523075,-1.781311,-4.300495,6.099461,2.284685,4.407007,-5.998779,-0.090349,0.210579,-0.011006,35.548999,188.495702,1002.782190,-1327.890366,0
0.061458,104.012914,23.770492,-196.536123,-3.457597,0.794659,-5.449260,4.696057,-0.263710,5.584664,-4.608917,-0.053887,0.186464,-0.022156,17.603230,188.495700,1002.595562,-1327.757019,0
0.062500,57.174724,94.087868,-187.786920,-3.266189,3.168808,-6.275063,2.975631,-2.713359,6.210159,-2.788768,-0.032010,0.188531,0.011294,9.947569,188.571120,1002.232952,-1327.003942,0
0.063542,15.172901,164.041148,-141.403989,-2.421741,5.109959,-5.800840,0.683018,-4.718653,5.826234,-0.534526,-0.013779,0.182881,0.000144,-1.400822,188.646522,1001.886459,-1327.121497,0
0.064583,-37.959348,196.950666,-85.178204,-1.408404,6.408953,-4.288231,-2.061932,-6.006143,4.161122,2.127156,0.081021,0.192251,0.007577,-22.037331,188.495629,1002.638859,-1326.244856,0
0.065625,-117.849820,169.279422,-38.661605,-0.496401,6.805256,-2.305487,-4.261758,-6.492275,2.215616,4.396629,0.095606,0.183432,-0.040740,-48.652010,188.495703,1001.959258,-1326.037273,0
0.066667,-180.123708,118.916819,4.732015,0.359306,6.089708,-0.138776,-5.479588,-5.611161,-0.053423,5.439978,0.095606,0.198452,-0.011006,-55.564622,188.571008,1002.075783,-1325.547234,0
0.067708,-189.570446,65.007223,70.448256,1.631607,4.548530,2.543038,-6.384261,-4.137573,-2.633052,6.414786,0.161237,0.196316,-0.018440,-51.297717,188.646627,1001.727222,-1325.478022,0
0.068750,-164.247313,21.832565,147.562764,3.106575,2.695446,4.382698,-6.090436,-2.166460,-4.341302,5.957845,0.139360,0.198039,-0.011006,-37.416202,188.495604,1001.848038,-1325.129499,0
0.069792,-104.278609,-23.608879,196.339574,4.041097,0.174518,5.519199,-4.683166,0.404722,-5.575037,4.587021,0.084667,0.200657,0.000144,-18.592284,188.495812,1000.951801,-1324.952622,0
0.070833,-57.248320,-94.219879,188.137196,3.905986,-2.254673,6.361354,-3.020731,2.854371,-6.222102,2.774489,0.095606,0.207547,-0.018440,-8.527342,188.571189,1001.219360,-1324.502828,0
0.071875,-14.964000,-164.008729,141.802872,2.971464,-4.181146,5.903483,-0.693323,4.817888,-5.799353,0.512631,0.037267,0.210648,0.026161,1.785284,188.646471,1001.075661,-1324.187512,0
0.072917,38.100450,-197.458518,85.613542,1.946867,-5.454453,4.378610,1.989769,6.135761,-4.104045,-2.209976,-0.032010,0.195627,-0.037023,23.750275,188.495691,1001.076386,-1324.707019,0
0.073958,117.968322,-169.716804,39.279218,1.023605,-5.876442,2.346808,4.266917,6.610500,-2.214617,-4.384254,-0.090349,0.186808,-0.011006,48.890114,188.495660,1001.172959,-1324.170555,0
0.075000,180.061412,-119.401181,-4.296677,0.224195,-5.193921,0.155569,5.480881,5.782556,0.054421,-5.576108,-0.083057,0.199693,-0.007290,57.401407,188.571214,1002.293838,-1325.226160,0
0.076042,189.542049,-65.186214,-70.474681,-1.070625,-3.583022,-2.464924,6.381688,4.255798,2.616796,-6.470951,-0.090349,0.199279,-0.003573,53.618610,188.646458,1002.260751,-1324.664839,0
0.077083,164.614414,-21.541757,-147.334005,-2.500556,-1.762963,-4.304583,6.072398,2.299877,4.355241,-5.987355,-0.123164,0.211406,-0.007290,37.845698,188.495696,1002.481822,-1324.229876,0
0.078125,104.611810,23.629552,-196.390303,-3.457597,0.706592,-5.441084,4.676727,-0.244720,5.580350,-4.631764,-0.090349,0.217813,-0.014723,18.796612,188.420341,1002.759836,-1324.326926,0
0.079167,57.592821,93.982162,-188.029953,-3.299967,3.139452,-6.320033,3.002694,-2.724752,6.270552,-2.830654,-0.039302,0.218709,-0.007290,10.319094,188.571051,1003.507595,-1325.127885,0
0.080208,15.274601,164.205578,-141.367534,-2.466778,5.128307,-5.792664,0.679152,-4.699663,5.808979,-0.580220,0.011744,0.199968,-0.007290,-1.119364,188.646458,1003.815169,-1324.608827,0
0.081250,-37.902848,197.209056,-84.983777,-1.385885,6.405283,-4.280055,-1.992342,-6.028930,4.174064,2.130963,0.040913,0.191356,-0.011006,-22.802897,188.495653,1004.091735,-1324.898499,0
0.082292,-118.222717,169.514322,-38.831728,-0.496401,6.845620,-2.305487,-4.284955,-6.496073,2.254440,4.373782,0.102898,0.183846,0.007577,-48.528169,188.420365,1004.727745,-1324.709148,0
0.083333,-179.886410,119.175209,4.732015,0.325528,6.126403,-0.097895,-5.522115,-5.664331,-0.066364,5.462825,0.124775,0.197763,0.000144,-56.960654,188.571219,1005.097749,-1325.343451,0
0.084375,-189.626945,65.218633,70.594076,1.620348,4.519174,2.563479,-6.419057,-4.122382,-2.607170,6.471903,0.143006,0.198177,-0.029590,-53.065274,188.571141,1005.430875,-1325.730943,0
0.085417,-164.236013,21.632900,146.979484,3.072797,2.721132,4.374522,-6.090436,-2.231025,-4.358557,5.980692,0.102898,0.201553,-0.018440,-38.249319,188.571152,1006.108491,-1325.682457,0
0.086458,-104.414209,-23.585389,196.521849,4.041097,0.167179,5.502846,-4.717961,0.397126,-5.553469,4.609868,0.102898,0.216642,-0.037023,-18.569767,188.420240,1006.393947,-1325.569740,0
0.087500,-57.463019,-93.855784,188.137196,3.939764,-2.221648,6.336825,-2.989802,2.816392,-6.196219,2.770681,0.055498,0.186533,0.018727,-8.358467,188.571172,1006.169156,-1325.049843,0
0.088542,-15.065699,-164.043964,142.033754,2.982723,-4.170138,5.842161,-0.685591,4.840676,-5.769157,0.508823,0.008098,0.202035,-0.033307,1.571376,188.571051,1005.827114,-1325.285970,0
0.089583,37.942251,-197.223618,85.455570,1.935608,-5.432436,4.292759,2.032296,6.082591,-4.151496,-2.248055,-0.013779,0.187291,-0.029590,23.187359,188.571111,1005.771490,-1325.036802,0
0.090625,117.979622,-169.799019,39.072639,1.034864,-5.847087,2.399954,4.247586,6.595308,-2.197362,-4.426140,-0.072118,0.185361,-0.022156,49.317930,188.420349,1005.429663,-1325.387726,0
0.091667,179.971012,-119.530376,-4.357435,0.212935,-5.164565,0.131040,5.461550,5.721790,0.028539,-5.480912,-0.108580,0.198452,0.003860,56.185508,188.571114,1004.882457,-1323.915062,0
0.092708,189.711548,-65.115744,-70.012918,-1.048106,-3.616047,-2.415866,6.354625,4.286181,2.638364,-6.410026,-0.090349,0.192389,-0.022156,53.460994,188.570935,1004.631320,-1323.578703,0
0.093750,164.354515,-21.706187,-146.920848,-2.500556,-1.770302,-4.251438,6.072398,2.296079,4.376810,-5.945469,-0.137749,0.213817,-0.037023,35.661583,188.646480,1003.958033,-1323.436440,0
0.094792,104.905608,23.688277,-196.195876,-3.457597,0.765303,-5.424732,4.653530,-0.267508,5.550153,-4.593685,-0.072118,0.211957,-0.048173,17.614488,188.419998,1003.234014,-1323.244700,0
0.095833,57.547621,93.888202,-188.333745,-3.345004,3.135783,-6.287328,2.991095,-2.739944,6.167021,-2.815423,-0.021072,0.205411,-0.025873,9.868761,188.571067,1002.324206,-1322.630123,0
0.096875,15.229401,163.336447,-141.914359,-2.455519,5.065926,-5.739518,0.644357,-4.623705,5.817607,-0.515487,0.004452,0.191976,-0.033307,-1.412080,188.571125,1001.524703,-1322.278393,0
0.097917,-37.891548,197.373486,-85.275417,-1.397145,6.375927,-4.243261,-2.007806,-5.979558,4.152495,2.134771,0.088314,0.189358,-0.029590,-21.992298,188.569398,1001.073323,-1321.935623,0
0.098958,-117.352623,169.408617,-38.698060,-0.507660,6.790578,-2.244165,-4.265624,-6.458094,2.189733,4.320473,0.088314,0.184328,-0.007290,-48.426844,188.420084,999.933060,-1321.155494,0
0.100000,-180.270607,119.222189,4.768470,0.325528,6.049344,-0.126512,-5.440927,-5.630150,-0.001658,5.424747,0.099252,0.197832,-0.011006,-55.699722,188.570854,1000.234617,-1320.224647,0
0.101042,-189.265348,65.112928,70.132312,1.586570,4.497157,2.473540,-6.349466,-4.095796,-2.611483,6.361476,0.153945,0.198521,-0.059323,-51.320233,188.570919,999.035100,-1319.061575,0
0.102083,-164.292513,21.785585,147.161759,3.084057,2.680768,4.292759,-6.086570,-2.162662,-4.319733,5.904535,0.153945,0.211612,0.007577,-37.472494,188.571485,997.740431,-1318.485112,0
0.103125,-105.024405,-23.550154,195.622626,4.007319,0.185527,5.482406,-4.663835,0.404722,-5.536214,4.575598,0.113837,0.209201,-0.014723,-18.637317,188.420097,996.969956,-1318.278689,0
0.104167,-57.293520,-93.949744,188.623263,3.905986,-2.225317,6.316385,-3.001401,2.865765,-6.204847,2.766873,0.081021,0.202655,-0.014723,-8.414758,188.570846,996.914065,-1318.964456,0
0.105208,-14.930100,-162.904698,142.349697,3.005242,-4.133443,5.825809,-0.670126,4.825484,-5.717392,0.505015,0.008098,0.194594,-0.018440,1.717734,188.570893,996.038681,-1318.459105,0
0.106250,38.077850,-197.740398,85.601390,1.958127,-5.395742,4.358169,1.985902,6.071197,-4.147182,-2.164282,-0.068472,0.188462,-0.011006,23.660209,188.570332,996.680710,-1317.771124,0
0.107292,117.177327,-169.705059,39.218459,1.068642,-5.847087,2.367249,4.193461,6.561127,-2.197362,-4.391870,-0.050241,0.184948,-0.007290,48.541106,188.419799,996.147597,-1317.121703,0
0.108333,180.151811,-119.659571,-4.381739,0.224195,-5.168234,0.151481,5.453818,5.759769,0.011284,-5.484720,-0.090349,0.199417,-0.033307,57.581541,188.495130,996.753527,-1317.293431,0
0.109375,189.259551,-65.233194,-69.782036,-1.048106,-3.601369,-2.440395,6.373956,4.297575,2.638364,-6.455720,-0.112226,0.193492,-0.018440,53.719935,188.570068,996.906297,-1317.648225,0
0.110417,164.569214,-21.565247,-146.787179,-2.511815,-1.770302,-4.288231,6.103327,2.292281,4.299163,-5.968316,-0.086703,0.200382,-0.003573,37.811923,188.646594,997.185960,-1317.006445,0
