1-Time,2-VGERA,3-VGERB,4-VGERC,5-VN,6-IGERAN,7-IGERBN,8-IGERCN,9-IGERAT,10-IGERBT,11-IGERCT,12-IN,13-IFD,14-IFAULT,15-VFAULT,16-Speed (rad/s),17-Active Power,18-Reactive Power,19-FAULT 
0.000000,93.215121,76.342125,-196.096023,-0.781632,-3.300743,-2.811251,5.778222,3.499444,2.703903,-5.569484,-0.029809,0.439267,-0.050629,-11.318971,188.344948,1616.914726,-16.824108,0
0.001042,27.485330,134.729134,-188.660417,-0.668532,-1.362291,-4.378842,5.196129,1.565999,4.378383,-5.131869,-0.022503,0.458538,-0.035692,8.858068,188.420356,1616.327177,-15.945432,0
0.002083,-33.367185,181.301019,-139.442614,0.258888,0.977342,-5.501951,3.938657,-0.735021,5.486310,-3.893739,-0.069992,0.449523,-0.017021,29.544058,188.495658,1616.017858,-14.961775,0
0.003125,-86.847075,200.630465,-65.849811,1.627398,3.203366,-5.700380,1.867747,-3.072798,5.838832,-1.976059,-0.102869,0.442990,-0.028224,49.257387,188.495721,1615.877987,-13.968845,0
0.004167,-150.194940,170.476529,-2.819508,2.792328,4.854246,-4.993972,-0.259134,-4.594558,5.066641,0.158649,-0.132093,0.438352,-0.024490,72.408957,188.344898,1614.721217,-14.064252,0
0.005208,-184.993731,120.280372,57.231629,3.923328,5.606905,-3.509722,-2.359895,-5.495117,3.664945,2.211526,-0.154011,0.438026,-0.050629,75.225147,188.420323,1613.426350,-13.724897,0
0.006250,-190.052487,41.271260,116.310228,5.122188,5.773768,-1.501618,-4.277820,-5.594362,1.713483,4.054491,-0.216112,0.446387,-0.035692,68.156397,188.495627,1611.927853,-12.355134,0
0.007292,-162.830485,-23.337414,165.084849,6.004368,5.060162,0.514422,-5.356185,-4.969485,-0.296733,5.228581,-0.238030,0.448739,-0.046895,48.058527,188.495821,1612.162103,-10.575494,0
0.008333,-95.149785,-75.659810,195.430493,6.615108,3.356028,2.915415,-5.889771,-3.256585,-2.697241,5.634175,-0.267254,0.451809,-0.065566,17.906068,188.344838,1610.950212,-10.082975,0
0.009375,-28.841527,-134.747511,188.708902,6.456768,1.431778,4.534598,-5.356185,-1.381953,-4.413688,5.292622,-0.219765,0.455664,-0.002084,-4.035331,188.420345,1611.469902,-8.887048,0
0.010417,33.723706,-180.703270,139.207955,5.585898,-0.918507,5.641832,-4.098714,0.911716,-5.462861,4.018913,-0.216112,0.449131,-0.035692,-24.857041,188.491261,1610.389937,-8.011499,0
0.011458,86.557073,-200.842137,64.913447,4.149528,-3.112579,5.776764,-2.027803,3.311980,-5.836367,2.122580,-0.194194,0.439594,-0.028224,-45.475171,188.492171,1610.750474,-6.905758,0
0.012500,149.485266,-170.398259,2.547917,2.984598,-4.688902,5.165602,0.106540,4.778605,-5.101946,0.055471,-0.121134,0.439528,-0.050629,-66.896310,188.344730,1609.094925,-5.558919,0
0.013542,184.544935,-120.431640,-56.875379,1.842288,-5.526768,3.641666,2.199839,5.723272,-3.733824,-1.993848,-0.088257,0.438875,-0.054364,-71.001840,188.420215,1608.426703,-4.269744,0
0.014583,189.501608,-42.389000,-116.581819,0.711288,-5.682980,1.685154,4.177465,5.826193,-1.690035,-3.875949,-0.055380,0.443578,-0.054364,-64.159290,188.495515,1607.405546,-3.830190,0
0.015625,162.914786,22.823720,-165.159470,-0.250062,-4.951623,-0.414226,5.196129,5.168234,0.320181,-5.018018,-0.022503,0.456055,-0.073035,-43.744741,188.495432,1606.857927,-3.989647,0
0.016667,94.485481,76.414610,-195.702084,-0.804252,-3.286542,-2.839031,5.774491,3.455335,2.703903,-5.501885,-0.015197,0.455402,-0.058098,-12.585691,188.419960,1605.924998,-4.722301,0
0.017708,27.281165,134.837862,-188.746591,-0.691152,-1.351641,-4.378842,5.173740,1.540269,4.390973,-5.121196,-0.011544,0.467030,-0.035692,7.828858,188.420017,1605.899291,-5.064623,0
0.018750,-34.365325,181.252695,-138.691667,0.247578,1.012845,-5.501951,3.949851,-0.716642,5.435950,-3.811908,-0.048074,0.412941,-0.020755,29.555368,188.495374,1604.438442,-4.785958,0
0.019792,-86.813047,200.727112,-65.111174,1.661328,3.253070,-5.720223,1.934911,-3.058095,5.788472,-1.958270,-0.091910,0.442468,-0.058098,49.234767,188.420017,1603.597036,-4.661904,0
0.020833,-150.512530,170.488609,-3.311932,2.792328,4.843595,-5.025721,-0.270328,-4.539422,5.049854,0.162207,-0.139399,0.440900,-0.039427,71.515467,188.413083,1602.990263,-4.539765,0
0.021875,-184.812251,121.174359,57.096212,3.945948,5.638857,-3.505753,-2.344970,-5.528199,3.715306,2.200853,-0.179582,0.439006,-0.009553,74.557857,188.420240,1603.827930,-4.349359,0
0.022917,-190.086514,42.467270,116.716478,5.099568,5.777318,-1.497650,-4.311402,-5.583335,1.692500,4.079396,-0.219765,0.442207,-0.050629,68.812377,188.495725,1604.070446,-5.137139,0
0.023958,-162.762430,-23.808570,164.801705,6.015678,5.003357,0.538234,-5.315140,-4.973160,-0.351290,5.175213,-0.234377,0.456970,-0.017021,47.051937,188.495712,1603.499194,-5.343535,0
0.025000,-93.720630,-75.998075,195.972160,6.660348,3.352478,2.967007,-5.893503,-3.267612,-2.726618,5.644849,-0.248989,0.464352,-0.017021,17.566768,188.269550,1603.793601,-5.023921,0
0.026042,-27.219549,-134.517974,188.561175,6.490698,1.428227,4.486975,-5.322603,-1.323141,-4.380115,5.257043,-0.248989,0.447302,-0.024490,-5.098471,188.420320,1602.706246,-5.037244,0
0.027083,33.632966,-181.114021,139.392614,5.574588,-0.918507,5.629927,-4.068863,0.959500,-5.462861,4.011797,-0.230724,0.441292,-0.058098,-23.986171,188.495709,1602.927505,-5.669384,0
0.028125,86.738553,-200.201849,66.144508,4.160838,-3.133880,5.776764,-2.024072,3.282574,-5.790203,2.115465,-0.161317,0.440639,-0.050629,-44.332861,188.495732,1602.130304,-5.830420,0
0.029167,150.075076,-170.627796,3.163447,3.007218,-4.699553,5.110042,0.158779,4.774929,-5.097749,0.030566,-0.143052,0.437830,-0.009553,-66.794520,188.269454,1602.282873,-6.246313,0
0.030208,184.363455,-120.298750,-57.170834,1.842288,-5.477064,3.601980,2.244615,5.668136,-3.687660,-2.032985,-0.091910,0.439332,-0.061832,-68.728530,188.495716,1601.410563,-6.850700,0
0.031250,189.637718,-40.842644,-116.200190,0.733908,-5.633276,1.633563,4.140151,5.796787,-1.694231,-3.897296,-0.073645,0.408172,-0.031958,-64.159290,188.420350,1601.044671,-6.623413,0
0.032292,162.302291,24.031810,-164.679357,-0.193512,-4.937422,-0.338823,5.151352,5.160883,0.328575,-4.968208,-0.029809,0.447694,-0.035692,-41.030341,188.495703,1600.145427,-6.033575,0
0.033333,94.621591,76.317963,-195.283523,-0.759012,-3.268791,-2.771565,5.733446,3.477389,2.607379,-5.455633,-0.018850,0.455664,-0.046895,-11.974951,188.269666,1599.084569,-4.860279,0
0.034375,28.574211,134.862024,-188.746591,-0.679842,-1.358741,-4.331219,5.177472,1.599081,4.332220,-5.082059,0.014027,0.457689,-0.046895,8.835448,188.495765,1598.377444,-4.358337,0
0.035417,-33.854912,180.721135,-139.479546,0.236268,0.995093,-5.462265,3.927463,-0.698263,5.444343,-3.843929,-0.055380,0.445408,-0.031958,29.691088,188.472408,1598.693266,-4.362715,0
0.036458,-87.062582,200.932488,-64.901894,1.672638,3.199816,-5.640851,1.890135,-3.010310,5.721325,-1.947596,-0.080951,0.437242,-0.039427,49.087737,188.469112,1597.643050,-3.947348,0
0.037500,-149.571102,170.343639,-2.290152,2.860188,4.772589,-5.001909,-0.244209,-4.447528,5.058247,0.098165,-0.117481,0.438483,-0.028224,72.148827,188.337252,1596.570903,-2.375359,0
0.038542,-185.016416,120.437424,57.317803,4.002498,5.571402,-3.517659,-2.315119,-5.428953,3.715306,2.161717,-0.190541,0.440182,-0.005818,75.304317,188.488981,1595.223755,-1.416971,0
0.039583,-189.666841,42.648483,116.482576,5.099568,5.724064,-1.525430,-4.195729,-5.509820,1.734467,3.986892,-0.238030,0.444493,-0.013287,68.212947,188.485071,1593.617135,-0.394113,0
0.040625,-163.397610,-22.443428,165.318751,6.015678,5.017559,0.466799,-5.296484,-4.906997,-0.309323,5.143192,-0.245336,0.454030,-0.031958,48.182937,188.488453,1592.914326,-0.697316,0
0.041667,-95.784965,-76.046399,194.802652,6.603798,3.352478,2.895572,-5.822607,-3.289667,-2.630094,5.595039,-0.216112,0.459452,-0.058098,17.600698,188.409250,1591.990945,-0.036316,0
0.042708,-27.559824,-134.493812,189.102841,6.490698,1.403375,4.407603,-5.281558,-1.337844,-4.308771,5.232138,-0.241683,0.418494,-0.039427,-4.374631,188.475281,1591.300804,0.371526,0
0.043750,34.733188,-179.821364,139.318750,5.563278,-0.865253,5.606115,-4.061400,0.915391,-5.383124,4.011797,-0.205153,0.446779,-0.054364,-25.004071,188.482118,1589.913112,1.418505,0
0.044792,86.851978,-200.866299,65.258144,4.194768,-3.084176,5.772796,-2.072580,3.212735,-5.744040,2.151043,-0.175929,0.446126,-0.058098,-45.644821,188.483902,1589.249974,2.724017,0
0.045833,149.576006,-170.325773,3.532765,3.052458,-4.653399,5.086231,0.072958,4.683035,-5.085159,0.094608,-0.124787,0.439920,-0.024490,-66.737970,188.261851,1588.036889,3.820316,0
0.046875,184.941922,-121.458517,-56.924621,1.830978,-5.477064,3.657541,2.151331,5.627703,-3.725431,-1.986733,-0.113828,0.443513,-0.020755,-71.160180,188.489240,1588.119177,4.428138,0
0.047917,189.172675,-42.328595,-116.471023,0.699978,-5.597773,1.665311,4.102837,5.734300,-1.744592,-3.815466,-0.040768,0.442990,-0.061832,-64.193220,188.490345,1587.005834,5.159162,0
0.048958,162.699279,23.790192,-164.864016,-0.204822,-4.905469,-0.342792,5.162546,5.201316,0.274018,-4.968208,-0.029809,0.428488,-0.054364,-43.575091,188.495571,1587.515141,5.919751,0
0.050000,94.111178,76.982412,-194.717235,-0.781632,-3.275891,-2.751722,5.696132,3.470038,2.590592,-5.437844,-0.000585,0.450960,-0.043161,-12.495211,188.269362,1586.968320,6.393505,0
0.051042,26.736725,134.910347,-188.931251,-0.645912,-1.383593,-4.307407,5.170009,1.595405,4.332220,-5.082059,-0.022503,0.441357,-0.031958,7.704448,188.495734,1586.870012,6.979618,0
0.052083,-34.206530,180.346627,-139.639584,0.258888,0.938289,-5.414642,3.923732,-0.668857,5.427556,-3.858160,-0.040768,0.444624,-0.028224,29.747638,188.420256,1586.672522,7.529126,0
0.053125,-87.153322,200.630465,-66.059091,1.638708,3.153662,-5.597197,1.931180,-2.988255,5.763292,-1.965386,-0.091910,0.441553,-0.043161,49.313937,188.495683,1587.177073,7.643396,0
0.054167,-150.194940,170.391962,-3.176515,2.792328,4.797441,-4.978098,-0.244209,-4.484286,5.054051,0.105281,-0.143052,0.436458,-0.028224,71.142237,188.269411,1587.676269,7.117711,0
0.055208,-184.868964,120.703204,57.527084,3.957258,5.592704,-3.462099,-2.296462,-5.447332,3.660749,2.158159,-0.197847,0.436458,-0.046895,74.704887,188.495725,1587.496731,6.601824,0
0.056250,-189.632814,41.440393,116.482576,5.122188,5.702762,-1.561147,-4.244237,-5.520847,1.700893,4.026028,-0.201500,0.439202,-0.054364,68.880237,188.420157,1587.665598,6.318566,0
0.057292,-162.694375,-24.026026,164.949432,6.004368,5.042410,0.446956,-5.255438,-4.969485,-0.250569,5.089824,-0.241683,0.452136,-0.061832,47.470407,188.495580,1587.347589,8.314146,0
0.058333,-95.217840,-76.288017,194.827273,6.581178,3.384431,2.879698,-5.811413,-3.256585,-2.604914,5.573692,-0.256295,0.447498,-0.035692,18.222748,188.269447,1586.668651,8.513670,0
0.059375,-28.671389,-134.505893,188.856629,6.513318,1.460180,4.411571,-5.274095,-1.356222,-4.312968,5.217907,-0.270907,0.455860,-0.050629,-4.985371,188.495685,1586.616058,8.280770,0
0.060417,33.780418,-180.026739,139.798864,5.563278,-0.854602,5.534681,-4.012892,0.911716,-5.391518,3.994008,-0.216112,0.448347,-0.031958,-24.178441,188.420283,1586.685143,7.719838,0
0.061458,87.067486,-200.515953,65.258144,4.149528,-3.066425,5.745016,-2.065117,3.194356,-5.723056,2.168832,-0.183235,0.444232,-0.050629,-44.208451,188.495640,1586.327268,8.139411,0
0.062500,149.337813,-170.325773,2.412500,2.984598,-4.621447,5.098136,0.061764,4.738171,-5.080962,0.062587,-0.135746,0.434956,-0.058098,-66.466530,188.269449,1586.722086,7.715748,0
0.063542,184.488222,-120.455802,-57.453977,1.864908,-5.487715,3.633729,2.155062,5.671812,-3.729627,-1.951154,-0.102869,0.440769,-0.046895,-68.852940,188.420273,1586.788778,8.440229,0
0.064583,189.399525,-42.244029,-116.347917,0.711288,-5.597773,1.708966,4.031941,5.719597,-1.761378,-3.783445,-0.059033,0.440116,-0.043161,-64.295010,188.420235,1586.469124,8.862489,0
0.065625,162.971499,22.920367,-165.036364,-0.216132,-4.909019,-0.322949,5.095382,5.164558,0.206871,-4.897051,-0.026156,0.442141,-0.031958,-41.358331,188.493353,1585.402079,9.436892,0
0.066667,95.835238,76.704552,-194.298675,-0.804252,-3.297193,-2.731879,5.655087,3.492092,2.594789,-5.412939,-0.011544,0.458473,-0.039427,-11.771371,188.344820,1585.460517,9.029935,0
0.067708,27.417275,134.849943,-189.115910,-0.713772,-1.390694,-4.259784,5.143890,1.613784,4.210515,-5.018018,-0.044421,0.460171,-0.039427,9.219988,188.495736,1583.798239,9.623691,0
0.068750,-34.989162,179.718420,-139.676516,0.258888,0.931188,-5.382893,3.931194,-0.632100,5.339426,-3.808350,-0.062686,0.432930,-0.073035,29.917288,188.421457,1582.135359,10.155491,0
0.069792,-87.141980,201.113701,-65.111174,1.661328,3.146562,-5.581323,1.942374,-2.907389,5.670965,-2.004522,-0.073645,0.438222,-0.054364,49.246077,188.495770,1580.782520,11.540081,0
0.070833,-149.332910,170.331558,-3.299621,2.837568,4.644779,-4.946349,-0.135999,-4.410771,5.024674,0.037682,-0.143052,0.441292,-0.046895,71.764287,188.344853,1579.545452,12.433250,0
0.071875,-185.311321,121.609272,57.256250,3.991188,5.514597,-3.521628,-2.229297,-5.399547,3.648159,2.094118,-0.179582,0.442272,-0.039427,75.473967,188.420415,1578.985525,12.852315,0
0.072917,-189.247169,42.962587,116.433334,5.099568,5.660159,-1.580990,-4.113639,-5.458359,1.742860,3.894388,-0.234377,0.442925,-0.005818,68.179017,188.420374,1577.406304,13.831026,0
0.073958,-162.932568,-23.421981,165.244887,6.049608,4.982056,0.403302,-5.199468,-4.881267,-0.221192,5.043572,-0.227071,0.451548,-0.065566,47.979357,188.495640,1576.181036,13.632845,0
0.075000,-95.365292,-76.819576,193.830114,6.603798,3.334727,2.768578,-5.751711,-3.238206,-2.550357,5.484745,-0.252642,0.453312,-0.009553,17.555458,188.344930,1574.495524,14.200019,0
0.076042,-26.822562,-134.530055,189.447538,6.524628,1.474381,4.363948,-5.289021,-1.448116,-4.254214,5.185886,-0.267254,0.473563,-0.017021,-4.329391,188.495707,1573.859268,16.128209,0
0.077083,34.710503,-178.734083,140.488258,5.608518,-0.762294,5.475152,-4.027818,0.845552,-5.282404,3.976218,-0.219765,0.446583,-0.043161,-25.151101,188.420300,1572.119027,17.141160,0
0.078125,87.192253,-200.805894,66.452273,4.183458,-2.981218,5.717236,-2.050192,3.120841,-5.668499,2.172390,-0.216112,0.445603,-0.050629,-45.803161,188.495617,1571.315354,17.490584,0
0.079167,149.269758,-170.144560,3.446591,3.029838,-4.514939,5.062419,0.050570,4.580114,-5.064176,0.133744,-0.110175,0.439790,-0.039427,-66.274260,188.344882,1569.598190,18.925938,0
0.080208,185.089375,-120.951119,-57.404735,1.830978,-5.374106,3.605949,2.102823,5.605648,-3.700250,-1.890671,-0.099216,0.435935,-0.035692,-71.352450,188.495667,1568.704924,19.393760,0
0.081250,188.832400,-41.374204,-116.138637,0.722598,-5.537419,1.669280,3.990896,5.668136,-1.744592,-3.737193,-0.040768,0.442272,-0.031958,-64.283700,188.420311,1567.348180,19.763793,0
0.082292,162.574511,24.213024,-164.913258,-0.159582,-4.898369,-0.295169,5.072993,5.153531,0.219461,-4.882820,-0.048074,0.419735,-0.039427,-43.744741,188.495694,1566.973278,20.126811,0
0.083333,95.234086,77.369001,-193.560038,-0.770322,-3.265241,-2.624728,5.662550,3.495768,2.527642,-5.377361,-0.022503,0.441292,-0.035692,-13.207741,188.344910,1565.935374,21.259786,0
0.084375,27.961716,135.127803,-189.152841,-0.702462,-1.429747,-4.247878,5.196129,1.617460,4.231499,-5.074944,-0.037115,0.459648,-0.046895,7.670518,188.420365,1566.896992,21.240182,0
0.085417,-34.444722,179.561368,-140.218182,0.224958,0.867283,-5.355113,3.912537,-0.599018,5.276475,-3.847487,-0.022503,0.453508,-0.028224,29.996458,188.420283,1566.511955,21.805158,0
0.086458,-87.538967,201.113701,-65.283523,1.661328,3.139461,-5.561480,1.927449,-2.933119,5.654178,-1.997406,-0.102869,0.439528,-0.024490,49.200837,188.495613,1566.536398,21.530693,0
0.087500,-149.423650,170.234911,-2.314773,2.837568,4.648330,-4.930475,-0.184507,-4.392392,4.995297,0.076818,-0.124787,0.433126,-0.087972,70.802937,188.344780,1566.023337,21.400753,0
0.088542,-184.937019,120.775690,57.760985,3.979878,5.496846,-3.509722,-2.255417,-5.366466,3.690126,2.111907,-0.186888,0.436915,-0.043161,74.829297,188.420244,1565.776855,22.008282,0
0.089583,-189.179114,42.334380,116.741099,5.122188,5.624656,-1.584959,-4.128565,-5.439981,1.730270,3.912177,-0.227071,0.430905,-0.024490,68.959407,188.420245,1565.642430,21.959881,0
0.090625,-163.295528,-22.866259,165.294129,6.026988,4.985606,0.454893,-5.225588,-4.951106,-0.258962,5.089824,-0.216112,0.452397,-0.058098,47.753157,188.495676,1566.964609,21.473568,0
0.091667,-96.408802,-76.662525,193.977841,6.592488,3.352478,2.808264,-5.740517,-3.267612,-2.575537,5.530997,-0.252642,0.454880,-0.009553,18.064408,188.344809,1568.088029,21.120895,0
0.092708,-27.741304,-134.566298,189.164395,6.468078,1.467280,4.383791,-5.247976,-1.396656,-4.283591,5.171655,-0.248989,0.452789,-0.046895,-5.358601,188.420249,1568.077383,19.989119,0
0.093750,35.028093,-179.181076,140.020455,5.597208,-0.787146,5.514838,-4.024086,0.893337,-5.315977,3.972661,-0.197847,0.415489,-0.024490,-24.393331,188.420372,1568.575694,19.574837,0
0.094792,87.351048,-200.685085,64.999621,4.206078,-3.027372,5.741047,-2.087505,3.179653,-5.668499,2.158159,-0.179582,0.442141,-0.028224,-44.344171,188.495656,1568.668060,19.361229,0
0.095833,149.326471,-170.132479,3.015720,3.007218,-4.529140,5.046545,0.013256,4.602169,-5.038995,0.108839,-0.139399,0.438418,-0.069301,-66.308190,188.344943,1568.613421,18.948208,0
0.096875,184.964607,-121.615568,-57.453977,1.853598,-5.395408,3.653572,2.058047,5.565215,-3.717037,-1.887113,-0.091910,0.439332,-0.035692,-68.977350,188.344853,1568.384965,19.064542,0
0.097917,189.025223,-42.896398,-116.594129,0.711288,-5.498366,1.720872,3.994628,5.671812,-1.782362,-3.655363,-0.044421,0.445081,-0.031958,-64.261080,188.420301,1568.261823,19.801200,0
0.098958,162.812704,23.717707,-164.987122,-0.216132,-4.852215,-0.303106,5.065531,5.098395,0.194280,-4.879262,-0.040768,0.455925,-0.009553,-41.211301,188.495627,1567.747516,19.559052,0
0.100000,95.041263,77.453568,-193.510796,-0.781632,-3.258140,-2.600916,5.617773,3.543553,2.515052,-5.313319,-0.004238,0.430644,-0.028224,-11.398141,188.420318,1567.195983,20.263270,0
0.101042,26.464505,134.837862,-189.202084,-0.657222,-1.411995,-4.184381,5.121501,1.690975,4.168549,-5.025134,-0.029809,0.431428,-0.050629,9.276538,188.420359,1566.055824,21.814990,0
0.102083,-35.250040,178.909000,-140.427463,0.247578,0.835331,-5.303522,3.916269,-0.602694,5.280672,-3.858160,-0.077298,0.451352,-0.028224,30.132178,188.420318,1566.076111,22.003235,0
0.103125,-87.697762,200.920407,-66.206818,1.650018,3.022302,-5.525762,1.968494,-2.852253,5.645784,-2.036543,-0.077298,0.444232,-0.039427,49.438347,188.495727,1565.745106,22.957437,0
0.104167,-149.491705,170.234911,-3.582765,2.803638,4.573774,-4.874915,-0.124805,-4.318877,5.003690,-0.015686,-0.146705,0.441749,-0.039427,71.515467,188.420178,1565.206813,24.150631,0
0.105208,-185.436089,121.258926,57.711743,3.968568,5.450692,-3.454162,-2.218103,-5.333384,3.723699,2.069213,-0.164970,0.436523,-0.017021,75.643617,188.420254,1565.193719,24.906566,0
0.106250,-188.940921,41.706173,116.347159,5.076948,5.628206,-1.573053,-4.053937,-5.355438,1.759647,3.844578,-0.208806,0.420453,-0.020755,68.190327,188.420399,1563.553812,25.766813,0
0.107292,-162.592293,-24.183078,165.306440,6.026988,4.974955,0.359647,-5.143497,-4.884942,-0.212799,5.029341,-0.248989,0.450960,-0.028224,48.126387,188.495689,1562.039333,26.780999,0
0.108333,-96.102555,-77.302813,193.116099,6.581178,3.419933,2.728892,-5.703203,-3.274964,-2.432849,5.477630,-0.230724,0.448804,-0.035692,18.256678,188.420273,1560.420775,28.652437,0
0.109375,-28.024867,-134.868320,189.361364,6.502008,1.556037,4.292514,-5.259170,-1.381953,-4.182870,5.210791,-0.252642,0.435674,-0.069301,-4.148431,188.420305,1560.072766,29.347461,0
0.110417,34.494996,-178.250846,140.771402,5.597208,-0.758744,5.427529,-4.053937,0.801443,-5.227847,3.965545,-0.201500,0.449000,-0.035692,-25.354681,188.420363,1558.672879,30.171983,0
0.111458,87.453131,-200.938784,65.787500,4.172148,-2.967017,5.681518,-2.098700,3.161275,-5.630729,2.143927,-0.161317,0.440116,-0.031958,-45.757921,188.494187,1558.255143,29.939667,0
