1-Time,2-VGERA,3-VGERB,4-VGERC,5-VN,6-IGERAN,7-IGERBN,8-IGERCN,9-IGERAT,10-IGERBT,11-IGERCT,12-IN,13-IFD,14-IFAULT,15-VFAULT,16-Speed (rad/s),17-Active Power,18-Reactive Power,19-FAULT 
0.000000,-102.783288,-79.090786,184.831061,6.388908,2.557216,2.165353,-4.427074,-2.407487,-2.004787,4.239499,-0.208806,0.382238,-0.028224,-18.127591,188.495948,1209.826661,-3.642043,0
0.001042,-27.854729,-135.254909,189.706061,6.502008,1.147755,3.494829,-4.191998,-0.959241,-3.435859,4.122090,-0.248989,0.399353,-0.017021,7.263358,188.495875,1211.187114,-3.077094,0
0.002083,37.682238,-169.770052,149.167235,5.732928,-0.591881,4.181394,-3.083781,0.691171,-4.048576,3.093872,-0.208806,0.398700,-0.039427,29.487508,188.495886,1211.615607,-2.597336,0
0.003125,89.755658,-198.933354,72.361364,4.319178,-2.459327,4.538566,-1.613621,2.642994,-4.547982,1.663618,-0.161317,0.397982,-0.050629,48.431757,188.496138,1212.340257,-3.104148,0
0.004167,145.515391,-170.567392,6.708902,3.029838,-3.410802,3.919467,-0.065103,3.595013,-3.905888,0.176438,-0.099216,0.396218,-0.043161,64.797327,188.495940,1212.703345,-3.738546,0
0.005208,185.146087,-122.316261,-55.595076,1.819668,-4.305472,2.800326,1.703566,4.469842,-2.898682,-1.570465,-0.077298,0.392102,-0.009553,75.598377,188.495910,1212.867647,-4.329799,0
0.006250,186.450475,-44.913909,-113.147159,0.767838,-4.216715,1.304170,3.013277,4.502923,-1.408856,-2.851289,-0.091910,0.393278,-0.020755,68.914167,188.495910,1213.620056,-4.720527,0
0.007292,159.727544,20.878694,-167.276894,-0.250062,-3.808433,-0.231672,3.979702,4.054482,0.152314,-3.783445,-0.066339,0.385374,-0.039427,49.709787,188.496033,1214.048209,-4.168616,0
0.008333,103.185179,79.060328,-184.671781,-0.589362,-2.530333,-2.005629,4.252092,2.745915,1.885548,-4.043168,-0.066339,0.411439,-0.035692,21.378238,188.496020,1213.252957,-4.141723,0
0.009375,28.562868,135.381502,-189.571402,-0.736392,-1.064068,-3.378759,4.054329,1.235182,3.345997,-3.911528,-0.055380,0.408564,-0.020755,-1.287002,188.495859,1212.994701,-4.798099,0
0.010417,-37.518540,169.582542,-149.364963,0.043998,0.657817,-4.029606,2.942381,-0.360094,3.958714,-2.879752,-0.066339,0.402032,-0.031958,-24.608221,188.496020,1211.856730,-4.984950,0
0.011458,-90.011632,199.047867,-72.251326,1.514298,2.493311,-4.426465,1.453565,-2.264133,4.462317,-1.485076,-0.110175,0.397328,-0.054364,-43.529851,188.571409,1210.793335,-4.841370,0
0.012500,-145.465117,170.875198,-6.328030,2.747088,3.430584,-3.751805,-0.046446,-3.216152,3.832813,-0.029917,-0.161317,0.394127,-0.065566,-59.748390,188.495816,1210.039597,-4.083912,0
0.013542,-185.526829,122.442854,55.729735,3.923328,4.325254,-2.716005,-1.815115,-4.087305,2.800427,1.684965,-0.161317,0.390535,-0.005818,-72.132840,188.495924,1209.111847,-3.797720,0
0.014583,-186.944641,45.088826,112.937122,5.009088,4.293302,-1.251598,-3.087513,-4.083629,1.323191,2.965790,-0.186888,0.375967,-0.039427,-64.656930,188.495944,1207.625742,-3.183517,0
0.015625,-159.870093,-20.111813,167.300758,6.083538,3.913422,0.288213,-4.068863,-3.660918,-0.162438,3.929966,-0.238030,0.371590,-0.046895,-45.961501,188.496058,1206.928458,-2.754662,0
0.016668,-104.178415,-78.631712,184.498675,6.388908,2.578517,2.066138,-4.393492,-2.440569,-1.908263,4.221710,-0.230724,0.394127,-0.031958,-19.631821,188.495978,1206.510449,-1.844564,0
0.017708,-29.306569,-135.327395,189.472160,6.468078,1.172607,3.395614,-4.121102,-0.973944,-3.356122,4.072280,-0.227071,0.401574,-0.020755,6.573448,188.495879,1205.339402,-1.610571,0
0.018750,37.307936,-169.298897,149.721213,5.732928,-0.538627,4.058368,-3.050199,0.610304,-4.027593,3.072525,-0.223418,0.406278,-0.031958,29.374408,188.496027,1204.716392,-1.025600,0
0.019792,89.778343,-198.848788,72.299811,4.285248,-2.409624,4.490943,-1.632278,2.554776,-4.493425,1.660060,-0.205153,0.395303,-0.043161,49.528827,188.495852,1203.485123,-0.236880,0
0.020833,144.902896,-170.929819,6.364205,3.041148,-3.322045,3.867876,-0.087491,3.539877,-3.863922,0.233364,-0.168623,0.392429,-0.058098,64.559817,188.496015,1202.529816,0.513990,0
0.021875,184.953265,-121.929672,-55.681250,1.887528,-4.202514,2.840012,1.655059,4.400002,-2.923862,-1.534886,-0.110175,0.390665,-0.035692,76.729377,188.495951,1201.688420,1.389960,0
0.022917,186.688667,-45.167608,-112.876326,0.756528,-4.206064,1.331950,2.953575,4.436760,-1.417250,-2.769459,-0.069992,0.394127,-0.013287,71.063067,188.495926,1200.377958,1.948542,0
0.023958,159.648146,19.755170,-167.412311,-0.272682,-3.819084,-0.195954,3.882686,3.995670,0.139723,-3.708731,-0.051727,0.400072,-0.020755,51.157467,188.571326,1199.008516,1.841347,0
0.025000,104.580306,78.601254,-184.524054,-0.600672,-2.477079,-1.954037,4.255823,2.790024,1.872958,-4.032495,-0.044421,0.405298,0.001650,23.414038,188.495875,1199.243189,1.983963,0
0.026042,29.288788,135.405664,-189.386743,-0.713772,-1.053417,-3.347010,4.020747,1.282966,3.270456,-3.907970,-0.040768,0.404579,-0.028224,-1.004252,188.495902,1198.660830,2.911270,0
0.027083,-37.779417,169.667108,-149.401894,0.032688,0.618764,-4.001826,2.957307,-0.338040,3.950320,-2.893984,-0.037115,0.402293,-0.035692,-24.710011,188.495888,1198.687054,3.372369,0
0.028125,-90.011632,198.914977,-71.968182,1.525608,2.489760,-4.418528,1.490878,-2.264133,4.416153,-1.474403,-0.084604,0.390535,-0.054364,-42.975661,188.495986,1198.029597,3.287478,0
0.029167,-145.306322,170.996007,-5.860227,2.747088,3.455436,-3.739900,-0.031521,-3.216152,3.820223,-0.022801,-0.186888,0.391253,-0.020755,-59.816250,188.495937,1197.886092,3.219019,0
0.030208,-185.197896,122.515340,55.865152,3.912018,4.286201,-2.712036,-1.800190,-4.072602,2.829804,1.692081,-0.175929,0.386680,-0.028224,-71.409000,188.495924,1197.907303,3.431459,0
0.031250,-186.933299,46.091541,112.998675,5.020398,4.275550,-1.207943,-3.124826,-4.116711,1.306404,2.972906,-0.205153,0.395565,-0.017021,-64.792650,188.496465,1198.375059,3.005784,0
0.032292,-160.357820,-18.794994,167.374622,6.038298,3.849517,0.312024,-4.057669,-3.723405,-0.204405,3.890830,-0.241683,0.401117,-0.028224,-45.995431,188.495714,1198.722600,2.700342,0
0.033333,-104.927020,-78.196799,184.474054,6.388908,2.560766,2.097887,-4.333790,-2.440569,-1.946033,4.193247,-0.230724,0.405037,-0.050629,-18.794881,188.495790,1198.655450,2.064130,0
0.034376,-29.079719,-135.218666,189.484470,6.502008,1.112252,3.471017,-4.109908,-0.926160,-3.351925,4.061607,-0.194194,0.403991,-0.069301,7.353838,188.495531,1198.347365,1.556172,0
0.035417,37.909088,-169.371382,149.413447,5.755548,-0.559929,4.082179,-3.012885,0.672792,-4.031789,3.019158,-0.186888,0.406278,-0.043161,29.498818,188.495640,1198.031985,0.646807,0
0.036458,89.710288,-198.848788,72.078220,4.273938,-2.423825,4.463163,-1.587502,2.591533,-4.413688,1.620924,-0.183235,0.392429,-0.046895,48.318657,188.495709,1197.097701,-0.156036,0
0.037500,144.732758,-170.760686,6.031818,3.063768,-3.357548,3.804378,-0.072566,3.558256,-3.859725,0.169322,-0.143052,0.390535,-0.005818,64.367547,188.495723,1197.094215,-0.969915,0
0.038542,184.681045,-122.400827,-55.570455,1.864908,-4.220265,2.840012,1.669984,4.403678,-2.844125,-1.506423,-0.106522,0.389620,-0.028224,75.768027,188.495808,1196.429195,-1.508632,0
0.039583,186.541215,-46.387779,-113.024053,0.790458,-4.170562,1.339888,2.983426,4.414705,-1.421446,-2.765901,-0.069992,0.399876,-0.013287,68.948097,188.495774,1196.260220,-1.754649,0
0.040625,159.920366,18.583323,-167.436932,-0.295302,-3.769380,-0.199923,3.905075,3.991994,0.139723,-3.698057,-0.080951,0.404514,-0.028224,50.026467,188.495662,1196.163200,-2.072431,0
0.041667,104.954609,78.359636,-184.376326,-0.611982,-2.469978,-1.946100,4.173733,2.742239,1.776434,-3.996916,-0.011544,0.402228,-0.050629,21.547888,188.495714,1194.918817,-1.633471,0
0.042708,28.835088,135.127803,-189.399054,-0.702462,-0.996613,-3.327167,3.972239,1.205776,3.270456,-3.872392,-0.037115,0.403142,-0.043161,-1.614992,188.495729,1194.249617,-2.567092,0
0.043750,-38.380570,169.075144,-149.734281,0.021378,0.632965,-3.981983,2.919993,-0.308634,3.937730,-2.840616,-0.055380,0.371590,-0.017021,-24.789181,188.495642,1193.509435,-2.545832,0
0.044792,-89.909550,198.757925,-72.054356,1.514298,2.503962,-4.374873,1.472222,-2.220024,4.365793,-1.431709,-0.102869,0.389228,-0.058098,-43.518541,188.646552,1192.375836,-2.651219,0
0.045833,-145.000075,171.273868,-6.032576,2.781018,3.363129,-3.727994,-0.020326,-3.161016,3.790846,-0.076169,-0.143052,0.393539,-0.046895,-59.454330,188.495778,1191.594073,-1.946200,0
0.046875,-185.061786,123.058980,55.483523,3.923328,4.232947,-2.700131,-1.770339,-3.966005,2.779443,1.677849,-0.197847,0.389163,-0.031958,-72.155460,188.495758,1189.980157,-2.182364,0
0.047917,-187.160149,47.468764,112.814015,5.020398,4.222296,-1.196037,-3.031542,-4.043196,1.331584,2.901749,-0.234377,0.394454,-0.069301,-64.781340,188.495803,1188.839454,-1.815760,0
0.048958,-159.960833,-18.372163,167.423864,6.083538,3.853067,0.272339,-3.997967,-3.635187,-0.154045,3.819673,-0.175929,0.403600,-0.046895,-45.950191,188.570982,1187.105737,-1.461036,0
0.050000,-105.233268,-78.124314,184.400190,6.400218,2.528813,2.006610,-4.247969,-2.440569,-1.845312,4.132764,-0.230724,0.407780,-0.031958,-19.665751,188.495682,1185.892223,-0.444973,0
0.051042,-28.331114,-134.892482,189.349054,6.513318,1.105152,3.387677,-4.080057,-0.911457,-3.301565,4.022470,-0.230724,0.372962,-0.046895,6.924058,188.495669,1184.827724,-0.221224,0
0.052083,38.385473,-168.755256,150.115152,5.789478,-0.499574,3.986933,-3.042736,0.621331,-3.943659,3.012042,-0.212459,0.395107,-0.046895,29.374408,188.495734,1183.674679,0.577398,0
0.053125,89.823713,-198.329309,72.730682,4.307868,-2.381221,4.443320,-1.647204,2.488612,-4.409492,1.656502,-0.197847,0.393474,-0.005818,49.630617,188.571120,1183.112173,1.825460,0
0.054167,144.619333,-171.328488,6.807386,3.075078,-3.261690,3.824221,-0.162119,3.444307,-3.859725,0.229806,-0.095563,0.392625,-0.024490,64.435407,188.495582,1182.197992,2.998414,0
0.055208,184.624332,-123.222329,-55.102652,1.876218,-4.142159,2.760641,1.587894,4.315460,-2.881895,-1.413919,-0.088257,0.391449,-0.020755,76.763307,188.495671,1181.238211,4.298285,0
0.056250,186.813435,-46.967663,-112.827084,0.767838,-4.127958,1.312108,2.886411,4.407354,-1.396266,-2.687629,-0.084604,0.396218,-0.058098,71.164857,188.495807,1180.553308,4.508708,0
0.057292,159.523379,18.981992,-167.264584,-0.261372,-3.740978,-0.180080,3.845373,3.977291,0.051593,-3.662479,-0.029809,0.403404,-0.028224,50.919957,188.571076,1179.835721,5.771208,0
0.058333,104.693731,78.649577,-184.474811,-0.589362,-2.473529,-1.894508,4.132688,2.756942,1.793220,-3.979127,-0.059033,0.386419,-0.028224,23.097358,188.495660,1179.828209,5.878366,0
0.059375,28.211251,134.934509,-189.251326,-0.702462,-1.056968,-3.227952,3.968508,1.338103,3.220096,-3.826139,-0.026156,0.350817,-0.031958,-1.298312,188.496595,1179.073021,7.727935,0
0.060417,-38.516680,169.087225,-149.968182,0.055308,0.576160,-3.926423,2.897605,-0.330688,3.912550,-2.879752,-0.106522,0.397198,-0.046895,-24.642151,188.495580,1179.239644,7.864343,0
0.061459,-90.068345,198.238446,-72.866856,1.491678,2.457808,-4.370905,1.498341,-2.220024,4.407760,-1.502866,-0.106522,0.395434,-0.058098,-43.156621,188.571084,1180.070593,8.498663,0
0.062500,-145.340350,171.479244,-6.980492,2.701848,3.356028,-3.720057,0.028181,-3.146313,3.782453,-0.104632,-0.121134,0.399811,-0.046895,-59.567430,188.495571,1179.996751,8.673632,0
0.063542,-184.834936,123.928805,55.261932,3.889398,4.215196,-2.688225,-1.714368,-3.954978,2.758460,1.617366,-0.190541,0.391057,-0.058098,-71.635200,188.495644,1179.568697,8.948652,0
0.064583,-187.160149,47.130499,112.703220,5.020398,4.208095,-1.203975,-3.027811,-4.079953,1.352568,2.883959,-0.186888,0.394127,-0.035692,-64.883130,188.495778,1179.877462,9.480481,0
0.065625,-159.915463,-19.036613,167.029925,6.083538,3.789162,0.276307,-4.020355,-3.587403,-0.200209,3.858810,-0.219765,0.392952,-0.050629,-45.701371,188.571069,1179.769208,8.579151,0
0.066667,-104.371238,-78.426337,184.289395,6.377598,2.535914,2.006610,-4.270357,-2.418514,-1.883082,4.114974,-0.208806,0.416207,-0.054364,-18.466891,188.495709,1179.479826,8.248649,0
0.067708,-28.274402,-134.699188,189.238258,6.490698,1.108702,3.379740,-4.083788,-0.911457,-3.280581,4.004681,-0.227071,0.400399,-0.046895,7.252048,188.495620,1179.027454,8.333872,0
0.068750,38.090568,-168.767337,150.053599,5.755548,-0.481822,3.998839,-3.039005,0.621331,-3.952052,3.036947,-0.194194,0.388509,-0.058098,29.487508,188.495493,1179.323474,8.426607,0
0.069792,89.778343,-197.882315,73.690909,4.307868,-2.327967,4.435383,-1.609890,2.518018,-4.384311,1.656502,-0.168623,0.392690,-0.035692,48.578787,188.571145,1179.189749,7.890798,0
0.070833,144.823498,-171.304327,7.521402,3.029838,-3.261690,3.788504,-0.083760,3.440632,-3.788381,0.240479,-0.161317,0.397198,-0.046895,64.028247,188.495640,1178.464942,7.519283,0
0.071875,184.306742,-123.439785,-55.176515,1.876218,-4.142159,2.764609,1.602819,4.315460,-2.856715,-1.470845,-0.099216,0.389620,-0.039427,75.971607,188.495571,1178.443097,6.614467,0
0.072917,186.824777,-46.351537,-112.605493,0.756528,-4.110207,1.324013,2.864022,4.355893,-1.379479,-2.719649,-0.091910,0.392625,-0.043161,68.970717,188.495662,1177.950791,6.149330,0
0.073958,159.432639,19.465228,-166.919887,-0.238752,-3.748078,-0.128488,3.815522,4.025076,0.068380,-3.676710,-0.066339,0.344284,-0.013287,49.800267,188.571123,1178.482365,6.283494,0
0.075000,104.285401,78.734144,-184.265531,-0.578052,-2.466428,-1.862760,4.114031,2.742239,1.793220,-3.943548,-0.062686,0.381258,-0.046895,21.400858,188.495816,1177.859373,6.282657,0
0.076042,28.347361,134.982833,-189.115910,-0.691152,-1.088920,-3.220015,3.923732,1.312372,3.194916,-3.819024,-0.066339,0.377208,-0.035692,-1.366172,188.495658,1177.482271,6.143534,0
0.077083,-37.836130,168.652312,-150.460607,0.021378,0.558409,-3.894674,2.860291,-0.286579,3.891567,-2.833500,-0.069992,0.387072,-0.054364,-24.619531,188.495703,1176.703574,6.061657,0
0.078125,-90.147742,197.743129,-73.691667,1.457748,2.418755,-4.311376,1.528192,-2.117103,4.307039,-1.506423,-0.143052,0.394127,-0.065566,-43.722121,188.646413,1174.872342,6.841447,0
0.079167,-145.181555,171.672538,-7.017424,2.724468,3.327626,-3.656559,0.028181,-3.105879,3.757273,-0.093958,-0.128440,0.393213,-0.058098,-59.182890,188.495591,1174.229416,6.792016,0
0.080208,-184.506004,123.385165,55.409659,3.900708,4.222296,-2.684256,-1.759145,-3.951302,2.733280,1.596019,-0.194194,0.387726,-0.013287,-72.212010,188.495805,1173.751979,6.936660,0
0.081250,-187.421026,46.466049,112.383144,5.020398,4.169042,-1.219849,-3.005422,-4.024817,1.352568,2.873286,-0.205153,0.393082,-0.017021,-64.917060,188.495825,1172.999161,7.015438,0
0.082292,-159.484448,-19.193664,166.956061,6.083538,3.817564,0.228684,-3.938265,-3.620484,-0.133062,3.801884,-0.172276,0.406670,-0.031958,-45.769231,188.571147,1172.551088,8.396757,0
0.083333,-105.006418,-78.100152,184.289395,6.366288,2.550115,1.947081,-4.225580,-2.458947,-1.820132,4.086512,-0.234377,0.408695,0.001650,-19.993741,188.495752,1172.219765,9.248348,0
0.084375,-29.374624,-134.638783,189.041288,6.513318,1.154856,3.351960,-4.094982,-0.988647,-3.280581,4.004681,-0.219765,0.407846,0.001650,6.279388,188.495736,1172.426369,9.842502,0
0.085417,37.205853,-168.586123,150.841478,5.778168,-0.407267,3.947247,-3.042736,0.569871,-3.918479,3.015600,-0.190541,0.408630,-0.009553,29.306548,188.495691,1171.829278,9.996169,0
0.086458,89.982508,-197.616536,74.010985,4.296558,-2.271163,4.383791,-1.639741,2.433476,-4.426278,1.684965,-0.157664,0.395826,-0.035692,49.788957,188.570966,1171.928956,11.127005,0
0.087500,144.483223,-171.847967,7.213636,3.063768,-3.183584,3.780567,-0.147193,3.422253,-3.813561,0.265384,-0.128440,0.392233,-0.031958,64.152657,188.571075,1172.095906,11.631596,0
0.088542,183.977810,-122.859902,-55.373485,1.887528,-4.120858,2.836044,1.569237,4.304433,-2.844125,-1.424593,-0.117481,0.390077,-0.035692,76.751997,188.495749,1171.539111,12.201224,0
0.089583,187.233107,-45.747491,-112.556250,0.756528,-4.127958,1.363699,2.811783,4.355893,-1.471807,-2.684071,-0.073645,0.396610,-0.039427,71.357127,188.495664,1171.649177,13.667936,0
0.090625,159.296529,19.284015,-166.969129,-0.283992,-3.748078,-0.088803,3.793134,3.973615,0.047396,-3.601995,-0.059033,0.389359,-0.020755,51.066987,188.571120,1170.328020,13.963354,0
0.091667,105.374281,78.275069,-184.388637,-0.600672,-2.477079,-1.854822,4.117763,2.775321,1.751253,-3.957780,-0.029809,0.407323,-0.039427,23.855128,188.571107,1170.650717,14.361190,0
0.092708,29.980681,134.837862,-189.115910,-0.702462,-1.127973,-3.275575,3.946120,1.330751,3.199112,-3.868834,-0.037115,0.399549,-0.050629,-0.664952,188.495671,1171.378147,14.270575,0
0.093750,-37.076182,168.978496,-150.891478,-0.001242,0.579711,-3.930392,2.893873,-0.271876,3.887370,-2.883310,-0.099216,0.403926,-0.035692,-24.642151,188.495658,1171.883773,14.584358,0
0.094792,-89.898207,197.839776,-73.716288,1.469058,2.457808,-4.335187,1.487147,-2.157536,4.349006,-1.520655,-0.124787,0.393474,-0.043161,-43.088761,188.571160,1172.693948,14.311704,0
0.095833,-144.943362,171.998722,-6.660417,2.758398,3.345377,-3.739900,0.020719,-3.175719,3.748879,-0.125979,-0.157664,0.390861,-0.050629,-59.216820,188.571047,1173.323943,14.196573,0
0.096875,-184.415264,123.348922,55.705114,3.912018,4.190344,-2.680288,-1.718100,-3.947626,2.779443,1.599577,-0.168623,0.388771,-0.031958,-71.725680,188.495604,1173.642347,14.644158,0
0.097917,-187.466396,46.188188,112.506250,5.020398,4.232947,-1.259535,-3.005422,-4.065250,1.360961,2.866170,-0.223418,0.385700,-0.039427,-64.928370,188.495709,1174.086579,14.973612,0
0.098958,-159.960833,-18.601700,167.066857,6.038298,3.817564,0.248527,-3.953190,-3.627836,-0.086898,3.823231,-0.227071,0.395565,-0.046895,-45.984121,188.570941,1174.470906,15.232547,0
0.100000,-105.902475,-77.846453,184.314016,6.366288,2.578517,1.970892,-4.289014,-2.462623,-1.866296,4.132764,-0.238030,0.403600,-0.043161,-19.394311,188.571284,1175.404386,14.494986,0
0.101042,-30.327395,-134.723349,189.176705,6.535938,1.133554,3.375771,-4.091251,-0.984972,-3.276385,4.026028,-0.230724,0.404383,-0.039427,6.833578,188.495622,1175.714213,14.319332,0
0.102083,37.149141,-168.670690,150.693750,5.789478,-0.453420,4.002807,-3.050199,0.625007,-3.935265,3.019158,-0.172276,0.402162,-0.031958,29.385718,188.495676,1176.034730,13.676705,0
0.103125,89.664918,-197.954801,73.715531,4.319178,-2.331517,4.455226,-1.636010,2.455531,-4.430475,1.670734,-0.157664,0.393017,-0.020755,48.465687,188.571165,1176.161505,13.307469,0
0.104167,144.176976,-171.799644,6.844318,3.041148,-3.265241,3.800410,-0.128536,3.484741,-3.838741,0.244037,-0.143052,0.393474,-0.009553,63.756807,188.571107,1176.915666,12.825668,0
0.105208,183.909755,-122.980711,-55.385796,1.887528,-4.142159,2.776515,1.584163,4.326487,-2.873502,-1.417477,-0.084604,0.388967,-0.028224,76.084707,188.495810,1177.366712,13.083663,0
0.106250,186.994915,-46.532750,-112.322349,0.756528,-4.159911,1.395448,2.845366,4.425733,-1.438233,-2.684071,-0.088257,0.385570,-0.039427,69.083817,188.495778,1178.005156,12.621314,0
0.107292,159.693516,18.003439,-167.079925,-0.283992,-3.772930,-0.156268,3.811790,3.995670,0.051593,-3.644689,-0.077298,0.391122,-0.024490,50.218737,188.571073,1178.773198,12.100098,0
0.108333,106.145571,77.985128,-184.228599,-0.578052,-2.509031,-1.914351,4.117763,2.782672,1.747057,-3.964896,-0.062686,0.403338,-0.009553,22.045528,188.571163,1178.937158,11.971554,0
0.109375,30.060078,134.777457,-189.226705,-0.679842,-1.078269,-3.251764,3.972239,1.308697,3.203309,-3.854602,-0.051727,0.404514,-0.017021,-1.287002,188.495732,1178.780485,11.597688,0
0.110417,-37.677335,168.579827,-150.879167,0.032688,0.597462,-3.890706,2.875217,-0.275552,3.866387,-2.876194,-0.091910,0.400791,-0.039427,-24.664771,188.495893,1178.410656,11.705200,0
0.111458,-89.875522,197.984747,-73.482387,1.491678,2.436506,-4.319313,1.516998,-2.150184,4.407760,-1.542002,-0.099216,0.391318,-0.058098,-43.439371,188.646458,1179.171429,12.097554,0
