1-Time,2-VGERA,3-VGERB,4-VGERC,5-VN,6-IGERAN,7-IGERBN,8-IGERCN,9-IGERAT,10-IGERBT,11-IGERCT,12-IN,13-IFD,14-IFAULT,15-VFAULT,16-Speed (rad/s),17-Active Power,18-Reactive Power,19-FAULT 
0.000000,127.197252,-192.602960,44.280871,3.742368,0.285038,4.494912,-4.150953,-0.209388,-4.447262,4.146995,-0.212459,0.572073,-0.065566,116.812016,188.646420,997.919528,1000.290889,0
0.001042,169.527464,-156.275682,-28.154735,2.407788,-1.458149,5.046545,-2.945720,1.363833,-4.917291,2.990695,-0.190541,0.568545,-0.061832,156.023785,188.721985,997.236772,1000.360180,0
0.002083,180.609087,-104.641898,-100.257955,1.016658,-3.361098,4.863990,-0.960632,3.341386,-4.841751,1.012532,-0.172276,0.542807,-0.054364,162.278215,188.571147,996.777445,999.820070,0
0.003125,176.990830,-17.937250,-148.761743,0.111858,-4.436832,4.086148,0.845351,4.429408,-4.090543,-0.684561,-0.143052,0.530395,-0.039427,164.415805,188.571178,996.821758,1000.534625,0
0.004167,151.334093,58.051636,-174.466288,-0.363162,-4.923221,2.669363,2.502080,4.995474,-2.701438,-2.328286,-0.084604,0.568414,-0.035692,140.732665,188.571053,995.952898,1000.736572,0
0.005208,81.804565,122.116670,-181.532576,-0.578052,-4.664050,0.542202,4.155076,4.675684,-0.653452,-3.904412,-0.077298,0.573249,-0.061832,76.412697,188.721788,995.295348,1001.368925,0
0.006250,-0.326481,160.546025,-175.401894,-0.431022,-3.811983,-1.140477,4.774484,3.907452,1.113356,-4.644444,-0.011544,0.578017,-0.035692,2.897698,188.571111,995.298872,1001.273741,0
0.007292,-73.757829,177.700909,-128.670834,0.439848,-2.026193,-2.950152,4.684931,2.172498,2.834000,-4.502130,-0.044421,0.572922,-0.013287,-60.506160,188.570960,994.659986,1001.767212,0
0.008333,-127.770816,193.176547,-42.804356,2.057178,-0.158747,-4.331219,4.102837,0.213323,4.365793,-3.972011,-0.044421,0.564756,-0.031958,-111.661289,188.571020,992.988465,1002.133515,0
0.009375,-169.420478,156.148576,29.064962,3.448308,1.556037,-4.831260,2.878948,-1.415034,4.835823,-2.805037,-0.077298,0.564756,-0.039427,-151.687378,188.721944,991.330864,1002.337533,0
0.010417,-181.125939,104.840977,100.429546,4.782888,3.455436,-4.720140,0.875202,-3.381561,4.785462,-0.866011,-0.099216,0.553651,-0.039427,-157.251898,188.571125,990.242878,1002.871892,0
0.011458,-176.872501,19.320258,149.228788,5.755548,4.545372,-3.938329,-0.900930,-4.425474,4.059435,0.767041,-0.150358,0.560510,-0.061832,-158.032288,188.571080,989.056290,1004.118995,0
0.012500,-151.941685,-56.813599,174.834849,6.230568,5.028209,-2.509639,-2.587509,-5.009918,2.645149,2.457018,-0.179582,0.572922,-0.065566,-136.792109,188.646601,987.919613,1004.734159,0
0.013542,-82.162622,-122.255856,181.162501,6.366288,4.719335,-0.402321,-4.251700,-4.726885,0.597163,4.029586,-0.219765,0.568023,-0.065566,-70.470270,188.721813,987.534293,1005.453501,0
0.014583,1.454292,-160.371109,175.351894,6.264498,3.952475,1.280359,-4.897227,-3.966005,-1.140268,4.780292,-0.216112,0.576253,-0.050629,2.988178,188.571120,986.876949,1005.879028,0
0.015625,74.692818,-177.260212,128.337690,5.359698,2.166685,3.129719,-4.721853,-2.242078,-2.835732,4.620189,-0.241683,0.578801,-0.013287,67.195047,188.571163,984.928810,1005.649345,0
0.016667,127.662295,-192.760012,42.717424,3.764988,0.324091,4.475069,-4.177073,-0.319661,-4.367525,4.146995,-0.223418,0.566781,-0.061832,117.128696,188.646453,982.747139,1006.770623,0
0.017708,169.516122,-155.840770,-28.339394,2.373858,-1.394244,5.026702,-2.979303,1.334427,-4.921488,3.022716,-0.183235,0.569133,-0.013287,156.498805,188.721837,982.254683,1007.344054,0
0.018750,180.733855,-105.161377,-100.356440,1.005348,-3.339796,4.879864,-1.020334,3.359765,-4.837554,1.073015,-0.143052,0.555676,-0.054364,162.323455,188.571129,982.266067,1007.938175,0
0.019792,176.582500,-19.495687,-149.475758,0.100548,-4.454584,4.070273,0.822963,4.403678,-4.124116,-0.631193,-0.117481,0.565606,-0.043161,162.968125,188.495714,981.842651,1008.486596,0
0.020833,151.379463,58.220769,-174.417046,-0.419712,-4.905469,2.633646,2.505811,4.980771,-2.718224,-2.363864,-0.080951,0.569133,-0.050629,140.031445,188.721886,982.050552,1008.484807,0
0.021875,80.375410,123.058980,-181.569508,-0.532812,-4.607246,0.510454,4.173733,4.653629,-0.611485,-3.900854,-0.044421,0.543199,-0.039427,74.670957,188.721898,981.746445,1008.276928,0
0.022917,-2.889886,160.642673,-175.217235,-0.431022,-3.833285,-1.108729,4.815529,3.900100,1.104963,-4.619539,-0.066339,0.561359,-0.043161,1.619668,188.571078,980.743802,1008.630771,0
0.023958,-75.062216,178.135822,-127.759849,0.473778,-2.026193,-2.930309,4.725976,2.150443,2.884361,-4.484341,-0.037115,0.572073,-0.039427,-61.105590,188.495756,980.935124,1008.656802,0
0.025000,-128.258544,192.644987,-43.112121,2.057178,-0.158747,-4.323282,4.125226,0.198620,4.353203,-3.957780,-0.018850,0.571746,-0.050629,-112.464299,188.721860,980.788629,1008.344494,0
0.026042,-170.554728,155.955282,28.178599,3.391758,1.580889,-4.870946,2.808052,-1.448116,4.869396,-2.833500,-0.066339,0.571811,-0.058098,-152.320738,188.721956,981.628734,1008.879569,0
0.027083,-180.683581,105.360456,100.946591,4.782888,3.466087,-4.696328,0.841620,-3.396264,4.756086,-0.837548,-0.095563,0.558616,-0.050629,-157.150108,188.571196,981.826876,1008.280611,0
0.028125,-176.815788,18.220895,149.745834,5.710308,4.541821,-3.918486,-0.949438,-4.451204,4.030058,0.802619,-0.146705,0.544571,-0.061832,-158.563858,188.495776,982.133485,1008.125287,0
0.029167,-151.476642,-59.435156,173.960796,6.196638,5.006908,-2.454079,-2.613629,-5.024621,2.666132,2.528175,-0.175929,0.572269,-0.054364,-136.577219,188.721973,982.304179,1008.731770,0
0.030208,-79.236257,-122.956549,182.221213,6.388908,4.737087,-0.334855,-4.292745,-4.730561,0.567786,4.097185,-0.234377,0.550319,-0.043161,-69.237480,188.646426,982.689490,1009.280019,0
0.031250,2.180212,-160.443594,174.785607,6.298428,3.934724,1.288296,-4.900958,-3.977032,-1.169645,4.790965,-0.245336,0.572530,-0.076769,2.535778,188.571078,982.779021,1009.429894,0
0.032292,74.171063,-178.287089,127.857576,5.337078,2.152484,3.153530,-4.785286,-2.220024,-2.915469,4.645094,-0.248989,0.569329,-0.054364,65.656887,188.495606,984.127437,1009.435070,0
0.033333,127.866460,-192.023077,43.468371,3.742368,0.302789,4.431414,-4.143490,-0.235118,-4.417885,4.146995,-0.219765,0.567435,-0.050629,117.434066,188.721817,985.389079,1008.693004,0
0.034375,170.230699,-155.780365,-28.868750,2.373858,-1.486551,5.002890,-2.908407,1.341778,-4.934078,2.962232,-0.219765,0.569590,-0.073035,156.498805,188.646371,985.639317,1008.373750,0
0.035417,180.121360,-104.049934,-101.415152,1.005348,-3.314944,4.844147,-0.990483,3.370792,-4.824964,1.051668,-0.164970,0.541958,-0.061832,161.916295,188.571035,985.286877,1008.263739,0
0.036458,176.616527,-16.668755,-149.561932,0.077928,-4.436832,4.105991,0.815500,4.436760,-4.082150,-0.638309,-0.091910,0.509818,-0.043161,164.246155,188.495604,984.959464,1008.404486,0
0.037500,150.732941,59.682558,-173.986175,-0.408402,-4.894818,2.665395,2.520736,4.962392,-2.718224,-2.346075,-0.080951,0.571811,-0.080503,139.952275,188.721784,984.090972,1008.577680,0
0.038542,79.955738,123.034819,-181.729546,-0.555432,-4.632098,0.573951,4.184927,4.664656,-0.632468,-3.904412,-0.062686,0.562143,-0.054364,74.998947,188.646250,983.946282,1008.963150,0
0.039583,-1.472073,160.993019,-174.540152,-0.419712,-3.836835,-1.104760,4.826723,3.870694,1.067193,-4.655118,-0.055380,0.575600,-0.058098,2.309578,188.571060,984.073407,1008.819949,0
0.040625,-74.404351,178.232469,-127.378220,0.462468,-2.019093,-2.942214,4.658811,2.179849,2.834000,-4.438089,-0.051727,0.569394,-0.076769,-61.105590,188.495693,983.009250,1008.642800,0
0.041667,-128.315256,192.439612,-42.004167,2.102418,-0.165848,-4.291533,4.099106,0.213323,4.269269,-3.950664,-0.040768,0.562993,-0.046895,-112.294649,188.721884,981.557789,1008.577743,0
0.042708,-170.123713,155.508289,30.197538,3.459618,1.524085,-4.855072,2.867754,-1.389304,4.898773,-2.833500,-0.069992,0.565148,-0.061832,-152.117158,188.646513,980.671415,1009.420325,0
0.043750,-180.604184,103.802019,101.832955,4.862058,3.441235,-4.732046,0.882665,-3.359506,4.768676,-0.901589,-0.113828,0.544440,-0.076769,-156.765568,188.571103,979.382201,1010.578445,0
0.044792,-176.622966,17.918873,149.955114,5.721618,4.548922,-3.930392,-0.893467,-4.414446,4.051041,0.806177,-0.132093,0.563907,-0.058098,-158.032288,188.495783,978.920223,1010.738311,0
0.045833,-151.431272,-58.408279,174.428599,6.219258,5.014008,-2.489796,-2.576315,-5.031972,2.695509,2.460576,-0.172276,0.566716,-0.035692,-136.102199,188.721920,978.337734,1011.190656,0
0.046875,-80.846892,-123.041115,181.581061,6.332358,4.712235,-0.457881,-4.225580,-4.745264,0.618146,4.043818,-0.194194,0.572530,-0.076769,-69.395820,188.721934,977.725680,1011.501136,0
0.047917,2.010074,-160.878507,174.551705,6.241878,3.987978,1.248610,-4.927078,-3.940275,-1.110891,4.748271,-0.241683,0.565736,-0.061832,3.610228,188.571091,976.661965,1011.241315,0
0.048958,75.327998,-178.021309,126.995834,5.314458,2.156034,3.097970,-4.781554,-2.197969,-2.856715,4.627304,-0.212459,0.542089,-0.061832,67.975437,188.495794,975.460576,1011.212008,0
0.050000,128.376872,-192.216372,41.412500,3.708438,0.327641,4.467132,-4.191998,-0.330688,-4.380115,4.175458,-0.230724,0.564952,-0.058098,117.807296,188.721898,973.852943,1012.752918,0
0.051042,170.162644,-155.285048,-29.915152,2.407788,-1.394244,5.054482,-3.016617,1.345454,-4.950865,3.019158,-0.161317,0.569656,-0.050629,156.973825,188.646504,973.620742,1013.738194,0
0.052083,180.223442,-104.182824,-101.784470,1.027968,-3.343347,4.848116,-0.983020,3.334035,-4.871128,1.051668,-0.157664,0.562013,-0.069301,161.882365,188.571111,973.494464,1014.355448,0
0.053125,176.242225,-18.142626,-150.423675,0.021378,-4.422631,4.105991,0.830426,4.396327,-4.052773,-0.648982,-0.139399,0.565344,-0.058098,162.911575,188.495705,973.413857,1013.688388,0
0.054167,151.209326,59.235564,-174.158523,-0.408402,-4.894818,2.665395,2.520736,4.932986,-2.735011,-2.303381,-0.062686,0.570309,-0.076769,139.364155,188.721878,972.863629,1013.710383,0
0.055208,79.048338,123.807996,-182.123485,-0.600672,-4.656950,0.498548,4.184927,4.653629,-0.624075,-3.943548,-0.022503,0.573967,-0.080503,73.302447,188.646516,973.121868,1013.968325,0
0.056250,-3.763258,161.198394,-174.257008,-0.397092,-3.840386,-1.116666,4.808066,3.903776,1.092373,-4.630213,-0.033462,0.559726,-0.046895,0.432118,188.571044,972.530203,1014.568773,0
0.057292,-75.980959,178.896919,-126.073296,0.519018,-2.011992,-2.981900,4.688662,2.172498,2.854984,-4.470110,-0.059033,0.550385,-0.054364,-62.168730,188.571111,972.558268,1015.427311,0
0.058333,-128.802984,192.089266,-41.684091,2.102418,-0.180049,-4.295501,4.069255,0.239053,4.344810,-3.986243,-0.051727,0.568088,-0.065566,-113.131589,188.719844,973.146128,1016.444424,0
0.059375,-171.223936,155.399560,29.618939,3.459618,1.577339,-4.902695,2.822977,-1.492225,4.831626,-2.808595,-0.059033,0.568872,-0.084238,-152.807068,188.570416,973.837820,1015.339453,0
0.060417,-180.218539,104.587278,102.288447,4.782888,3.480288,-4.708234,0.875202,-3.407291,4.768676,-0.869569,-0.102869,0.558158,-0.076769,-156.765568,188.571138,974.724310,1014.979396,0
0.061458,-176.520883,17.266504,150.718372,5.755548,4.566673,-3.898643,-0.964363,-4.443852,3.992287,0.841755,-0.146705,0.561425,-0.058098,-158.563858,188.495184,975.143200,1014.476007,0
0.062500,-151.159052,-60.667408,173.653031,6.174018,4.996257,-2.458047,-2.606166,-4.936403,2.624166,2.499712,-0.190541,0.521511,-0.058098,-135.830759,188.721219,974.428867,1013.147152,0
0.063542,-77.591594,-123.608918,182.984470,6.388908,4.726436,-0.338823,-4.303939,-4.642343,0.525819,4.072280,-0.238030,0.546139,-0.039427,-67.461810,188.570586,974.305817,1011.938878,0
0.064583,3.700107,-160.999316,174.022349,6.219258,3.963126,1.284327,-4.900958,-3.910869,-1.152858,4.780292,-0.238030,0.562209,-0.058098,3.904288,188.571038,974.524738,1011.878052,0
0.065625,75.123833,-179.205238,126.294129,5.303148,2.109881,3.161468,-4.792749,-2.172239,-2.932256,4.677114,-0.256295,0.565736,-0.039427,66.640857,188.495218,975.937511,1012.230407,0
0.066667,128.626407,-191.346546,42.261932,3.708438,0.320540,4.443320,-4.191998,-0.293930,-4.422082,4.129206,-0.230724,0.570636,-0.061832,118.350176,188.721905,976.562833,1011.322787,0
0.067708,171.070044,-155.272967,-29.952083,2.283378,-1.447498,5.006859,-2.889750,1.396915,-4.892111,2.997811,-0.190541,0.567500,-0.043161,157.211335,188.571123,976.676753,1010.664771,0
0.068750,179.588262,-103.119704,-102.781629,0.948798,-3.329146,4.836210,-0.919587,3.330359,-4.795587,1.023206,-0.139399,0.554239,-0.099175,161.463895,188.571194,975.839311,1009.800694,0
0.069792,176.355650,-15.484827,-150.497538,0.032688,-4.411980,4.058368,0.830426,4.385299,-4.056969,-0.673887,-0.110175,0.556395,-0.020755,164.223535,188.495788,975.329971,1010.152307,0
0.070833,150.267898,61.518855,-173.518372,-0.363162,-4.852215,2.669363,2.487154,4.944013,-2.718224,-2.335402,-0.040768,0.565801,-0.035692,138.979615,188.721931,975.088659,1010.376322,0
0.071875,77.812005,123.868401,-182.554357,-0.566742,-4.610796,0.550139,4.166271,4.675684,-0.582108,-3.915086,-0.062686,0.573706,-0.039427,73.110177,188.495694,974.908342,1010.387811,0
0.072917,-2.901228,161.464174,-173.555304,-0.385782,-3.801333,-1.112697,4.804335,3.863343,1.079783,-4.601750,-0.059033,0.575600,-0.028224,1.472638,188.571199,974.491708,1009.669903,0
0.073958,-74.960134,179.223103,-125.913258,0.485088,-1.987140,-2.954120,4.684931,2.117362,2.859180,-4.441647,-0.037115,0.570440,-0.013287,-61.659780,188.495790,974.728186,1008.591739,0
0.075000,-128.893724,191.702677,-41.142424,2.091108,-0.183599,-4.279627,4.054329,0.235378,4.319629,-3.900854,-0.007891,0.562470,-0.039427,-113.007179,188.721933,973.966598,1007.546494,0
0.076042,-170.997086,155.121700,31.367046,3.470928,1.545386,-4.791574,2.811783,-1.396656,4.844216,-2.787248,-0.110175,0.560575,-0.035692,-152.671348,188.571123,972.676050,1008.188163,0
0.077083,-179.866921,102.593929,103.421023,4.884678,3.473187,-4.696328,0.852814,-3.374209,4.785462,-0.880242,-0.135746,0.552932,-0.024490,-156.188758,188.569807,971.570899,1008.878180,0
0.078125,-176.260006,16.022171,150.853788,5.778168,4.573774,-3.942297,-0.938243,-4.425474,4.038451,0.823966,-0.150358,0.557701,-0.058098,-158.134078,188.494261,970.886267,1009.712491,0
0.079167,-150.818777,-60.329142,173.862311,6.219258,4.971405,-2.489796,-2.583778,-5.002566,2.657739,2.453460,-0.179582,0.563776,-0.058098,-135.186089,188.721170,970.789737,1010.735796,0
0.080208,-78.691817,-123.765969,182.541288,6.400218,4.765489,-0.358666,-4.270357,-4.723209,0.609753,4.079396,-0.216112,0.565148,-0.054364,-67.755870,188.569290,970.841713,1012.278098,0
0.081250,2.804049,-161.434228,173.554546,6.185328,3.888570,1.256547,-4.856182,-3.932923,-1.123481,4.737598,-0.234377,0.578017,-0.035692,4.288828,188.495810,970.208252,1012.371367,0
0.082292,75.883780,-179.048186,125.309281,5.257908,2.102780,3.113845,-4.766629,-2.164887,-2.911272,4.616631,-0.216112,0.542938,-0.069301,68.710587,188.571141,969.131697,1011.964782,0
0.083333,128.966682,-191.588165,40.169129,3.708438,0.295688,4.447289,-4.139759,-0.286579,-4.363328,4.104301,-0.230724,0.563580,-0.050629,118.406726,188.721878,967.968019,1011.893902,0
0.084375,170.899907,-154.789731,-31.515530,2.339928,-1.451048,4.987016,-2.915870,1.389563,-4.887915,2.955116,-0.205153,0.562470,-0.061832,157.347055,188.571163,967.486067,1011.698221,0
0.085417,179.418125,-102.914329,-103.397159,0.971418,-3.329146,4.844147,-0.968094,3.352414,-4.824964,1.033879,-0.135746,0.557113,-0.017021,161.328175,188.495783,967.716425,1012.263165,0
0.086458,176.038059,-16.547946,-151.310038,0.010068,-4.443933,4.062336,0.871471,4.418381,-4.065363,-0.681003,-0.124787,0.566651,-0.031958,163.081225,188.569456,968.378864,1012.451951,0
0.087500,150.676228,60.697354,-173.641478,-0.431022,-4.841564,2.582054,2.528199,4.940338,-2.676257,-2.349633,-0.091910,0.571223,-0.028224,138.436735,188.721922,968.928794,1011.715907,0
0.088542,77.267565,124.267071,-183.120644,-0.600672,-4.614346,0.458862,4.173733,4.683035,-0.544337,-3.922201,-0.048074,0.552867,-0.039427,71.673807,188.571067,969.286591,1011.724312,0
0.089583,-4.761398,161.754116,-173.161364,-0.385782,-3.758729,-1.152383,4.819260,3.811882,1.092373,-4.623097,-0.051727,0.555676,-0.043161,-0.619712,188.495734,969.094295,1011.612118,0
0.090625,-76.774934,179.984200,-124.152841,0.564258,-1.930336,-2.997775,4.684931,2.087956,2.917934,-4.420300,-0.026156,0.546335,-0.050629,-63.197940,188.571053,969.144509,1011.785806,0
0.091667,-129.313396,191.400654,-40.071402,2.158968,-0.123244,-4.287564,4.031941,0.198620,4.340613,-3.918644,-0.055380,0.565932,-0.050629,-113.764949,188.646422,969.382798,1011.996335,0
0.092708,-171.949856,154.988810,31.268561,3.493548,1.655445,-4.882852,2.755813,-1.532658,4.861003,-2.755228,-0.088257,0.568153,-0.020755,-153.282088,188.571147,971.141220,1011.350733,0
0.093750,-179.311139,103.536239,103.778031,4.862058,3.522891,-4.632831,0.815500,-3.466103,4.730905,-0.826875,-0.102869,0.557571,-0.039427,-156.256618,188.495640,972.380498,1010.112160,0
0.094792,-176.588938,16.517488,151.617046,5.732928,4.591525,-3.854989,-1.035259,-4.495313,3.979697,0.895123,-0.139399,0.564364,-0.084238,-158.914468,188.571060,974.000938,1009.380431,0
0.095833,-150.694010,-61.984226,173.296023,6.185328,4.950103,-2.362801,-2.650942,-4.969485,2.548625,2.545964,-0.190541,0.572203,-0.065566,-134.846789,188.646485,974.751704,1007.869640,0
0.096875,-75.481889,-124.092154,184.215531,6.445458,4.712235,-0.251515,-4.303939,-4.627640,0.475459,4.079396,-0.263601,0.545877,-0.035692,-65.154570,188.571062,974.748787,1006.274267,0
0.097917,5.083892,-161.506714,172.939016,6.196638,3.856618,1.355762,-4.882301,-3.830002,-1.203218,4.766060,-0.241683,0.549666,-0.031958,5.216248,188.495778,975.154647,1005.214514,0
0.098958,76.087945,-180.534137,124.189016,5.269218,2.017573,3.205122,-4.762898,-2.050939,-2.965829,4.659325,-0.238030,0.560314,-0.061832,67.658757,188.571031,976.529329,1004.775847,0
0.100000,129.250245,-190.585449,40.735417,3.708438,0.203381,4.475069,-4.098714,-0.205712,-4.413688,4.022470,-0.227071,0.571942,-0.031958,118.983536,188.646480,977.407648,1003.150929,0
0.101042,172.056842,-154.898459,-31.293939,2.328618,-1.536255,5.006859,-2.796466,1.470430,-4.892111,2.876844,-0.186888,0.566455,-0.031958,157.652425,188.571064,978.648937,1002.170412,0
0.102083,178.862342,-102.419012,-104.258902,0.948798,-3.378849,4.824304,-0.837496,3.363441,-4.749424,0.973396,-0.164970,0.550711,-0.054364,161.056735,188.495707,978.386347,1000.912764,0
0.103125,176.446390,-14.325060,-151.396213,0.043998,-4.454584,3.990902,0.934904,4.458814,-4.056969,-0.698792,-0.135746,0.533596,-0.080503,164.630695,188.571100,978.557712,1001.356812,0
0.104167,149.655403,63.403476,-172.939773,-0.408402,-4.866416,2.586023,2.524468,4.929310,-2.625897,-2.360307,-0.091910,0.546269,-0.069301,137.859925,188.571118,977.900654,1001.182672,0
0.105208,75.203230,124.303313,-184.191667,-0.611982,-4.603695,0.399333,4.248361,4.591141,-0.510764,-3.925759,-0.040768,0.569852,-0.046895,70.859487,188.571082,977.418674,1000.279692,0
0.106250,-4.364411,162.007815,-172.471970,-0.397092,-3.755179,-1.156352,4.796872,3.793504,1.130143,-4.644444,-0.040768,0.570570,-0.058098,0.420808,188.495651,977.944829,999.922738,0
0.107292,-75.754109,180.745297,-123.943561,0.541638,-1.933886,-3.049366,4.681200,2.051198,2.968294,-4.480783,-0.044421,0.567173,-0.046895,-62.406240,188.495640,979.357550,999.941881,0
0.108333,-129.551589,190.772447,-39.775947,2.125038,-0.094842,-4.271690,3.975971,0.143484,4.319629,-3.875949,-0.062686,0.563058,-0.043161,-113.832809,188.646618,979.197836,998.933985,0
0.109375,-172.176706,154.747192,32.671970,3.504858,1.683847,-4.855072,2.718499,-1.514280,4.848413,-2.712533,-0.059033,0.560380,-0.061832,-153.282088,188.571192,978.665322,998.820142,0
0.110417,-179.129659,101.651618,104.947538,4.862058,3.498039,-4.628862,0.755798,-3.436697,4.705725,-0.766391,-0.124787,0.555284,-0.043161,-155.657188,188.495734,977.864783,998.386233,0
