1-Time,2-VGERA,3-VGERB,4-VGERC,5-VN,6-IGERAN,7-IGERBN,8-IGERCN,9-IGERAT,10-IGERBT,11-IGERCT,12-IN,13-IFD,14-IFAULT,15-VFAULT,16-Speed (rad/s),17-Active Power,18-Reactive Power,19-FAULT 
0.000000,-120.674801,-62.132512,188.817690,3.917245,2.959592,1.566096,-4.068836,-2.685323,-1.404847,4.182656,-0.214826,0.424100,-0.082290,115.595687,188.495492,1185.888262,0.810443,0
0.001042,-45.631997,-118.626010,188.112893,3.973542,1.381719,3.018299,-3.845525,-1.161983,-2.842192,3.917706,-0.185656,0.421895,-0.078573,47.595407,188.646031,1183.644967,1.821946,0
0.002083,23.467046,-166.122831,159.349886,3.376799,-0.225510,3.947548,-3.202085,0.343222,-3.886381,3.327247,-0.196595,0.411078,-0.048839,-21.530706,188.495275,1182.344021,2.469490,0
0.003125,80.203971,-181.203424,93.402763,2.127016,-2.019882,4.253275,-1.631336,2.073301,-4.101983,1.741334,-0.163779,0.392819,-0.067423,-83.946858,188.570731,1179.791419,2.840059,0
0.004167,136.703598,-181.602754,17.005203,0.618270,-3.285851,4.044093,-0.299038,3.346378,-4.017433,0.374951,-0.112733,0.409286,-0.074856,-142.929221,188.495289,1177.935901,3.555362,0
0.005208,169.744580,-135.985135,-49.440137,-0.608994,-4.023415,3.026344,1.358765,4.028254,-3.023974,-1.218532,-0.090856,0.411491,-0.063706,-171.187616,188.646107,1176.532356,4.262665,0
0.006250,195.022513,-60.652640,-101.194107,-1.622331,-4.485768,1.670687,2.880310,4.474375,-1.700771,-2.899069,-0.036163,0.405428,-0.067423,-177.863802,188.495247,1175.289083,4.810180,0
0.007292,165.473208,2.711689,-156.848763,-2.725742,-3.928008,0.258711,3.614588,3.952087,-0.381795,-3.576584,-0.032517,0.403430,-0.086006,-155.865036,188.570694,1173.731702,6.062106,0
0.008333,120.205707,62.681711,-188.516020,-3.266189,-2.926242,-1.475082,4.239102,3.074353,1.423342,-4.291948,-0.025225,0.393302,-0.086006,-115.571492,188.495170,1172.655516,6.257608,0
0.009375,46.179896,118.517489,-187.896285,-3.299967,-1.363047,-2.903148,4.046071,1.572775,2.873370,-4.026998,-0.025225,0.423618,-0.048839,-48.055319,188.645971,1171.130958,6.106497,0
0.010417,-22.207252,165.814644,-159.194036,-2.872113,0.178132,-3.860556,3.353427,0.031300,3.866829,-3.440324,-0.054394,0.416245,-0.067423,21.149602,188.495229,1169.711212,6.007156,0
0.011458,-79.825571,180.836512,-94.036772,-1.588553,1.994521,-4.154215,1.847022,-1.615358,4.095113,-1.937681,-0.090856,0.413076,-0.074856,84.151187,188.570700,1167.966427,6.523335,0
0.012500,-138.054086,179.145231,-15.245333,-0.091066,3.289845,-3.977215,0.514724,-2.913824,4.061293,-0.559943,-0.094502,0.413283,-0.074856,143.865341,188.495345,1166.565315,8.827629,0
0.013542,-170.179774,136.193729,49.000555,1.192494,4.005392,-2.915217,-1.162004,-3.581192,3.042469,1.094100,-0.134610,0.411629,-0.056273,171.594594,188.570709,1165.739588,8.877758,0
0.014583,-194.881411,61.718620,101.592990,2.172053,4.453068,-1.603809,-2.710043,-4.009178,1.693901,2.767068,-0.189302,0.382346,-0.089723,178.293297,188.570533,1163.923857,9.406299,0
0.015625,-165.275606,-2.573565,157.199040,3.331761,3.895308,-0.207924,-3.432967,-3.548549,0.383380,3.414302,-0.171072,0.420930,-0.086006,155.844198,188.570671,1162.258450,10.405595,0
0.016667,-120.358403,-62.837212,188.428836,3.860949,2.875194,1.513801,-4.019632,-2.623664,-1.371027,4.084246,-0.178364,0.418381,-0.078573,115.156613,188.495141,1160.421293,10.611040,0
0.017708,-44.908802,-118.684735,188.039983,3.962282,1.334016,2.974049,-3.773611,-1.140221,-2.804145,3.879856,-0.203887,0.411836,-0.056273,47.437790,188.570685,1159.542594,10.769051,0
0.018750,23.873844,-165.829206,159.046094,3.399317,-0.196154,3.838934,-3.133957,0.350476,-3.810286,3.232622,-0.189302,0.425064,-0.100873,-21.440640,188.570676,1157.736060,10.490332,0
0.019792,80.350870,-180.968524,93.487825,2.127016,-1.975849,4.140638,-1.669186,1.997134,-4.085073,1.786754,-0.182010,0.422171,-0.093440,-83.755467,188.570526,1157.373449,11.742085,0
0.020833,136.692298,-181.297384,17.296844,0.674567,-3.249156,3.935480,-0.291468,3.310108,-3.907519,0.378736,-0.138256,0.409975,-0.059989,-142.861671,188.495311,1155.823581,11.545590,0
0.021875,169.518581,-136.478426,-49.014829,-0.597734,-3.924339,2.970026,1.301991,3.904936,-2.964789,-1.142832,-0.098148,0.412938,-0.063706,-171.266424,188.495204,1153.770054,12.151070,0
0.022917,194.480116,-61.932846,-101.582961,-1.633590,-4.383023,1.650573,2.804611,4.380073,-1.721908,-2.834725,-0.050748,0.418726,-0.086006,-178.269102,188.570578,1152.397964,12.662874,0
0.023958,165.846106,1.396248,-156.909522,-2.737001,-3.880305,0.351234,3.561599,3.868666,-0.440980,-3.497099,-0.021578,0.423135,-0.071140,-156.337885,188.570548,1150.876066,12.992976,0
0.025000,121.143601,62.129695,-188.358048,-3.401300,-2.911564,-1.442900,4.140694,3.030829,1.376839,-4.189753,-0.006994,0.410458,-0.063706,-115.627784,188.495294,1149.246087,12.956979,0
0.026042,46.948291,118.388293,-187.714010,-3.345004,-1.392403,-2.846830,3.966587,1.569148,2.780365,-4.011858,-0.021578,0.426029,-0.056273,-47.863928,188.495369,1148.327477,13.439800,0
0.027083,-22.071653,166.307935,-158.902396,-2.793298,0.152445,-3.808261,3.323148,0.082078,3.769597,-3.444109,-0.010640,0.428992,-0.082290,21.644968,188.495237,1147.350824,14.563119,0
0.028125,-80.164569,180.202282,-94.231199,-1.543516,1.957826,-4.109965,1.862161,-1.546445,4.069748,-1.930111,-0.058040,0.411629,-0.089723,83.982312,188.495275,1146.542764,15.221772,0
0.029167,-136.754595,181.353293,-17.298966,-0.091066,3.264158,-3.880670,0.510939,-2.844911,3.947151,-0.548588,-0.098148,0.407082,-0.059989,143.482558,188.495251,1145.047215,14.183536,0
0.030208,-168.914182,136.780979,49.851172,1.237532,3.902647,-2.907171,-1.093875,-3.465128,3.034014,1.010830,-0.120025,0.408666,-0.089723,171.110486,188.495242,1143.331711,15.463931,0
0.031250,-194.531113,61.413249,101.884630,2.194572,4.409034,-1.664150,-2.622990,-3.980162,1.693901,2.672443,-0.141902,0.418106,-0.074856,178.237006,188.495255,1142.257749,16.462566,0
0.032292,-165.659804,-3.019876,156.409181,3.320502,3.825588,-0.284356,-3.338343,-3.428858,0.467930,3.334817,-0.171072,0.361194,-0.052556,155.630290,188.495227,1140.158891,17.241654,0
0.033333,-119.793407,-63.060367,188.708325,3.917245,2.897211,1.437369,-3.925009,-2.572886,-1.294932,4.023686,-0.196595,0.398125,-0.074856,115.280454,188.495246,1138.757037,17.873778,0
0.034375,-44.886202,-118.520305,187.748342,3.894726,1.414744,2.857390,-3.766041,-1.147475,-2.673093,3.804157,-0.203887,0.398469,-0.082290,47.955673,188.495305,1136.781022,18.810381,0
0.035417,23.444447,-166.569141,158.766605,3.388058,-0.100748,3.790662,-3.126387,0.296071,-3.721509,3.278042,-0.185656,0.419415,-0.093440,-21.294282,188.495305,1136.336564,20.179643,0
0.036458,80.644669,-179.864493,95.237666,2.194572,-1.917137,4.084320,-1.672970,1.935475,-3.954021,1.798109,-0.130964,0.398951,-0.089723,-82.967384,188.419862,1134.546865,20.610997,0
0.037500,137.065196,-181.273894,18.487707,0.663307,-3.168427,3.983752,-0.333102,3.230314,-3.920201,0.465791,-0.116379,0.413351,-0.074856,-143.053062,188.495294,1134.224852,22.028787,0
0.038542,169.077884,-137.465006,-49.051284,-0.699068,-3.836272,2.953935,1.214937,3.836023,-3.040884,-1.051992,-0.087210,0.415763,-0.093440,-170.984966,188.495237,1133.921906,23.707379,0
0.039583,194.310617,-63.001642,-101.862449,-1.678627,-4.357337,1.690800,2.785686,4.383700,-1.768410,-2.736315,-0.068979,0.414729,-0.089723,-178.370427,188.495334,1133.610463,24.942211,0
0.040625,165.925205,1.196583,-156.581427,-2.748261,-3.869297,0.339166,3.474545,3.894055,-0.487482,-3.413829,-0.068979,0.426649,-0.067423,-155.842519,188.419909,1132.988548,26.014227,0
0.041667,121.030602,62.493790,-188.358048,-3.345004,-2.867531,-1.338309,4.133124,3.048964,1.292290,-4.167043,-0.010640,0.412594,-0.067423,-115.166192,188.495289,1132.518338,27.223100,0
0.042708,46.281596,118.470509,-187.495279,-3.412560,-1.381394,-2.814649,3.932523,1.580029,2.695815,-4.000503,-0.021578,0.410320,-0.100873,-47.357303,188.419947,1131.660022,28.197394,0
0.043750,-22.896547,166.237465,-158.768728,-2.838335,0.130429,-3.747920,3.334502,0.118348,3.761142,-3.387334,-0.068979,0.425547,-0.089723,22.140335,188.419768,1130.959990,28.477020,0
0.044792,-80.627866,180.131811,-93.830194,-1.554775,1.891776,-4.069738,1.816742,-1.524683,4.023246,-1.922541,-0.068979,0.403292,-0.052556,84.297545,188.419864,1130.247822,28.828965,0
0.045833,-136.698095,181.341548,-16.642775,-0.079807,3.146735,-3.900784,0.529863,-2.830403,3.900649,-0.506953,-0.109087,0.407082,-0.063706,143.628916,188.495240,1129.519288,28.415589,0
0.046875,-168.936782,136.440374,50.203571,1.271309,3.913655,-2.866944,-1.037101,-3.457874,2.974829,1.025970,-0.105440,0.405083,-0.063706,171.189294,188.419885,1128.959138,27.945632,0
0.047917,-194.293815,61.107879,102.079057,2.307165,4.361331,-1.627945,-2.604065,-3.972908,1.740403,2.627023,-0.171072,0.419001,-0.097156,178.349589,188.422184,1128.706625,28.963798,0
0.048959,-165.456405,-2.961151,156.700821,3.320502,3.862282,-0.284356,-3.296709,-3.468755,0.442565,3.304537,-0.200241,0.397229,-0.086006,156.069364,188.424357,1128.819411,29.115532,0
0.050000,-120.347103,-62.966407,188.210106,3.905986,2.904550,1.381051,-3.921224,-2.638172,-1.286477,4.027471,-0.196595,0.423893,-0.086006,115.933437,188.495544,1129.271396,29.636913,0
0.051042,-45.914495,-118.766950,187.505309,3.984801,1.411075,2.833254,-3.739547,-1.169237,-2.681548,3.838221,-0.192949,0.400536,-0.048839,48.417264,188.344730,1129.875212,29.723203,0
0.052083,22.427453,-166.381221,158.717999,3.421836,-0.082401,3.794684,-3.130172,0.241666,-3.729964,3.285612,-0.178364,0.420862,-0.097156,-21.057857,188.344688,1129.916916,30.088860,0
0.053125,80.554269,-179.981943,95.419941,2.127016,-1.869434,4.068229,-1.642691,1.946356,-4.000523,1.790539,-0.156487,0.408666,-0.089723,-83.293875,188.420003,1130.502593,29.830519,0
0.054167,137.178195,-181.156444,18.305432,0.652048,-3.172097,3.927434,-0.299038,3.230314,-3.966703,0.431726,-0.116379,0.413558,-0.100873,-143.075579,188.495550,1130.924834,29.700937,0
0.055208,169.303883,-137.089166,-49.391531,-0.699068,-3.825263,2.929799,1.249002,3.857785,-3.036656,-1.108767,-0.087210,0.414109,-0.067423,-171.029999,188.344645,1131.296612,29.110734,0
0.056250,194.242818,-62.343922,-101.911056,-1.701146,-4.324311,1.698846,2.774332,4.340176,-1.709226,-2.774165,-0.072625,0.413214,-0.082290,-177.953869,188.344766,1130.706467,28.249349,0
0.057293,165.767006,2.347594,-156.557123,-2.680705,-3.803246,0.339166,3.485900,3.865039,-0.487482,-3.428969,-0.017932,0.426649,-0.067423,-155.459736,188.420146,1130.500582,28.308494,0
0.058336,119.968409,63.503861,-188.200076,-3.322485,-2.911564,-1.414741,4.117984,2.994559,1.300745,-4.159473,-0.050748,0.420379,-0.082290,-114.299301,188.499317,1129.903729,28.186993,0
0.059375,45.287202,118.576214,-187.604645,-3.367522,-1.366716,-2.818671,3.902243,1.594537,2.721180,-3.951298,-0.028871,0.412249,-0.093440,-46.997037,188.344941,1129.546786,28.246508,0
0.060417,-23.450244,166.307935,-158.598604,-2.804557,0.159784,-3.784125,3.304223,0.111094,3.735777,-3.394904,-0.032517,0.421551,-0.093440,22.399276,188.345024,1129.348042,28.508005,0
0.061458,-80.752165,179.896911,-93.915256,-1.532256,1.910123,-4.093874,1.858377,-1.521056,4.027473,-1.960391,-0.072625,0.397022,-0.078573,84.139928,188.420392,1129.569859,28.931956,0
0.062500,-136.799795,181.353293,-16.897961,-0.046029,3.183430,-3.924920,0.575283,-2.823149,3.934469,-0.609148,-0.112733,0.411905,-0.074856,143.685207,188.495711,1130.070987,30.268709,0
0.063542,-168.631684,136.886684,50.106357,1.282569,3.917325,-2.955444,-1.033316,-3.476009,3.008649,0.946485,-0.156487,0.414040,-0.086006,171.256844,188.269496,1130.328345,31.256958,0
0.064583,-194.395514,62.176675,102.334242,2.273387,4.379678,-1.640014,-2.554861,-4.023686,1.723493,2.638378,-0.145548,0.422860,-0.100873,178.889988,188.344894,1131.100861,30.833261,0
0.065625,-165.761503,-1.422554,156.870945,3.286724,3.836596,-0.296424,-3.330773,-3.501398,0.484840,3.312107,-0.207533,0.414592,-0.037689,156.587247,188.420365,1131.656750,31.042009,0
0.066667,-120.923399,-62.308687,188.732628,3.860949,2.974270,1.437369,-3.943933,-2.620037,-1.278022,4.016116,-0.185656,0.413351,-0.082290,116.046020,188.495631,1131.535753,30.740083,0
0.067711,-46.648990,-119.189771,187.274427,3.872208,1.392727,2.857390,-3.784966,-1.194626,-2.711140,3.838221,-0.192949,0.421413,-0.059989,47.741765,188.269512,1131.935522,30.698051,0
0.068750,22.099755,-166.721826,158.790909,3.365539,-0.082401,3.846980,-3.122602,0.241666,-3.768012,3.312107,-0.192949,0.423411,-0.059989,-21.395607,188.344914,1132.673485,30.653296,0
0.069792,80.667268,-179.911473,95.091846,2.081979,-1.924476,4.084320,-1.688110,1.931848,-4.047026,1.798109,-0.167425,0.412938,-0.086006,-83.440234,188.420254,1133.124726,30.963864,0
0.070833,137.144295,-181.332619,17.612787,0.640789,-3.201453,3.963639,-0.310393,3.288346,-4.004751,0.416586,-0.127317,0.410871,-0.082290,-143.266971,188.495731,1134.032662,30.672629,0
0.071875,169.077884,-136.924736,-49.962659,-0.699068,-3.928008,2.994163,1.241432,3.897682,-3.028201,-1.135262,-0.105440,0.413283,-0.086006,-170.906158,188.269509,1134.431275,30.314571,0
0.072917,194.615715,-61.404321,-101.911056,-1.678627,-4.412379,1.710914,2.819751,4.463494,-1.776865,-2.774165,-0.079917,0.392337,-0.078573,-177.897577,188.289358,1136.143379,31.363797,0
0.073958,165.552307,3.017059,-156.605730,-2.703224,-3.880305,0.359279,3.561599,3.959341,-0.428297,-3.493314,-0.050748,0.403637,-0.063706,-155.189536,188.440997,1137.689203,31.005930,0
0.075000,119.923209,63.503861,-188.491717,-3.345004,-2.951929,-1.438878,4.205038,3.063472,1.372612,-4.216248,0.018530,0.417210,-0.100873,-114.625793,188.504062,1139.222478,30.772336,0
0.076042,44.880405,118.858094,-187.871981,-3.288707,-1.396072,-2.874989,4.008221,1.590910,2.788820,-4.030783,-0.028871,0.394542,-0.082290,-47.109620,188.276028,1140.729514,30.538059,0
0.077083,-23.744042,166.120014,-158.951003,-2.782039,0.159784,-3.860556,3.383707,0.089332,3.794962,-3.481959,-0.043455,0.397504,-0.074856,21.881393,188.276042,1142.225137,30.627500,0
0.078125,-80.661766,180.472417,-93.927407,-1.543516,1.994521,-4.130079,1.877301,-1.589969,4.052838,-1.979316,-0.058040,0.402810,-0.037689,84.207478,188.425348,1143.139218,30.096996,0
0.079167,-137.082293,181.188862,-17.833639,-0.046029,3.293514,-4.001352,0.518509,-2.910197,4.052838,-0.575083,-0.123671,0.411491,-0.059989,143.628916,188.431030,1145.152061,29.374709,0
0.080208,-170.010275,136.640039,49.097768,1.192494,3.965028,-2.935330,-1.112800,-3.563057,3.050924,1.029755,-0.127317,0.415625,-0.086006,171.842277,188.285711,1146.912140,28.376466,0
0.081250,-194.813611,62.599496,102.297787,2.205831,4.478754,-1.619900,-2.687334,-4.074464,1.748858,2.744358,-0.163779,0.416659,-0.052556,178.709855,188.292876,1148.506303,27.582328,0
0.082301,-164.914009,-2.749741,158.596482,3.264206,3.939341,-0.236084,-3.501095,-3.577565,0.341105,3.448367,-0.174718,0.426098,-0.078573,155.765390,188.439477,1150.794219,26.176307,0
0.083349,-119.940306,-64.692924,187.869859,3.838430,2.911889,1.529892,-4.008277,-2.634545,-1.447121,4.159946,-0.200241,0.428509,-0.071140,113.501639,188.504062,1153.087554,25.005301,0
0.084387,-44.208206,-120.798837,187.882011,3.894726,1.311999,3.042435,-3.834170,-1.147475,-2.854874,3.898781,-0.203887,0.426374,-0.097156,45.580167,188.272744,1154.968663,24.340827,0
0.085424,24.517939,-166.040616,158.973184,3.399317,-0.210832,3.907321,-3.168021,0.335968,-3.861016,3.289397,-0.171072,0.423755,-0.093440,-22.397597,188.275394,1155.732572,23.196916,0
0.086468,81.435663,-181.814164,92.005321,2.048201,-2.060247,4.257297,-1.657831,2.080555,-4.131575,1.748904,-0.160133,0.413696,-0.033973,-85.624349,188.419866,1157.398382,22.081762,0
0.087502,137.099095,-181.121209,16.725715,0.663307,-3.337223,4.007889,-0.280113,3.357259,-4.068163,0.359811,-0.112733,0.409975,-0.071140,-143.165646,188.495179,1158.502942,21.420371,0
0.088544,170.162677,-135.433120,-50.120631,-0.620253,-3.994059,3.018299,1.313345,4.006492,-3.053566,-1.233672,-0.061686,0.412594,-0.086006,-171.615432,188.344363,1160.181207,20.528135,0
0.089583,194.762614,-60.476465,-101.789539,-1.678627,-4.478429,1.598278,2.872740,4.478002,-1.709226,-2.868790,-0.021578,0.410182,-0.052556,-177.706186,188.269104,1160.619335,19.133630,0
0.090625,165.337609,3.381155,-157.128252,-2.748261,-3.946356,0.290893,3.675147,3.999238,-0.386022,-3.580369,-0.025225,0.412318,-0.108307,-155.662386,188.419905,1161.962444,18.525590,0
0.091667,119.979709,63.374666,-188.370200,-3.367522,-2.966606,-1.458991,4.227748,3.077980,1.376839,-4.284378,-0.043455,0.422791,-0.078573,-115.008576,188.495294,1162.848405,18.447695,0
0.092708,45.513201,118.987289,-187.859830,-3.367522,-1.381394,-2.983603,4.091490,1.521997,2.873370,-4.110268,-0.079917,0.422722,-0.056273,-47.672536,188.269165,1164.273369,17.093830,0
0.093750,-22.953047,166.166994,-159.060368,-2.894632,0.156115,-3.904806,3.376137,0.053062,3.896421,-3.481959,-0.021578,0.409631,-0.063706,21.644968,188.344549,1165.400934,15.997425,0
0.094792,-80.322768,180.777787,-93.842346,-1.554775,2.001860,-4.226624,1.847022,-1.648001,4.137388,-1.945251,-0.076271,0.407150,-0.082290,84.455162,188.419880,1166.507228,14.989818,0
0.095833,-137.432590,181.106647,-17.651364,-0.124844,3.326539,-3.973193,0.476874,-2.950094,4.061293,-0.522093,-0.105440,0.412042,-0.067423,143.673949,188.495289,1166.904572,14.231070,0
0.096875,-170.224974,136.252454,49.304347,1.192494,3.998053,-2.987626,-1.162004,-3.664613,3.063606,1.097885,-0.130964,0.415350,-0.086006,171.831019,188.269096,1168.318543,13.350666,0
0.097917,-194.813611,61.272309,102.042602,2.250869,4.504440,-1.591741,-2.736538,-4.049075,1.689673,2.801133,-0.174718,0.414936,-0.086006,178.191972,188.344473,1167.966311,12.429757,0
0.098958,-165.286906,-2.691016,157.417770,3.331761,3.950350,-0.211947,-3.508665,-3.599327,0.362243,3.501357,-0.171072,0.419484,-0.093440,155.844198,188.419811,1168.543941,12.265739,0
0.100000,-119.906406,-63.142583,188.696173,3.917245,2.963262,1.537937,-4.057481,-2.688950,-1.425984,4.156161,-0.189302,0.421137,-0.074856,114.818863,188.495320,1168.882962,12.623704,0
0.101042,-44.660203,-119.142791,188.039983,3.951023,1.348694,2.994163,-3.849310,-1.187372,-2.859102,3.951771,-0.214826,0.422171,-0.086006,47.043749,188.269062,1169.443767,12.734183,0
0.102083,24.393640,-166.146321,159.082549,3.421836,-0.207163,3.947548,-3.239935,0.386746,-3.877926,3.380237,-0.171072,0.414523,-0.093440,-21.902231,188.344446,1170.581735,12.675038,0
0.103125,80.746368,-181.250404,92.843787,2.138276,-2.078594,4.269366,-1.680540,2.062420,-4.173850,1.805679,-0.160133,0.417830,-0.067423,-84.352158,188.422693,1171.187278,13.060075,0
0.104167,137.076496,-181.367854,16.968748,0.697085,-3.348232,4.064207,-0.317963,3.397156,-4.063936,0.386306,-0.141902,0.410251,-0.093440,-143.165646,188.495584,1171.606249,12.969091,0
0.105208,170.049678,-135.738490,-49.282166,-0.608994,-4.082126,3.038412,1.358765,4.013746,-3.070476,-1.214747,-0.068979,0.417072,-0.074856,-171.457815,188.344856,1171.738852,13.018925,0
0.106250,195.056412,-61.157676,-101.728781,-1.689887,-4.493107,1.650573,2.937084,4.528780,-1.743046,-2.940704,-0.090856,0.426649,-0.082290,-178.246585,188.344838,1173.125724,12.569035,0
0.107292,165.337609,1.960008,-157.687229,-2.770779,-3.957364,0.282848,3.724351,3.988357,-0.369112,-3.633358,-0.039809,0.418312,-0.078573,-156.191527,188.420245,1173.697282,11.691419,0
0.108333,120.895003,62.517280,-188.358048,-3.356263,-2.951929,-1.559559,4.299661,3.081607,1.440252,-4.352508,-0.025225,0.426511,-0.093440,-115.233742,188.495698,1174.865665,10.540358,0
0.109375,46.417195,119.139974,-187.957043,-3.390041,-1.344699,-3.039921,4.099060,1.561894,2.932554,-4.114053,-0.032517,0.420655,-0.104590,-47.301012,188.344941,1175.644160,10.302997,0
0.110417,-22.806148,165.849879,-159.376311,-2.883372,0.236843,-3.957102,3.383707,0.016792,3.955606,-3.481959,-0.047102,0.422722,-0.067423,21.712518,188.269503,1176.289206,9.488581,0
