1-Time,2-VGERA,3-VGERB,4-VGERC,5-VN,6-IGERAN,7-IGERBN,8-IGERCN,9-IGERAT,10-IGERBT,11-IGERCT,12-IN,13-IFD,14-IFAULT,15-VFAULT,16-Speed (rad/s),17-Active Power,18-Reactive Power,19-FAULT 
0.000000,-150.258006,175.292867,-5.244507,0.190417,0.794659,-5.015918,3.710195,-0.753639,5.023875,-3.715546,-0.086703,0.589460,-0.003573,12.379367,188.495649,1067.750816,1012.510234,0
0.001042,-169.467879,138.413536,72.295310,1.676644,2.522981,-5.163091,2.117351,-2.561443,5.088581,-2.040096,-0.039302,0.587944,-0.007290,7.954846,188.495718,1069.109470,1012.569583,0
0.002083,-188.044956,57.983707,124.450285,2.678722,4.236625,-4.594841,-0.090207,-4.304681,4.570930,0.145605,0.000805,0.595730,0.011294,-2.684271,188.495752,1069.536209,1012.562560,0
0.003125,-163.196420,-15.281666,164.526498,3.511910,4.941163,-3.585072,-1.752642,-5.056667,3.466607,1.821056,0.022683,0.589804,-0.003573,-7.547867,188.495747,1070.400079,1012.794968,0
0.004167,-115.160438,-84.201386,183.835504,3.849689,5.014553,-1.524653,-3.693437,-5.125029,1.396001,3.808749,0.081021,0.580434,0.000144,-13.244580,188.420381,1072.544341,1013.335632,0
0.005208,-35.834962,-134.963319,181.951995,3.860949,4.302675,0.462179,-4.756622,-4.357852,-0.592643,4.722631,0.095606,0.602206,0.015011,-15.710153,188.495550,1073.175926,1013.116725,0
0.006250,37.976151,-174.262123,151.123204,3.264206,3.117435,2.326367,-5.317211,-3.188097,-2.516581,5.328078,0.091960,0.594145,0.007577,-18.344601,188.495618,1074.276030,1012.964006,0
0.007292,107.402892,-174.485278,94.605779,2.160794,1.238665,3.900298,-4.822346,-1.216984,-3.996201,4.707400,0.070083,0.598486,0.033594,-17.027377,188.495700,1074.452328,1012.586494,0
0.008333,150.387808,-175.460114,6.566917,0.471899,-0.750189,4.971389,-3.832618,0.814896,-5.048759,3.705937,0.084667,0.592078,-0.007290,-12.377689,188.570935,1074.385635,1012.622387,0
0.009375,169.507281,-139.226758,-71.228085,-1.025588,-2.500527,5.155355,-2.297766,2.577124,-5.143661,2.015255,-0.006487,0.592147,-0.033307,-8.482308,188.495588,1075.052943,1012.588699,0
0.010417,187.462863,-59.384179,-123.917733,-2.027666,-4.232519,4.611633,-0.047680,4.358342,-4.630324,-0.174254,-0.024718,0.584499,-0.037023,3.856816,188.495830,1076.036811,1012.523304,0
0.011458,163.812119,14.163074,-164.030401,-2.849594,-5.032464,3.622305,1.634085,5.129316,-3.556197,-1.838280,-0.042949,0.594558,-0.022156,8.213787,188.495884,1076.499324,1012.699919,0
0.012500,116.058635,83.540848,-183.400166,-3.243670,-5.087506,1.570063,3.567148,5.190083,-1.476964,-3.784088,-0.104934,0.594834,-0.025873,14.563482,188.571084,1076.365902,1012.830144,0
0.013542,37.524153,134.373252,-181.905511,-3.209892,-4.427001,-0.396329,4.653530,4.487470,0.511680,-4.789358,-0.115872,0.598279,-0.003573,16.387331,188.495712,1076.230216,1012.548112,0
0.014583,-36.422558,174.047896,-150.712169,-2.680705,-3.201397,-2.330015,5.283708,3.275938,2.448559,-5.345303,-0.126811,0.605651,-0.007290,18.368796,188.495660,1076.123059,1012.084624,0
0.015625,-106.640294,174.411992,-95.276243,-1.554775,-1.311618,-3.924387,4.773380,1.316219,3.932493,-4.758895,-0.097641,0.600139,0.011294,17.535680,188.495687,1075.653962,1010.719222,0
0.016667,-150.099807,174.999242,-7.261685,0.156639,0.695583,-4.975037,3.764321,-0.715660,4.980737,-3.719354,-0.075764,0.596557,0.007577,12.413142,188.495651,1075.203445,1010.260563,0
0.017708,-169.648677,140.046092,71.080143,1.676644,2.420236,-5.199884,2.198539,-2.455101,5.084267,-2.093406,-0.072118,0.593525,-0.029590,6.738947,188.495731,1074.464597,1010.731614,0
0.018750,-186.971463,60.450159,124.353071,2.689981,4.174244,-4.656163,-0.012885,-4.270500,4.506223,0.080872,-0.017425,0.586015,0.000144,-2.324005,188.495772,1073.736334,1009.916247,0
0.019792,-164.563711,-13.343740,164.028279,3.534429,4.930155,-3.625953,-1.710115,-5.018687,3.475234,1.733475,0.048206,0.596005,0.007577,-7.120051,188.495703,1073.194908,1009.720050,0
0.020833,-116.708527,-82.991650,183.483106,3.872208,4.985197,-1.602328,-3.608383,-5.125029,1.434825,3.694514,0.059144,0.600346,0.011294,-13.616104,188.495673,1072.180661,1009.698966,0
0.021875,-37.846348,-134.141169,182.486669,3.905986,4.339370,0.380416,-4.721827,-4.399629,-0.510681,4.673129,0.066437,0.598279,-0.011006,-15.698894,188.495855,1071.726116,1010.103891,0
0.022917,35.874364,-174.179908,150.855867,3.286724,3.146791,2.260957,-5.332675,-3.226076,-2.430305,5.267152,0.106545,0.603447,-0.007290,-18.434667,188.495682,1070.471294,1009.839483,0
0.023958,106.284199,-174.755413,95.833098,2.217091,1.308385,3.855329,-4.849409,-1.281548,-4.000515,4.768325,0.099252,0.595661,-0.025873,-16.633335,188.495738,1070.973455,1010.682626,0
0.025000,150.060110,-175.166489,7.587658,0.528196,-0.720833,4.950948,-3.824886,0.803502,-5.009935,3.694514,0.073729,0.594490,-0.011006,-11.634639,188.571065,1070.573965,1010.065264,0
0.026042,169.767180,-140.565689,-70.644804,-1.025588,-2.456494,5.175796,-2.259104,2.516357,-5.122093,2.068565,0.044560,0.589253,0.018727,-8.493567,188.495655,1070.060023,1010.501119,0
0.027083,186.683168,-60.781835,-123.711155,-2.027666,-4.173807,4.632074,-0.039948,4.320362,-4.613069,-0.159022,-0.010133,0.583672,-0.007290,3.474033,188.495635,1069.632651,1009.942165,0
0.028125,164.863012,13.599313,-163.374211,-2.883372,-4.966413,3.638658,1.587691,5.091337,-3.508746,-1.826857,-0.050241,0.589598,-0.011006,7.898554,188.495669,1069.525338,1008.961927,0
0.029167,116.725330,83.305948,-183.059919,-3.176114,-5.006777,1.578239,3.559416,5.163498,-1.464023,-3.780280,-0.101287,0.586497,-0.011006,14.923749,188.420412,1069.523539,1008.392948,0
0.030208,37.987450,133.574591,-182.804734,-3.243670,-4.390306,-0.429034,4.715388,4.457087,0.477170,-4.777934,-0.075764,0.598486,0.003860,16.319781,188.495759,1069.394949,1008.055763,0
0.031250,-35.823662,173.883466,-150.821534,-2.646927,-3.201397,-2.321839,5.217984,3.287332,2.388166,-5.356726,-0.108580,0.589735,-0.003573,18.289988,188.495702,1068.943842,1008.317594,0
0.032292,-105.713700,174.999242,-95.409911,-1.498478,-1.318957,-3.940740,4.738585,1.320017,3.889355,-4.793166,-0.101287,0.592491,-0.025873,18.031046,188.495683,1068.864673,1008.513745,0
0.033333,-149.342712,175.316357,-7.042955,0.156639,0.717600,-4.950508,3.706329,-0.681479,4.993678,-3.719354,-0.112226,0.586566,0.018727,12.683342,188.495636,1068.689802,1008.645128,0
0.034375,-169.456579,140.363207,71.128749,1.665385,2.467939,-5.134474,2.163744,-2.451303,5.058385,-2.120061,-0.053887,0.583259,-0.018440,8.056171,188.495712,1068.406355,1008.686373,0
0.035417,-186.575966,60.450159,123.806246,2.723759,4.159566,-4.639810,-0.039948,-4.262904,4.536419,0.111335,0.000805,0.571821,-0.014723,-2.447846,188.495655,1068.576624,1008.470917,0
0.036458,-164.947909,-14.107165,163.201966,3.478132,4.959511,-3.593248,-1.694650,-4.995900,3.492489,1.695397,0.022683,0.577196,-0.022156,-7.469059,188.495598,1067.798562,1008.707830,0
0.037500,-116.685927,-83.226550,183.057797,3.883467,5.003544,-1.598240,-3.577454,-5.098443,1.426197,3.686898,0.091960,0.580916,0.007577,-13.143255,188.420251,1067.442413,1008.344644,0
0.038542,-36.998854,-133.612643,183.167162,3.928504,4.365056,0.409033,-4.721827,-4.380639,-0.502054,4.684553,0.070083,0.568859,-0.033307,-15.620086,188.495662,1067.397862,1008.293642,0
0.039583,36.032563,-173.874538,150.977384,3.320502,3.128444,2.297750,-5.301746,-3.210884,-2.451874,5.274768,0.110191,0.602275,-0.022156,-18.299567,188.495651,1067.694753,1008.043961,0
0.040625,105.900002,-174.931589,95.772339,2.228350,1.282699,3.875770,-4.822346,-1.270155,-3.940122,4.695976,0.084667,0.594627,-0.037023,-17.196251,188.495682,1066.730067,1007.056102,0
0.041667,149.133516,-175.542329,7.283866,0.528196,-0.728172,4.910067,-3.793957,0.761725,-4.992680,3.679282,0.048206,0.587944,0.018727,-12.569080,188.571053,1066.140659,1006.881154,0
0.042708,169.123084,-140.777099,-70.754170,-1.025588,-2.434477,5.159443,-2.293900,2.444197,-5.096210,2.072373,0.019036,0.582294,-0.025873,-8.651183,188.495761,1065.047724,1006.737475,0
0.043750,186.152071,-60.758345,-123.322301,-2.050184,-4.089409,4.627986,-0.097940,4.267192,-4.569931,-0.105712,0.004452,0.560660,-0.022156,3.654166,188.495700,1063.702493,1006.416013,0
0.044792,165.315009,14.198309,-162.560049,-2.838335,-4.948066,3.630482,1.537432,5.068550,-3.547570,-1.765931,-0.053887,0.565069,-0.040740,8.101204,188.495653,1062.729158,1006.995936,0
0.045833,116.917429,83.247223,-182.634611,-3.209892,-4.988430,1.606856,3.497558,5.163498,-1.485592,-3.742201,-0.101287,0.554528,-0.011006,14.540966,188.495537,1062.142215,1007.133432,0
0.046875,37.535453,133.163516,-183.217891,-3.243670,-4.386637,-0.375888,4.645797,4.498864,0.429719,-4.736048,-0.101287,0.599244,-0.003573,16.274748,188.495394,1061.355736,1007.823199,0
0.047917,-35.473364,173.636821,-150.590653,-2.590631,-3.238092,-2.276870,5.233449,3.291130,2.353656,-5.307224,-0.126811,0.584775,-0.029590,18.368796,188.495559,1060.481082,1007.459659,0
0.048958,-105.273003,175.069712,-96.187618,-1.543516,-1.355652,-3.867153,4.711522,1.376986,3.893669,-4.789358,-0.093995,0.590218,-0.014723,17.670780,188.495658,1060.446298,1007.768541,0
0.050000,-148.664716,175.187162,-8.015089,0.134120,0.669897,-4.897363,3.710195,-0.643500,4.954854,-3.768856,-0.050241,0.588220,-0.014723,12.739634,188.495667,1059.874896,1007.973514,0
0.051042,-169.049781,141.514218,70.448256,1.654126,2.409227,-5.163091,2.221736,-2.432314,5.105836,-2.154331,-0.083057,0.586428,-0.022156,6.930338,188.495655,1060.299579,1008.468712,0
0.052083,-185.457273,61.789090,123.721184,2.678722,4.089846,-4.635722,0.076036,-4.202138,4.536419,0.008523,0.008098,0.583328,-0.014723,-2.110096,188.495595,1058.898960,1008.832278,0
0.053125,-166.032701,-13.308505,162.594382,3.511910,4.937494,-3.654570,-1.644390,-4.961719,3.539941,1.668742,0.015390,0.568308,0.018727,-7.063759,188.495731,1058.690027,1009.029382,0
0.054167,-117.556022,-82.674534,182.425910,3.905986,4.974189,-1.651385,-3.554257,-5.052869,1.465021,3.625973,0.048206,0.590287,-0.037023,-13.694913,188.495673,1057.659648,1008.710124,0
0.055208,-38.061047,-132.907942,183.908414,3.883467,4.335700,0.339535,-4.667701,-4.441406,-0.454603,4.688360,0.066437,0.578367,-0.011006,-15.586311,188.495731,1057.957757,1009.489927,0
0.056250,34.405374,-173.698362,150.807261,3.331761,3.176147,2.199635,-5.282415,-3.245066,-2.387168,5.316654,0.084667,0.593249,-0.007290,-18.389634,188.495673,1057.805539,1010.002613,0
0.057292,104.781309,-175.389644,97.388512,2.250869,1.334072,3.879858,-4.884204,-1.357506,-3.875415,4.764517,0.070083,0.594834,0.018727,-16.790952,188.495656,1057.579013,1011.123421,0
0.058333,148.636319,-175.142999,9.373954,0.573233,-0.680469,4.836481,-3.855815,0.700958,-5.066014,3.736400,0.033621,0.590287,0.003860,-11.826031,188.570953,1058.180032,1011.901286,0
0.059375,169.608981,-142.151265,-69.137997,-0.980551,-2.460163,5.155355,-2.336427,2.463187,-5.130720,2.163761,0.048206,0.589667,0.015011,-8.741250,188.495698,1059.067044,1012.801034,0
0.060417,185.101178,-63.271778,-123.212936,-2.005147,-4.140782,4.652515,-0.148199,4.263394,-4.638951,-0.098097,0.000805,0.583534,-0.007290,2.967408,188.495758,1059.703542,1013.001078,0
0.061458,166.591901,12.107697,-162.329167,-2.827076,-5.014116,3.704068,1.591558,5.068550,-3.595021,-1.758316,-0.042949,0.588840,-0.007290,7.774713,188.495600,1060.416755,1013.120008,0
0.062500,118.476819,82.049232,-182.245757,-3.198633,-5.061820,1.664090,3.455031,5.174891,-1.567553,-3.711739,-0.093995,0.592147,-0.018440,15.036332,188.420222,1060.273195,1013.605411,0
0.063542,39.874538,132.353110,-183.801171,-3.266189,-4.419662,-0.367712,4.672860,4.510258,0.446974,-4.789358,-0.093995,0.593663,-0.033307,16.364814,188.495533,1061.869580,1013.230903,0
0.064583,-32.930881,173.578096,-150.675714,-2.646927,-3.271117,-2.256429,5.268244,3.351897,2.306205,-5.352918,-0.101287,0.601655,-0.003573,18.154888,188.495671,1062.181136,1013.812667,0
0.065625,-103.894412,175.422062,-97.779487,-1.577294,-1.421702,-3.891682,4.800443,1.403571,3.906610,-4.842668,-0.104934,0.599175,-0.033307,18.132371,188.495611,1063.150057,1014.101448,0
0.066667,-148.325718,175.010987,-10.178086,0.111601,0.647880,-4.905539,3.775919,-0.635904,4.954854,-3.780280,-0.086703,0.591458,-0.011006,13.077383,188.495685,1063.531263,1013.673646,0
0.067708,-169.637378,142.512544,68.698415,1.654126,2.390880,-5.195796,2.256531,-2.398133,5.058385,-2.177178,-0.057533,0.588495,-0.003573,8.371404,188.495745,1063.327798,1013.240612,0
0.068750,-184.960076,64.279032,123.174359,2.701241,4.126540,-4.631634,0.087634,-4.213531,4.570930,0.027562,0.004452,0.584292,0.007577,-1.862413,188.495548,1064.346024,1012.820937,0
0.069792,-166.857596,-11.147423,162.436410,3.444354,4.941163,-3.638218,-1.648256,-4.992102,3.557196,1.695397,0.019036,0.589391,0.003860,-7.266409,188.495689,1065.621835,1012.553154,0
0.070833,-119.273610,-81.135938,182.304394,3.894726,4.974189,-1.618680,-3.546525,-5.094646,1.477963,3.652627,0.066437,0.591940,0.003860,-13.199546,188.420166,1066.847261,1012.488197,0
0.071875,-40.354932,-132.168007,184.017779,3.917245,4.368726,0.364064,-4.717961,-4.426214,-0.480485,4.676937,0.062790,0.596625,-0.025873,-15.620086,188.495703,1067.560650,1011.473498,0
0.072917,31.998490,-173.604402,151.086749,3.331761,3.209172,2.203723,-5.313344,-3.298236,-2.339716,5.217650,0.095606,0.603240,-0.022156,-18.186984,188.495774,1066.608141,1010.882755,0
0.073958,103.459218,-175.330919,98.615831,2.250869,1.359758,3.802183,-4.864874,-1.323325,-3.918553,4.688360,0.073729,0.596832,-0.014723,-17.286318,188.495622,1067.375907,1009.175548,0
0.075000,148.161722,-175.283939,10.941519,0.607011,-0.680469,4.905979,-3.859681,0.723746,-4.962483,3.694514,0.051852,0.590218,-0.029590,-12.895571,188.495700,1066.835971,1007.534644,0
0.076042,169.642880,-142.938181,-68.178015,-0.969291,-2.423469,5.159443,-2.348025,2.470782,-5.143661,2.129491,-0.013779,0.590562,-0.007290,-8.966416,188.495655,1067.534174,1006.938147,0
0.077083,184.626581,-65.080509,-122.751173,-2.050184,-4.085740,4.640250,-0.144333,4.244404,-4.578559,-0.056210,-0.013779,0.586222,-0.022156,3.113766,188.495721,1067.144886,1006.117211,0
0.078125,167.247296,10.933196,-161.745887,-2.827076,-4.948066,3.679539,1.521967,5.030571,-3.638159,-1.712622,-0.017425,0.592009,0.022444,7.921071,188.495606,1066.653924,1006.234442,0
0.079167,119.765010,81.144866,-181.783994,-3.221151,-5.047142,1.684531,3.431834,5.148306,-1.606377,-3.658429,-0.075764,0.595454,0.026161,14.552224,188.495548,1066.057287,1006.016472,0
0.080208,40.936731,131.871565,-184.311542,-3.187373,-4.419662,-0.326831,4.641931,4.487470,0.390895,-4.701778,-0.093995,0.595454,0.011294,16.218456,188.495667,1064.965047,1005.636776,0
0.081250,-31.699189,173.143530,-150.857989,-2.646927,-3.296803,-2.178754,5.163858,3.336705,2.301891,-5.299609,-0.104934,0.599657,-0.014723,18.233696,188.495528,1064.700694,1004.630873,0
0.082292,-103.024318,175.633473,-98.289858,-1.599812,-1.399686,-3.826272,4.796576,1.433954,3.846218,-4.793166,-0.101287,0.590907,-0.011006,17.783363,188.495680,1063.821306,1004.107752,0
0.083333,-147.704222,174.952262,-10.469726,0.077824,0.585499,-4.836041,3.733392,-0.590329,4.864265,-3.749817,-0.104934,0.584775,0.003860,13.066125,188.495577,1062.418990,1003.362819,0
0.084375,-169.546978,143.264225,68.637657,1.620348,2.394549,-5.138562,2.260397,-2.394335,5.075640,-2.215257,-0.064826,0.585670,-0.014723,7.054180,188.495696,1062.614653,1003.891135,0
0.085417,-183.909183,65.042458,123.137904,2.689981,4.053151,-4.639810,0.103099,-4.145169,4.536419,-0.018132,-0.017425,0.573820,-0.014723,-1.907447,188.495705,1061.281539,1003.480345,0
0.086458,-167.840689,-11.417558,161.634400,3.478132,4.930155,-3.658658,-1.574800,-4.942729,3.570137,1.596393,0.037267,0.570512,-0.011006,-7.018726,188.495597,1059.894658,1003.790081,0
0.087500,-119.782107,-81.488288,181.429473,3.894726,4.915477,-1.680002,-3.449871,-5.090848,1.529728,3.568855,0.062790,0.589804,0.022444,-13.739946,188.495714,1058.563774,1004.279275,0
0.088542,-39.993334,-131.592501,185.002065,3.894726,4.365056,0.339535,-4.741158,-4.411023,-0.458916,4.604588,0.059144,0.572028,-0.007290,-15.462469,188.495573,1057.690852,1004.023661,0
0.089583,32.077589,-172.923192,151.001687,3.286724,3.220181,2.171018,-5.212825,-3.256459,-2.305206,5.179572,0.081021,0.579607,0.011294,-18.288309,188.495738,1056.897912,1003.217368,0
0.090625,102.882922,-176.129580,98.530769,2.250869,1.341411,3.794007,-4.880338,-1.380294,-3.853847,4.707400,0.095606,0.591734,0.000144,-16.937310,188.495732,1056.123454,1003.971071,0
0.091667,147.483727,-175.166489,10.589121,0.573233,-0.599741,4.836481,-3.832618,0.685767,-4.919346,3.683090,0.081021,0.583259,-0.025873,-11.938614,188.495622,1055.149550,1003.743600,0
0.092708,169.631580,-143.490197,-68.287380,-0.980551,-2.386774,5.147179,-2.402151,2.436601,-5.083269,2.152338,0.059144,0.581881,-0.014723,-8.741250,188.495803,1054.354211,1003.606148,0
0.093750,183.575688,-64.998294,-122.678263,-2.027666,-4.019689,4.583016,-0.159798,4.214021,-4.582872,-0.025748,-0.002841,0.554459,-0.011006,2.764758,188.420327,1053.498338,1003.656050,0
0.094792,168.083491,11.790582,-161.004635,-2.793298,-4.951735,3.671363,1.529700,5.034369,-3.642472,-1.678351,-0.028364,0.582363,0.022444,7.695904,188.495682,1053.167720,1003.977119,0
0.095833,119.708510,81.814332,-181.127804,-3.187373,-4.904032,1.680442,3.393172,5.106529,-1.576181,-3.643197,-0.075764,0.538474,-0.014723,15.036332,188.344871,1052.607880,1003.330998,0
0.096875,40.123136,131.260824,-185.150007,-3.266189,-4.449018,-0.326831,4.665128,4.495066,0.399522,-4.758895,-0.130457,0.590493,-0.011006,16.308523,188.495678,1053.353360,1003.593928,0
0.097917,-32.004287,172.767690,-150.870141,-2.646927,-3.208736,-2.166490,5.171591,3.340503,2.276008,-5.272954,-0.137749,0.584912,0.011294,18.008530,188.495709,1052.710194,1003.512415,0
0.098958,-102.572321,176.173743,-98.423526,-1.577294,-1.373999,-3.842624,4.754049,1.411167,3.833276,-4.808397,-0.090349,0.593456,0.011294,18.335021,188.495591,1052.991082,1003.399694,0
0.100000,-146.935828,175.163672,-10.664153,0.089083,0.647880,-4.852393,3.744990,-0.632106,4.911717,-3.799319,-0.079410,0.584430,-0.014723,13.415133,188.420352,1054.023543,1003.652452,0
0.101042,-169.275780,143.628320,68.212348,1.631607,2.405558,-5.167179,2.225602,-2.405728,5.071326,-2.184794,-0.010133,0.583121,0.011294,8.371404,188.495700,1054.356686,1003.028208,0
0.102083,-183.592785,65.300848,122.651837,2.723759,4.020126,-4.603017,0.060571,-4.160361,4.540733,-0.014324,-0.028364,0.588978,0.029877,-1.648505,188.420244,1054.578092,1002.809687,0
0.103125,-168.224887,-11.358833,161.136181,3.511910,4.955841,-3.666835,-1.632792,-4.999698,3.535627,1.657318,0.033621,0.541092,0.026161,-7.232634,188.495781,1055.875139,1002.281906,0
0.104167,-120.155005,-81.100703,181.307956,3.872208,4.933824,-1.696355,-3.527194,-5.018687,1.546983,3.603125,0.026329,0.593594,-0.022156,-13.154513,188.420206,1055.830798,1001.592485,0
0.105208,-40.253233,-131.063976,185.366615,3.951023,4.368726,0.331359,-4.702496,-4.418618,-0.471858,4.676937,0.088314,0.575542,0.003860,-15.518761,188.495615,1056.952118,1001.668261,0
0.106250,31.309195,-172.793997,151.244721,3.331761,3.267884,2.183283,-5.251486,-3.226076,-2.296579,5.232882,0.102898,0.583328,0.003860,-18.085659,188.420316,1057.610431,1001.530098,0
0.107292,102.317925,-176.082600,99.527206,2.284646,1.345080,3.789919,-4.895803,-1.399283,-3.905612,4.741670,0.073729,0.592767,0.029877,-17.443935,188.495685,1058.629707,1001.794209,0
0.108333,146.850931,-175.295684,12.035170,0.618270,-0.636435,4.852833,-3.859681,0.674373,-4.945228,3.721169,0.051852,0.588220,-0.011006,-13.154513,188.495687,1059.195914,1001.935228,0
0.109375,169.552481,-144.124427,-66.987151,-0.946773,-2.401452,5.147179,-2.351892,2.459389,-5.135034,2.175185,0.037267,0.588702,-0.025873,-9.146549,188.495845,1060.154844,1002.146592,0
0.110417,183.225391,-66.912731,-122.094982,-2.005147,-4.030698,4.636162,-0.256451,4.183638,-4.643265,0.000907,0.011744,0.574577,0.015011,2.776016,188.495636,1060.327529,1002.462402,0
