1-Time,2-VGERA,3-VGERB,4-VGERC,5-VN,6-IGERAN,7-IGERBN,8-IGERCN,9-IGERAT,10-IGERBT,11-IGERCT,12-IN,13-IFD,14-IFAULT,15-VFAULT,16-Speed (rad/s),17-Active Power,18-Reactive Power,19-FAULT 
0.000000,-97.168750,-112.687780,178.404925,6.309738,4.740637,-0.703933,-4.009161,-4.763643,0.916112,3.819673,-0.248989,0.560771,-0.043161,-16.035241,188.504125,1012.987021,996.543872,0
0.001042,-10.443991,-155.272967,178.564963,6.321048,3.934724,1.240673,-4.975586,-3.940275,-1.161251,4.776734,-0.223418,0.571877,-0.024490,13.755298,188.512787,1012.948175,996.998502,0
0.002083,67.864632,-173.539294,141.485417,5.540658,2.489760,2.851918,-4.904690,-2.598626,-2.701438,4.801639,-0.259948,0.567631,-0.035692,35.922898,188.444816,1012.280357,997.417611,0
0.003125,121.696140,-192.941226,57.637879,4.002498,0.427049,4.447289,-4.359910,-0.529179,-4.338148,4.232383,-0.248989,0.566585,-0.050629,51.010437,188.524170,1011.467491,998.221944,0
0.004167,161.905304,-162.485267,-17.382955,2.566128,-1.266434,5.022733,-3.214379,1.238857,-5.026405,3.179261,-0.205153,0.566651,-0.020755,56.156487,188.450492,1011.602852,998.529250,0
0.005208,184.193317,-113.424716,-89.289205,1.231548,-3.140981,4.947330,-1.363620,3.084084,-4.976045,1.357643,-0.190541,0.559269,-0.043161,63.338337,188.515600,1010.962235,999.502650,0
0.006250,181.391720,-30.972546,-140.353599,0.247578,-4.316123,4.113928,0.569230,4.311784,-4.220640,-0.407049,-0.124787,0.557897,-0.028224,59.357217,188.496069,1009.898319,1000.467704,0
0.007292,151.515573,43.518308,-178.097917,-0.510192,-4.987126,2.780484,2.405064,4.969744,-2.936452,-2.225108,-0.080951,0.571027,-0.065566,42.414838,188.495318,1008.944195,1001.015374,0
0.008333,96.504446,113.345934,-178.516478,-0.544122,-4.717304,0.764443,3.882686,4.723468,-0.913646,-3.722962,-0.059033,0.563384,-0.046895,19.907938,188.493932,1008.454164,1001.037347,0
0.009375,9.904455,155.641178,-178.430304,-0.476262,-3.836835,-1.160320,4.819260,3.859667,1.054602,-4.630213,-0.033462,0.567500,-0.054364,-8.446231,188.569938,1007.610824,1001.406991,0
0.010417,-68.279401,174.173285,-140.821402,0.202338,-2.391872,-2.791408,4.781947,2.514343,2.716493,-4.676465,-0.018850,0.570570,-0.065566,-30.772171,188.494893,1007.842430,1001.224360,0
0.011458,-122.212991,193.188628,-56.900000,1.785738,-0.322060,-4.331219,4.181196,0.400786,4.265072,-4.103652,-0.059033,0.563319,-0.061832,-44.423341,188.494585,1007.848852,1001.148616,0
0.012501,-162.853170,162.104462,17.948485,3.244728,1.382074,-4.922538,3.020740,-1.341519,4.953330,-3.089665,-0.077298,0.561033,-0.035692,-52.261170,188.494618,1007.962423,1000.877507,0
0.013542,-184.687484,113.527147,89.817803,4.590618,3.210467,-4.819354,1.132667,-3.149988,4.881986,-1.228911,-0.088257,0.554631,-0.069301,-58.357260,188.515860,1007.979351,1000.815286,0
0.014583,-181.398159,30.893764,140.943750,5.563278,4.343006,-3.989920,-0.718093,-4.322553,4.147565,0.585590,-0.161317,0.555023,-0.043161,-54.398760,188.447470,1007.913120,1000.489372,0
0.015626,-151.975712,-43.754142,177.961743,5.597208,5.063712,-2.708068,-2.576315,-5.094460,2.800427,2.371630,-0.201500,0.565540,-0.069301,-39.017161,188.521772,1008.871344,999.853805,0
0.016669,-95.841677,-113.799224,178.515720,6.253188,4.705134,-0.616624,-4.024086,-4.770994,0.806998,3.833905,-0.219765,0.562339,-0.043161,-14.881621,188.498078,1009.373669,999.341654,0
0.017716,-8.878726,-155.877012,178.257198,5.902578,3.909872,1.331950,-4.960660,-3.881463,-1.152858,4.773176,-0.241683,0.565932,-0.039427,14.580928,188.564789,1008.759253,999.144842,0
0.018755,68.817402,-173.998368,139.601894,5.551968,2.415205,2.903510,-4.923347,-2.503056,-2.751798,4.766060,-0.234377,0.568219,-0.039427,35.289538,188.489944,1008.787789,998.070944,0
0.019800,122.217895,-193.364057,55.311174,3.923328,0.377345,4.447289,-4.292745,-0.422582,-4.371721,4.186131,-0.223418,0.563058,-0.058098,49.630617,188.489122,1009.300607,997.233237,0
0.020835,162.608539,-161.422147,-18.133902,2.588748,-1.294836,5.010828,-3.180797,1.257236,-5.026405,3.175703,-0.190541,0.568872,-0.058098,56.936877,188.497764,1009.085508,997.415187,0
0.021876,184.227345,-113.026046,-90.040152,1.514298,-3.155182,4.939393,-1.277798,3.106138,-4.955062,1.371875,-0.175929,0.560445,-0.054364,62.750217,188.570676,1008.953863,997.587652,0
0.022926,180.234785,-29.136248,-141.769319,0.202338,-4.273520,4.082179,0.576693,4.278703,-4.136707,-0.478206,-0.121134,0.553651,-0.035692,58.271457,188.496035,1008.281055,996.500041,0
0.023964,151.447518,45.185473,-177.900948,-0.521502,-4.994226,2.816201,2.378944,5.002825,-2.911272,-2.221551,-0.121134,0.565867,-0.043161,42.098158,188.505365,1008.265025,996.861153,0
0.025002,95.665101,114.227840,-178.208713,-0.521502,-4.699553,0.784286,3.867761,4.701414,-0.917843,-3.676710,-0.099216,0.567173,-0.050629,17.442358,188.503369,1007.191186,996.922042,0
0.026042,9.257932,155.979444,-178.147160,-0.476262,-3.854587,-1.156352,4.822992,3.867019,1.050406,-4.626655,-0.018850,0.565932,-0.017021,-8.548021,188.500685,1006.901234,997.224300,0
0.027094,-69.640501,174.197447,-138.556250,0.247578,-2.398973,-2.771565,4.770753,2.466558,2.619969,-4.683581,-0.062686,0.562209,-0.073035,-31.337671,188.504679,1005.119302,997.412782,0
0.028125,-122.564609,193.079900,-56.358334,1.830978,-0.403716,-4.295501,4.184927,0.452247,4.281859,-4.157019,-0.018850,0.562143,-0.039427,-44.287621,188.496626,1004.939089,998.691550,0
0.029167,-162.864513,161.802440,18.280871,3.244728,1.303967,-4.918569,3.069248,-1.209192,4.936543,-3.093223,-0.069992,0.563188,-0.054364,-51.786150,188.495586,1003.213964,999.401857,0
0.030209,-184.755539,112.911021,90.285606,4.579308,3.196266,-4.870946,1.199832,-3.054419,4.881986,-1.253816,-0.132093,0.555741,-0.035692,-58.685250,188.646018,1001.732096,999.951240,0
0.031250,-181.091911,30.543417,141.226894,5.563278,4.339455,-4.053418,-0.628540,-4.300498,4.139172,0.514434,-0.132093,0.557244,-0.046895,-51.684360,188.494735,1000.659504,1000.431191,0
0.032292,-151.510670,-44.092407,178.183334,6.287118,5.024659,-2.759659,-2.464374,-5.065054,2.888557,2.282683,-0.197847,0.565540,-0.009553,-37.512931,188.494638,999.000936,1001.705447,0
0.033334,-95.932417,-113.968356,178.072538,6.275808,4.726436,-0.759493,-3.979310,-4.774670,0.907718,3.759190,-0.238030,0.570113,-0.035692,-15.797731,188.494885,997.365250,1002.638551,0
0.034375,-9.162289,-155.889093,177.924811,6.321048,3.945375,1.169239,-4.971854,-3.947626,-1.035351,4.766060,-0.230724,0.574686,-0.035692,14.038048,188.570175,996.150024,1004.073032,0
0.035417,68.998882,-173.527213,140.242046,5.551968,2.514612,2.768578,-4.900958,-2.642735,-2.659471,4.758945,-0.234377,0.572465,-0.031958,36.171718,188.495743,994.579969,1005.698713,0
0.036459,122.705622,-192.808336,56.320644,3.991188,0.494504,4.371886,-4.344984,-0.558585,-4.312968,4.257288,-0.248989,0.566259,-0.043161,51.270567,188.495886,993.218707,1007.499071,0
0.037500,162.631224,-161.434228,-18.330871,2.554818,-1.206079,5.022733,-3.281544,1.132261,-5.005422,3.218397,-0.212459,0.566847,-0.046895,56.382687,188.495691,991.622622,1008.596128,0
0.038542,184.045865,-112.494486,-90.384849,1.197618,-3.105478,4.975110,-1.356157,3.006893,-4.967652,1.393222,-0.190541,0.562601,-0.017021,63.179997,188.550700,990.186576,1009.132332,0
0.039584,180.620430,-29.897345,-141.252273,0.236268,-4.223816,4.149645,0.513259,4.260324,-4.237427,-0.357239,-0.121134,0.557375,-0.039427,59.097087,188.555647,989.401614,1010.968842,0
0.040625,151.016503,44.859289,-178.060985,-0.476262,-4.965824,2.867792,2.375213,4.940338,-2.961633,-2.182414,-0.095563,0.566585,-0.028224,42.335668,188.478988,988.217139,1011.164600,0
0.041667,95.211401,114.626509,-178.147160,-0.464952,-4.688902,0.823972,3.830447,4.719793,-0.980794,-3.651805,-0.084604,0.559726,-0.031958,19.693048,188.494983,987.420593,1012.108219,0
0.042709,8.645437,156.233143,-177.679357,-0.431022,-3.872338,-1.088886,4.815529,3.907452,1.021029,-4.648002,-0.018850,0.566389,-0.043161,-8.672431,188.503383,987.123066,1013.045518,0
0.043750,-69.481706,174.112881,-139.701137,0.281508,-2.466428,-2.712036,4.793141,2.518018,2.628362,-4.690696,-0.033462,0.569852,-0.017021,-31.032301,188.503260,987.441789,1013.574898,0
0.044792,-122.995624,192.959091,-55.853599,1.864908,-0.417917,-4.263753,4.211047,0.485329,4.227302,-4.149904,-0.059033,0.567435,-0.043161,-44.638231,188.504981,986.338127,1013.842273,0
0.045834,-163.386268,161.198394,18.945644,3.267348,1.247163,-4.914600,3.065516,-1.249626,4.932347,-3.135917,-0.066339,0.567761,-0.054364,-52.351650,188.507740,986.418482,1014.376467,0
0.046875,-184.392579,112.548594,91.011932,4.613238,3.178514,-4.870946,1.214757,-3.091176,4.877790,-1.268048,-0.124787,0.558812,-0.061832,-58.131060,188.510105,986.506570,1014.593494,0
0.047917,-180.604184,29.673592,141.805493,5.574588,4.296852,-4.057386,-0.617346,-4.307850,4.134975,0.510876,-0.161317,0.559334,-0.058098,-54.093390,188.501197,986.204736,1014.848275,0
0.048959,-151.544697,-45.119284,177.986364,6.298428,5.017559,-2.783471,-2.479299,-5.072406,2.892754,2.300473,-0.190541,0.569982,-0.058098,-38.960611,188.485158,986.263266,1015.104044,0
0.050000,-94.911592,-114.814020,178.134091,6.287118,4.722885,-0.743619,-3.968116,-4.767318,0.903522,3.762748,-0.223418,0.562470,-0.058098,-14.892931,188.491460,985.948711,1015.343283,0
0.051042,-8.334286,-156.082388,177.604735,6.287118,3.952475,1.212893,-4.960660,-3.966005,-1.081514,4.705577,-0.227071,0.565344,-0.054364,14.286868,188.570280,985.496920,1015.128301,0
0.052084,69.702117,-173.648022,139.367993,5.585898,2.521713,2.788421,-4.938272,-2.605977,-2.680454,4.787408,-0.263601,0.569394,-0.031958,35.504428,188.494451,985.751921,1015.169301,0
0.053125,123.045897,-192.784174,55.434280,4.002498,0.515806,4.367917,-4.344984,-0.529179,-4.258411,4.289309,-0.234377,0.564103,-0.024490,49.890747,188.494871,985.207511,1015.355821,0
0.054167,162.937471,-160.697293,-19.069508,2.577438,-1.167026,5.030671,-3.270350,1.113882,-4.971848,3.221955,-0.216112,0.564952,-0.035692,57.038667,188.494965,984.334433,1015.487028,0
0.055209,184.000495,-111.950845,-91.111175,1.208928,-3.066425,4.947330,-1.393471,3.003217,-4.971848,1.453705,-0.186888,0.560380,-0.054364,62.580567,188.570394,983.755030,1016.408905,0
0.056250,179.973907,-29.015439,-141.757008,0.213648,-4.248668,4.153614,0.457289,4.201512,-4.241624,-0.346565,-0.146705,0.556068,-0.043161,58.260147,188.495861,982.611655,1016.529376,0
0.057292,150.766968,45.704952,-177.999432,-0.464952,-4.976475,2.935258,2.270735,4.940338,-2.957436,-2.118373,-0.080951,0.571093,-0.035692,42.086848,188.476549,981.662910,1016.917306,0
0.058334,94.462796,115.351364,-177.790152,-0.442332,-4.646299,0.855720,3.789402,4.712441,-1.001777,-3.609111,-0.044421,0.564038,-0.058098,17.351878,188.627025,980.620351,1017.225287,0
0.059375,7.783407,156.571408,-177.371591,-0.476262,-3.918492,-1.041263,4.778215,3.900100,0.953882,-4.626655,-0.033462,0.568023,-0.043161,-8.728981,188.541168,979.431858,1017.699714,0
0.060417,-70.298366,173.726292,-139.331819,0.281508,-2.498380,-2.664413,4.808066,2.587858,2.557018,-4.662233,-0.029809,0.571027,-0.050629,-31.371601,188.548534,977.807878,1018.512918,0
0.061459,-123.551406,192.765796,-55.102652,1.853598,-0.506674,-4.220098,4.240898,0.518410,4.193729,-4.181924,-0.040768,0.569590,-0.017021,-44.491201,188.462354,977.007336,1019.330695,0
0.062500,-163.284185,160.848048,19.622727,3.233418,1.190359,-4.926506,3.147607,-1.139353,4.919757,-3.135917,-0.095563,0.565083,-0.039427,-51.865320,188.698037,975.467316,1019.939714,0
0.063542,-184.301839,111.811659,91.652084,4.613238,3.107509,-4.890789,1.289384,-3.025013,4.928150,-1.346320,-0.106522,0.560118,-0.054364,-58.436430,188.550023,974.288839,1021.543196,0
0.064583,-180.297936,29.081628,142.076326,5.574588,4.240048,-4.108978,-0.497942,-4.256389,4.147565,0.407698,-0.150358,0.554566,-0.061832,-51.401610,188.543439,972.573792,1022.441151,0
0.065639,-150.920860,-48.199915,177.764773,6.287118,5.003357,-2.775534,-2.438254,-5.031972,2.905344,2.282683,-0.186888,0.559530,-0.039427,-37.399831,188.458242,971.207926,1023.058564,0
0.066673,-93.731972,-116.191243,177.789394,6.332358,4.754838,-0.791242,-3.983041,-4.734237,0.953882,3.705822,-0.208806,0.562209,-0.046895,-15.107821,188.683383,969.489469,1023.602973,0
0.067708,-7.370174,-156.553543,177.272349,6.354978,4.009280,1.153364,-4.915884,-3.973356,-0.997580,4.677114,-0.238030,0.567892,-0.039427,14.490448,188.546007,968.042718,1024.374473,0
0.068750,70.586832,-173.563456,139.060228,5.563278,2.585618,2.720955,-4.949466,-2.661114,-2.596520,4.790965,-0.267254,0.571877,-0.028224,36.635428,188.548215,966.632416,1025.426154,0
0.069792,123.681077,-192.760012,54.867993,3.968568,0.547758,4.348074,-4.408417,-0.646803,-4.241624,4.317772,-0.234377,0.569002,-0.024490,51.587247,188.478690,965.444951,1027.030734,0
0.070833,163.096266,-160.600646,-19.672727,2.543508,-1.124423,5.002890,-3.322589,1.084476,-4.971848,3.293112,-0.212459,0.570570,-0.046895,56.484477,188.570521,964.936557,1028.213009,0
0.071875,183.841700,-111.310557,-91.751326,1.208928,-3.041573,4.955267,-1.438247,2.948081,-4.971848,1.450147,-0.190541,0.558028,-0.076769,63.055587,188.515851,964.015884,1028.403196,0
0.072917,179.815112,-28.181857,-142.200190,0.270198,-4.241567,4.181394,0.393856,4.194160,-4.224837,-0.300313,-0.168623,0.546596,-0.058098,58.780407,188.572800,963.229013,1028.789098,0
0.073958,150.324611,46.683505,-178.048675,-0.408402,-4.965824,2.887635,2.278197,4.973419,-3.028780,-2.143278,-0.128440,0.559792,-0.061832,42.199948,188.514434,963.321341,1030.032153,0
0.075000,93.634793,116.015813,-177.790152,-0.442332,-4.660500,0.919218,3.793134,4.694062,-1.043744,-3.594879,-0.102869,0.566977,-0.031958,19.308508,188.437552,962.474727,1030.503214,0
0.076042,6.751240,156.933835,-177.100758,-0.431022,-3.957545,-1.021420,4.755827,3.885397,0.916112,-4.594634,-0.029809,0.562209,-0.031958,-9.113521,188.512145,961.427863,1030.678658,0
0.077083,-71.160396,174.112881,-138.371591,0.292818,-2.477079,-2.672351,4.796872,2.576830,2.544428,-4.651560,-0.055380,0.570178,-0.058098,-31.360291,188.506418,960.880086,1030.839229,0
0.078125,-123.982421,192.814120,-54.117803,1.887528,-0.464071,-4.263753,4.237167,0.533113,4.176942,-4.174808,-0.069992,0.565214,-0.046895,-44.898361,188.515250,960.273315,1031.122864,0
0.079167,-163.783255,160.280246,20.472159,3.301278,1.240062,-4.922538,3.147607,-1.154056,4.881986,-3.132359,-0.095563,0.565736,-0.069301,-52.453440,188.506359,959.761134,1031.049841,0
0.080208,-184.131701,111.388827,92.538447,4.635858,3.103959,-4.886820,1.278190,-3.032364,4.886183,-1.300068,-0.121134,0.555872,-0.039427,-57.950100,188.517728,959.583675,1030.363855,0
0.081250,-179.753496,27.885619,142.667235,5.597208,4.268450,-4.049449,-0.572569,-4.212280,4.155958,0.450392,-0.124787,0.559661,-0.024490,-53.821950,188.489531,959.044134,1030.259045,0
0.082292,-150.988915,-47.148876,177.777084,6.253188,5.021109,-2.791408,-2.423329,-4.973160,2.934721,2.236431,-0.164970,0.557767,-0.050629,-38.757031,188.501279,958.127824,1030.050509,0
0.083333,-92.949340,-116.312052,177.900190,6.275808,4.694483,-0.755525,-3.960653,-4.737912,0.920308,3.702264,-0.230724,0.552932,-0.017021,-14.248261,188.447812,958.118381,1029.875846,0
0.084375,-6.338006,-156.686433,177.124622,6.264498,3.987978,1.145427,-4.923347,-3.936599,-1.031154,4.687788,-0.245336,0.562339,-0.054364,14.931538,188.517947,958.250136,1029.500549,0
0.085417,71.403492,-173.720507,137.829167,5.540658,2.507512,2.788421,-4.912152,-2.602302,-2.613307,4.741155,-0.252642,0.572530,-0.046895,35.922898,188.537604,957.813448,1028.641724,0
0.086458,123.862557,-192.832498,53.636932,3.945948,0.501605,4.340137,-4.356178,-0.584315,-4.220640,4.243057,-0.259948,0.564822,-0.046895,50.094327,188.537294,957.462731,1027.419227,0
0.087500,163.459226,-159.718740,-20.731439,2.532198,-1.170576,4.987016,-3.277812,1.099179,-4.938275,3.246860,-0.194194,0.566324,-0.058098,57.208317,188.452430,956.886079,1026.853676,0
0.088542,183.773645,-110.694431,-92.650000,1.174998,-3.009621,4.947330,-1.397202,2.981163,-4.913095,1.428800,-0.186888,0.556329,-0.031958,62.354367,188.528115,956.732616,1026.282067,0
0.089583,179.282015,-27.215385,-142.680303,0.247578,-4.159911,4.153614,0.408781,4.186809,-4.216444,-0.303871,-0.143052,0.547184,-0.061832,58.000017,188.537191,956.280773,1026.351806,0
0.090625,150.313268,47.891596,-177.765531,-0.419712,-4.926771,2.899541,2.270735,4.907256,-2.978419,-2.146836,-0.080951,0.565214,-0.046895,41.804098,188.515004,955.602407,1025.471381,0
0.091667,92.579941,116.861477,-177.679357,-0.431022,-4.667600,0.895406,3.781939,4.697738,-1.018564,-3.601995,-0.088257,0.559008,-0.069301,16.741138,188.508930,955.484284,1025.590004,0
0.092708,5.651017,157.211696,-176.879167,-0.442332,-3.932693,-1.017451,4.774484,3.918479,0.928702,-4.580403,-0.022503,0.556199,-0.020755,-9.339721,188.572836,955.168741,1026.093437,0
0.093750,-71.977056,173.835020,-137.608334,0.326748,-2.498380,-2.632665,4.767021,2.573155,2.498265,-4.630213,-0.044421,0.568545,-0.035692,-31.756141,188.572088,954.071984,1026.115767,0
0.094792,-124.458806,192.922848,-52.948296,1.955388,-0.488923,-4.216130,4.267018,0.540465,4.185335,-4.117883,-0.029809,0.565148,-0.061832,-44.660851,188.496677,953.600819,1025.883804,0
0.095833,-163.873995,159.760767,21.395455,3.335208,1.172607,-4.890789,3.158801,-1.124650,4.886183,-3.171496,-0.080951,0.567239,-0.035692,-52.170690,188.562308,952.961908,1026.735554,0
0.096875,-184.222441,110.519002,93.240152,4.669788,3.086207,-4.870946,1.300578,-2.988255,4.873593,-1.342762,-0.102869,0.552671,-0.005818,-58.198920,188.566650,951.812475,1027.366764,0
0.097917,-179.469934,27.052036,143.024243,5.597208,4.243598,-4.085166,-0.565106,-4.204929,4.193729,0.389909,-0.161317,0.557440,-0.039427,-51.096240,188.566625,950.972083,1028.453151,0
0.098958,-150.478502,-48.115349,177.887879,6.275808,5.003357,-2.827125,-2.356164,-4.969485,2.917934,2.200853,-0.179582,0.565083,-0.046895,-37.196251,188.489506,950.267660,1028.615181,0
0.100000,-92.438927,-116.964420,177.604735,6.275808,4.744187,-0.819022,-3.919608,-4.748940,0.991652,3.684475,-0.248989,0.548490,-0.028224,-14.791141,188.647976,949.359978,1029.592472,0
0.101042,-5.305838,-157.157588,176.841478,6.253188,4.009280,1.149396,-4.908421,-3.991735,-0.968203,4.677114,-0.234377,0.582002,-0.058098,15.225598,188.496519,948.344901,1030.897922,0
0.102083,72.027330,-173.611779,137.361364,5.518038,2.564316,2.724923,-4.900958,-2.639059,-2.592324,4.766060,-0.267254,0.556133,-0.013287,36.974728,188.573515,947.893641,1031.726995,0
0.103125,124.418340,-192.832498,52.713637,3.923328,0.579711,4.300451,-4.415880,-0.606369,-4.250017,4.292867,-0.248989,0.566193,-0.043161,51.655107,188.500204,947.974474,1032.861129,0
0.104167,163.629364,-159.392555,-21.580871,2.543508,-1.124423,5.038608,-3.341246,1.029340,-4.942472,3.289554,-0.194194,0.566128,-0.017021,56.642817,188.652900,946.977949,1033.984869,0
0.105208,183.784987,-109.933334,-93.474811,1.186308,-3.013171,4.983048,-1.441978,2.959108,-4.942472,1.475052,-0.157664,0.554435,-0.073035,62.874627,188.502862,946.342607,1035.067828,0
0.106250,178.953082,-26.224750,-143.135796,0.236268,-4.209615,4.213142,0.371467,4.208863,-4.258411,-0.286082,-0.128440,0.544375,-0.054364,58.531587,188.570884,946.174838,1036.034610,0
0.107292,150.007021,49.208414,-177.642425,-0.419712,-4.955173,2.919384,2.229690,4.932986,-3.011993,-2.075679,-0.073645,0.569525,-0.028224,42.052918,188.494665,945.161067,1037.177820,0
0.108333,91.581801,117.682978,-177.876326,-0.498882,-4.678251,0.907312,3.852836,4.738171,-1.014367,-3.601995,-0.073645,0.536013,-0.028224,18.641218,188.721338,945.092388,1037.932980,0
0.109375,4.652877,157.417071,-176.743751,-0.431022,-3.946894,-1.017451,4.763290,3.914803,0.983259,-4.598192,-0.055380,0.558550,-0.031958,-9.780811,188.495057,945.555892,1037.875023,0
0.110417,-72.668949,174.354499,-136.635796,0.349368,-2.480629,-2.664413,4.767021,2.558452,2.586395,-4.662233,-0.029809,0.568414,-0.024490,-31.733521,188.570828,946.585499,1038.169017,0
