1-Time,2-VGERA,3-VGERB,4-VGERC,5-VN,6-IGERAN,7-IGERBN,8-IGERCN,9-IGERAT,10-IGERBT,11-IGERCT,12-IN,13-IFD,14-IFAULT,15-VFAULT,16-Speed (rad/s),17-Active Power,18-Reactive Power,19-FAULT 
0.000000,-162.574924,160.059589,25.183279,0.730863,5.289707,-4.745555,-0.760800,-4.883285,4.911018,0.761021,-0.130964,0.463028,-0.086006,318.909772,188.571082,1603.865811,-17.597614,0
0.001042,-190.293641,89.213688,78.577724,1.744200,5.891501,-2.870967,-3.065828,-5.376557,3.000194,3.047158,-0.203887,0.469092,-0.078573,277.377812,188.495805,1604.005835,-18.003985,0
0.002083,-186.948863,21.033905,138.449010,2.903908,5.612621,-1.000401,-4.360276,-5.253239,1.178148,4.462746,-0.225764,0.472192,-0.115740,201.001338,188.646572,1603.719190,-17.476696,0
0.003125,-140.054173,-40.451223,182.024905,3.759615,4.464076,1.348869,-5.378425,-4.168766,-1.125833,5.496049,-0.236703,0.471916,-0.078573,93.574404,188.495678,1603.287754,-16.778978,0
0.004167,-67.915450,-92.105777,199.401796,4.131172,2.530264,3.641821,-5.510898,-2.264591,-3.488997,5.719364,-0.236703,0.452211,-0.097156,-30.582399,188.571078,1602.951855,-17.412527,0
0.005208,-6.240457,-153.884530,170.395755,3.579466,0.350597,5.085978,-4.776620,-0.204455,-4.888295,4.958580,-0.200241,0.440016,-0.093440,-154.378937,188.495560,1603.002147,-17.374877,0
0.006250,54.892139,-185.466863,120.051379,2.622425,-1.854756,5.769841,-3.152881,1.978999,-5.699973,3.440797,-0.211179,0.411836,-0.089723,-241.068037,188.646484,1602.982472,-17.437201,0
0.007292,112.646057,-190.070907,40.798177,1.113679,-3.953695,5.725591,-1.158219,3.912190,-5.666153,1.396900,-0.138256,0.461788,-0.063706,-310.678258,188.495640,1604.048952,-16.837537,0
0.008333,162.286629,-159.686565,-25.513496,-0.102325,-5.190307,4.760138,0.821304,5.181640,-4.820656,-0.639428,-0.098148,0.467714,-0.086006,-325.663088,188.495664,1603.624466,-16.200764,0
0.009375,189.948846,-89.698050,-78.215296,-1.149440,-5.898515,2.941867,3.152825,5.627761,-3.015519,-2.910424,-0.039809,0.471641,-0.097156,-278.490708,188.495683,1603.142767,-15.253018,0
0.010417,186.920466,-21.976322,-138.317464,-2.309148,-5.557254,1.067279,4.458629,5.569729,-1.163880,-4.394142,-0.010640,0.462408,-0.093440,-202.497016,188.571120,1603.009685,-14.756825,0
0.011458,141.178369,39.767196,-181.577415,-3.221151,-4.496777,-1.277969,5.507057,4.485256,1.102053,-5.427446,0.014883,0.487557,-0.089723,-95.002533,188.495682,1602.489138,-14.891507,0
0.012500,70.147038,92.220411,-199.136581,-3.637746,-2.562964,-3.498511,5.662239,2.686264,3.422943,-5.673471,-0.010640,0.473777,-0.071140,29.345663,188.495732,1601.411903,-14.199163,0
0.013542,8.370346,153.693794,-170.276361,-2.995965,-0.364950,-5.023123,4.939316,0.640636,4.864516,-4.886192,-0.006994,0.475706,-0.097156,153.637566,188.495731,1600.373498,-13.421307,0
0.014583,-53.926142,185.640221,-120.746147,-2.083962,1.862420,-5.719054,3.304223,-1.550072,5.726923,-3.417614,-0.072625,0.467851,-0.138040,241.396207,188.571008,1599.989279,-12.324350,0
0.015625,-112.538855,189.574800,-40.982574,-0.507660,3.935672,-5.658713,1.301991,-3.501398,5.604326,-1.305587,-0.101794,0.459721,-0.097156,306.660715,188.495689,1598.101977,-11.812098,0
0.016667,-162.642724,159.883414,26.094654,0.742122,5.219987,-4.769692,-0.677532,-4.861523,4.877198,0.745881,-0.134610,0.462064,-0.074856,318.909772,188.571031,1597.549721,-11.379435,0
0.017708,-189.208848,88.861338,79.075942,1.755459,5.814442,-2.903148,-2.963634,-5.282255,3.004422,2.918468,-0.225764,0.445045,-0.078573,276.263238,188.495721,1595.402874,-9.692973,0
0.018750,-187.084462,20.223499,138.351797,2.960204,5.583265,-1.064764,-4.258083,-5.238731,1.228877,4.413541,-0.203887,0.453727,-0.100873,200.911271,188.646502,1594.858206,-8.546253,0
0.019792,-140.325371,-41.426059,180.821890,3.748356,4.482423,1.276460,-5.325436,-4.099853,-1.037055,5.424134,-0.247641,0.433884,-0.078573,93.563146,188.495711,1592.952492,-7.647481,0
0.020833,-67.644252,-92.446383,199.693436,4.108653,2.577967,3.505048,-5.476833,-2.355266,-3.370628,5.715579,-0.233057,0.475293,-0.104590,-30.132066,188.495716,1592.714274,-5.416120,0
0.021875,-6.285657,-153.297280,170.286390,3.556947,0.479029,4.973342,-4.742555,-0.324146,-4.791063,4.935870,-0.207533,0.456001,-0.078573,-153.185555,188.495645,1591.409580,-3.671105,0
0.022917,54.711340,-185.960153,120.780480,2.667463,-1.792375,5.661227,-3.179376,1.826665,-5.653470,3.471077,-0.218472,0.460686,-0.082290,-241.248170,188.646493,1590.853909,-1.862279,0
0.023958,112.736456,-189.319226,41.952585,1.181235,-3.843610,5.705477,-1.207423,3.777991,-5.564693,1.449890,-0.123671,0.467025,-0.082290,-309.856400,188.495808,1588.724127,-0.663630,0
0.025000,163.100224,-160.273816,-24.857306,-0.136103,-5.153612,4.800365,0.764530,5.105473,-4.862930,-0.586438,-0.123671,0.472537,-0.112023,-327.396870,188.495816,1588.669425,0.414244,0
0.026042,188.852753,-90.837316,-78.713514,-1.194477,-5.777423,2.949913,3.046847,5.605999,-3.019746,-2.827155,-0.079917,0.466818,-0.082290,-277.747658,188.495716,1587.909817,1.116339,0
0.027083,187.236864,-21.999812,-138.378223,-2.320407,-5.560924,1.147733,4.420779,5.529832,-1.210382,-4.329798,-0.006994,0.467645,-0.112023,-201.922842,188.646433,1587.099308,1.952368,0
0.028125,141.008870,40.589347,-180.921225,-3.187373,-4.467421,-1.217628,5.465422,4.478002,1.021731,-5.321466,0.011237,0.477497,-0.071140,-93.448884,188.495732,1585.423919,3.435284,0
0.029167,69.243044,92.549271,-199.513283,-3.592708,-2.559295,-3.502534,5.628175,2.671756,3.376440,-5.688611,0.022176,0.479151,-0.089723,30.831761,188.495667,1585.271179,4.106016,0
0.030208,7.364653,153.529364,-170.069782,-2.984706,-0.386967,-4.962782,4.867402,0.633382,4.813786,-4.874837,0.022176,0.472674,-0.097156,154.313066,188.495622,1584.508817,4.626912,0
0.031250,-54.638037,185.569751,-120.138563,-2.072703,1.840403,-5.686872,3.319363,-1.513802,5.676193,-3.383549,-0.047102,0.452624,-0.082290,241.914090,188.646451,1583.459971,5.214147,0
0.032292,-112.990852,189.269429,-40.131957,-0.552697,3.895308,-5.626532,1.366335,-3.497771,5.600098,-1.332082,-0.061686,0.454967,-0.082290,306.615681,188.495582,1583.389960,5.966466,0
0.033333,-162.371526,159.718984,26.665782,0.775900,5.194301,-4.733487,-0.673747,-4.843388,4.860288,0.715601,-0.138256,0.463648,-0.100873,318.864739,188.495700,1582.897353,6.491888,0
0.034375,-189.197548,88.485498,79.476948,1.777978,5.807103,-2.931308,-2.933355,-5.304017,3.017104,2.941178,-0.200241,0.459652,-0.100873,276.578471,188.495573,1583.346516,6.598261,0
0.035417,-187.016663,20.012089,138.558375,2.926427,5.550240,-1.084878,-4.182384,-5.173445,1.241560,4.352981,-0.189302,0.444908,-0.112023,201.327829,188.646552,1582.121335,7.078690,0
0.036458,-140.121973,-41.296864,181.259350,3.759615,4.500771,1.232210,-5.287586,-4.085345,-1.020145,5.378714,-0.258580,0.449317,-0.104590,94.283679,188.495667,1581.522549,7.353365,0
0.037500,-68.457846,-92.646048,199.280279,4.142431,2.603653,3.464821,-5.401134,-2.362520,-3.336808,5.681514,-0.236703,0.450764,-0.074856,-29.321467,188.495729,1580.959343,7.534322,0
0.038542,-7.449549,-153.790570,170.322845,3.601985,0.442334,4.957251,-4.731200,-0.335027,-4.727651,4.882880,-0.185656,0.462546,-0.100873,-152.757738,188.495551,1579.988245,7.443837,0
0.039583,54.620941,-185.419883,121.254395,2.622425,-1.774028,5.649159,-3.183161,1.833919,-5.606968,3.471077,-0.203887,0.462753,-0.074856,-241.090553,188.646580,1579.385395,7.257790,0
0.040625,113.120654,-189.413186,42.098406,1.124939,-3.854619,5.653182,-1.196068,3.767110,-5.556238,1.423395,-0.171072,0.464958,-0.074856,-310.250441,188.495741,1579.250019,7.076893,0
0.041667,162.942025,-160.156366,-25.258311,-0.113585,-5.116918,4.736001,0.802379,5.069203,-4.799518,-0.559943,-0.112733,0.466680,-0.067423,-326.394879,188.495562,1578.174448,7.289569,0
0.042708,188.977053,-90.250066,-78.944396,-1.228255,-5.733389,2.897617,3.039277,5.598745,-3.007064,-2.815800,-0.032517,0.441945,-0.104590,-276.970834,188.495759,1577.914817,7.538591,0
0.043750,186.999566,-20.825311,-138.281009,-2.399222,-5.505882,1.119574,4.386715,5.435530,-1.180790,-4.284378,-0.032517,0.471021,-0.093440,-200.538068,188.571143,1576.219232,7.607920,0
0.044792,140.692472,41.493712,-180.520220,-3.198633,-4.434396,-1.197514,5.385939,4.394581,1.034413,-5.317681,0.003945,0.474948,-0.093440,-92.413118,188.495678,1575.327572,7.193864,0
0.045833,68.316450,92.889877,-199.185188,-3.558930,-2.562964,-3.438171,5.544906,2.679010,3.389123,-5.578846,0.003945,0.454554,-0.082290,31.653619,188.495627,1573.965676,7.416981,0
0.046875,6.449359,153.200503,-169.948266,-2.950928,-0.405314,-4.910487,4.848477,0.698668,4.779966,-4.814277,-0.032517,0.436157,-0.086006,154.481941,188.495682,1572.892229,8.310970,0
0.047917,-55.135234,185.651966,-119.859075,-2.050184,1.847742,-5.630554,3.345857,-1.473905,5.646601,-3.368409,-0.025225,0.435055,-0.063706,242.206806,188.721840,1572.314510,8.914121,0
0.048958,-112.663154,189.128489,-40.192715,-0.485141,3.836596,-5.618486,1.381474,-3.407096,5.545141,-1.381287,-0.083563,0.456552,-0.074856,306.277932,188.495787,1571.050769,10.022210,0
0.050000,-162.631424,159.824689,26.301232,0.809678,5.157606,-4.733487,-0.605618,-4.752713,4.864516,0.624761,-0.123671,0.465302,-0.086006,318.921030,188.495660,1570.134998,11.476412,0
0.051042,-188.361354,89.601274,79.707829,1.845534,5.759400,-2.959467,-2.861441,-5.235104,3.050924,2.846553,-0.192949,0.466611,-0.134323,277.085096,188.495685,1568.990506,12.555775,0
0.052083,-187.084462,21.139610,138.947229,2.971464,5.535562,-1.113037,-4.189954,-5.177072,1.279607,4.322701,-0.214826,0.474948,-0.104590,202.746378,188.646487,1569.034561,12.909808,0
0.053125,-141.500563,-40.944513,180.323671,3.692059,4.445729,1.179915,-5.211887,-4.096226,-0.969416,5.337079,-0.214826,0.455380,-0.100873,95.116795,188.571029,1568.554200,13.191140,0
0.054167,-69.757338,-92.904438,199.401796,4.097394,2.622001,3.452753,-5.382210,-2.366147,-3.307215,5.658804,-0.243995,0.473226,-0.115740,-29.535375,188.495635,1568.408915,13.155993,0
0.055208,-7.969346,-153.367750,170.055508,3.556947,0.504715,4.880819,-4.685781,-0.389432,-4.685376,4.890450,-0.214826,0.472950,-0.093440,-152.949130,188.495667,1567.924621,13.872255,0
0.056250,54.711340,-185.960153,120.889845,2.633685,-1.744672,5.649159,-3.190731,1.790395,-5.585831,3.493787,-0.189302,0.467162,-0.093440,-241.979961,188.646473,1567.811879,14.767142,0
0.057292,113.098054,-188.872916,41.332850,1.102420,-3.792238,5.653182,-1.196068,3.687316,-5.450551,1.461245,-0.145548,0.462753,-0.063706,-309.439842,188.571141,1565.870173,15.911255,0
0.058333,163.066324,-160.027171,-26.108928,-0.237437,-5.054537,4.780251,0.783454,5.029306,-4.833338,-0.522093,-0.120025,0.465371,-0.056273,-327.025345,188.495776,1565.765835,17.126061,0
0.059375,188.140858,-89.580600,-79.600587,-1.262033,-5.711372,2.937844,2.986288,5.591491,-3.011291,-2.796875,-0.047102,0.458619,-0.082290,-275.732418,188.495721,1565.294348,17.740992,0
0.060417,187.169065,-20.003160,-138.244554,-2.410482,-5.531568,1.151756,4.322371,5.518951,-1.227292,-4.291948,-0.010640,0.465509,-0.078573,-200.245352,188.646366,1566.358264,18.787287,0
0.061458,140.556873,42.221903,-180.034153,-3.164855,-4.445404,-1.165332,5.446498,4.474375,0.996366,-5.260906,-0.003348,0.424238,-0.082290,-91.805169,188.571094,1566.164260,20.254970,0
0.062500,67.717554,93.124777,-199.525434,-3.502634,-2.559295,-3.438171,5.567616,2.737042,3.363758,-5.620481,-0.014286,0.433195,-0.086006,31.777461,188.495828,1566.848708,21.386542,0
0.063542,6.099061,153.270973,-169.644474,-2.950928,-0.478704,-4.874282,4.890112,0.680533,4.737691,-4.855912,-0.032517,0.457034,-0.067423,154.144191,188.571169,1566.770098,21.859956,0
0.064583,-55.338633,185.464046,-120.223625,-2.083962,1.730319,-5.614463,3.379922,-1.463024,5.659283,-3.493314,-0.017932,0.454898,-0.100873,242.116740,188.646431,1567.837251,23.055094,0
0.065625,-113.205550,188.917079,-41.164849,-0.507660,3.792562,-5.594350,1.396614,-3.381707,5.540913,-1.407781,-0.109087,0.458205,-0.063706,306.694490,188.571241,1567.822868,23.397886,0
0.066667,-162.812223,160.047844,25.742255,0.764641,5.139259,-4.725442,-0.613188,-4.720070,4.877198,0.598266,-0.123671,0.466404,-0.071140,318.898514,188.495731,1567.670794,23.752747,0
0.067708,-188.553453,90.247249,79.963015,1.811756,5.770408,-2.923262,-2.850086,-5.227850,3.046697,2.857908,-0.207533,0.464958,-0.100873,277.073838,188.571143,1567.862719,23.491660,0
0.068750,-187.039263,21.444980,138.995836,2.948945,5.539232,-1.104992,-4.144535,-5.169818,1.334565,4.288636,-0.200241,0.456552,-0.093440,201.710613,188.646467,1567.599074,24.254591,0
0.069792,-141.297165,-40.897533,180.748980,3.827171,4.467745,1.171869,-5.238382,-4.136123,-0.973643,5.333294,-0.218472,0.477015,-0.097156,94.114804,188.571122,1567.999375,24.592570,0
0.070833,-69.373140,-93.068868,199.231672,4.164950,2.552281,3.428617,-5.385995,-2.384282,-3.315670,5.617169,-0.225764,0.473777,-0.074856,-30.627433,188.495705,1567.570308,24.822513,0
0.071875,-7.087952,-153.731845,169.946143,3.601985,0.453342,4.921047,-4.685781,-0.364043,-4.655784,4.867740,-0.251287,0.470607,-0.089723,-154.232579,188.571156,1567.070390,24.979034,0
0.072917,55.547534,-185.408138,120.306565,2.656203,-1.770358,5.596864,-3.130172,1.826665,-5.526646,3.444582,-0.233057,0.447181,-0.086006,-242.137577,188.646543,1565.928877,24.643096,0
0.073958,113.324053,-189.260501,40.360716,1.057383,-3.759213,5.584796,-1.214993,3.705451,-5.513963,1.423395,-0.127317,0.457241,-0.108307,-310.227925,188.571221,1566.750729,24.577671,0
0.075000,162.829025,-159.627840,-27.081061,-0.203659,-5.083892,4.756115,0.741820,5.036560,-4.812201,-0.533448,-0.094502,0.461099,-0.104590,-325.798188,188.495734,1566.488348,24.642056,0
0.076042,188.592855,-89.016840,-79.843620,-1.160699,-5.671008,2.953935,2.990073,5.544340,-2.990154,-2.736315,-0.032517,0.470676,-0.100873,-275.676126,188.571118,1565.555453,25.353824,0
0.077083,186.830067,-19.451145,-138.414678,-2.286629,-5.483865,1.171869,4.295877,5.468173,-1.227292,-4.238958,-0.054394,0.429819,-0.086006,-200.042702,188.646426,1564.407789,25.821924,0
0.078125,140.409974,42.351098,-180.228580,-3.119818,-4.434396,-1.157287,5.359444,4.409089,1.004821,-5.283616,0.007591,0.461719,-0.067423,-92.615768,188.571140,1564.154466,25.247550,0
0.079167,67.920953,93.453637,-199.087974,-3.525153,-2.595990,-3.385875,5.571401,2.708026,3.325711,-5.609126,-0.003348,0.444356,-0.115740,31.192028,188.495731,1563.564776,25.345668,0
0.080208,6.833556,153.447149,-169.753839,-3.041003,-0.460357,-4.838078,4.856047,0.702295,4.733464,-4.814277,-0.039809,0.478255,-0.104590,153.558758,188.646322,1563.216027,25.152749,0
0.081250,-55.033535,185.546261,-120.916270,-2.072703,1.744997,-5.586304,3.342072,-1.430381,5.612781,-3.440324,-0.017932,0.455518,-0.086006,242.105481,188.721887,1562.315978,24.831266,0
0.082292,-113.465449,188.834864,-41.663067,-0.530179,3.785224,-5.550100,1.400399,-3.359945,5.545141,-1.385072,-0.090856,0.465509,-0.059989,306.773298,188.571015,1562.196722,24.681978,0
0.083333,-163.365919,159.942139,25.985289,0.764641,5.076878,-4.697283,-0.598048,-4.730951,4.818013,0.628546,-0.120025,0.464200,-0.071140,319.022355,188.495622,1561.934015,24.067864,0
0.084375,-188.248355,90.294229,80.242503,1.755459,5.686010,-2.951421,-2.838731,-5.169818,3.072061,2.812488,-0.156487,0.450489,-0.123173,276.454630,188.646504,1561.116512,24.892611,0
0.085417,-186.960163,20.845985,139.153807,2.926427,5.513545,-1.129128,-4.140750,-5.155310,1.296517,4.307561,-0.196595,0.472123,-0.093440,200.990080,188.646500,1561.031695,24.513782,0
0.086458,-140.912967,-42.013309,180.190003,3.770874,4.445729,1.171869,-5.174038,-4.128869,-0.969416,5.287875,-0.214826,0.478117,-0.086006,92.516122,188.570993,1560.230558,25.079471,0
0.087500,-67.949350,-93.597394,199.450402,4.131172,2.588975,3.440685,-5.393564,-2.355266,-3.269168,5.620954,-0.236703,0.456690,-0.089723,-32.237373,188.495803,1559.765539,25.802910,0
0.088542,-5.833660,-153.449965,169.848930,3.568207,0.438664,4.876797,-4.693351,-0.327773,-4.668466,4.841245,-0.214826,0.436571,-0.078573,-154.818012,188.722018,1559.435884,25.545827,0
0.089583,56.010831,-185.748743,119.686829,2.633685,-1.741003,5.637091,-3.168021,1.815784,-5.539328,3.429442,-0.174718,0.439947,-0.082290,-242.689235,188.646476,1559.460388,25.845813,0
0.090625,113.674350,-188.978621,39.704526,1.079901,-3.740865,5.608932,-1.214993,3.719959,-5.505508,1.468815,-0.120025,0.457447,-0.112023,-310.306733,188.571138,1559.544493,26.543442,0
0.091667,163.043724,-159.451665,-27.299792,-0.158622,-5.047198,4.748069,0.738035,5.051068,-4.782608,-0.578868,-0.087210,0.462822,-0.097156,-326.608787,188.495769,1559.494105,25.881723,0
0.092708,188.468556,-88.934625,-80.183867,-1.160699,-5.704033,2.966003,2.974933,5.576983,-3.023974,-2.796875,-0.058040,0.468127,-0.097156,-276.385401,188.721936,1560.420815,25.684841,0
0.093750,186.796167,-20.214571,-138.961503,-2.320407,-5.509551,1.151756,4.341296,5.518951,-1.231520,-4.238958,-0.043455,0.463028,-0.074856,-201.168534,188.571084,1561.176715,25.778366,0
0.094792,140.477773,41.834318,-180.872618,-3.153596,-4.467421,-1.177401,5.431358,4.467121,1.000593,-5.283616,-0.025225,0.445390,-0.089723,-93.133651,188.571198,1561.867060,26.135329,0
0.095833,69.050945,93.618067,-199.002913,-3.536412,-2.610668,-3.414034,5.597895,2.711653,3.351076,-5.624266,-0.025225,0.470332,-0.059989,31.180769,188.495589,1562.418448,25.660163,0
0.096875,7.488952,154.116614,-169.474350,-3.052262,-0.431001,-4.934623,4.878757,0.680533,4.767283,-4.871052,-0.021578,0.471572,-0.067423,154.470682,188.719652,1563.457812,25.477265,0
0.097917,-55.180434,185.323106,-120.600327,-2.016406,1.781691,-5.614463,3.398846,-1.499294,5.650828,-3.425184,-0.076271,0.469023,-0.078573,242.409456,188.646067,1563.907652,24.627990,0
0.098958,-114.199944,188.846609,-40.532962,-0.563957,3.851274,-5.558145,1.389044,-3.403469,5.545141,-1.362362,-0.083563,0.462753,-0.097156,307.358731,188.570584,1564.225286,24.564021,0
0.100000,-162.857422,159.519319,26.908816,0.742122,5.164945,-4.729464,-0.662392,-4.807118,4.826468,0.670181,-0.134610,0.465509,-0.100873,318.797189,188.495285,1564.907226,24.063354,0
0.101042,-189.310548,88.532478,80.461233,1.811756,5.792425,-2.879012,-2.899290,-5.267747,3.034014,2.895758,-0.149195,0.461650,-0.093440,275.925488,188.721572,1566.329482,23.374716,0
0.102083,-186.451666,19.577524,139.251021,2.937686,5.539232,-1.104992,-4.197524,-5.155310,1.254242,4.352981,-0.185656,0.469781,-0.104590,199.222523,188.645995,1566.435658,23.071295,0
0.103125,-139.545676,-42.377405,181.623900,3.759615,4.416373,1.240256,-5.268661,-4.081718,-1.007463,5.401424,-0.211179,0.443805,-0.115740,91.424064,188.570644,1567.557293,22.467635,0
0.104167,-67.079255,-93.703099,199.061549,4.164950,2.548611,3.464821,-5.393564,-2.282726,-3.349490,5.651234,-0.233057,0.414661,-0.089723,-32.755256,188.495276,1567.831755,21.309388,0
0.105208,-5.087865,-154.377821,169.763868,3.511910,0.460681,4.965297,-4.708491,-0.298757,-4.799518,4.898020,-0.189302,0.442083,-0.078573,-155.707419,188.721395,1569.914579,20.946796,0
0.106250,56.428929,-185.161492,119.601768,2.633685,-1.781367,5.661227,-3.152881,1.862935,-5.568921,3.433227,-0.196595,0.432161,-0.071140,-242.272677,188.645948,1570.277774,20.529952,0
0.107292,114.160247,-189.401441,40.020470,1.158716,-3.828933,5.657205,-1.233918,3.756229,-5.556238,1.442320,-0.134610,0.462684,-0.126890,-311.770315,188.570604,1571.326769,20.039409,0
0.108333,162.862925,-159.463410,-26.692208,-0.113585,-5.091231,4.788297,0.783454,5.080084,-4.807973,-0.563728,-0.072625,0.469229,-0.071140,-325.831963,188.570635,1571.770478,19.999354,0
0.109375,189.440350,-89.169525,-80.013743,-1.228255,-5.759075,2.949913,3.069557,5.584237,-3.053566,-2.846080,-0.043455,0.470607,-0.059989,-277.342359,188.721581,1572.668189,19.681445,0
0.110417,186.253771,-21.013231,-139.484025,-2.354185,-5.520560,1.119574,4.345081,5.479054,-1.223065,-4.291948,-0.021578,0.484456,-0.071140,-200.256610,188.646087,1572.724771,18.929882,0
