1-Time,2-VGERA,3-VGERB,4-VGERC,5-VN,6-IGERAN,7-IGERBN,8-IGERCN,9-IGERAT,10-IGERBT,11-IGERCT,12-IN,13-IFD,14-IFAULT,15-VFAULT,16-Speed (rad/s),17-Active Power,18-Reactive Power,19-FAULT 
0.000000,90.193105,79.077745,-195.065771,-3.457597,-3.399604,-2.939353,5.976389,3.429799,2.759227,-5.852989,0.003945,0.473639,-0.108307,12.390626,188.495736,1594.857023,28.165827,0
0.001038,24.348441,135.030973,-185.040642,-3.254929,-1.447445,-4.435806,5.317810,1.569148,4.348762,-5.345799,-0.028871,0.457723,-0.078573,-8.065750,188.495712,1595.814320,28.005415,0
0.002081,-38.004547,179.662011,-135.303850,-2.320407,0.992755,-5.578259,4.076350,-0.744878,5.473274,-4.009696,-0.058040,0.469849,-0.093440,-24.998270,188.495707,1596.810325,27.681095,0
0.003116,-90.888198,195.306365,-62.478881,-0.946773,3.227464,-5.747213,2.017344,-2.953721,5.764970,-1.999864,-0.098148,0.459583,-0.108307,-42.662582,188.495702,1597.379809,26.876740,0
0.004158,-152.969988,165.015983,-0.590417,0.246713,4.911752,-5.051282,-0.140071,-4.458926,5.075890,0.195433,-0.130964,0.460892,-0.067423,-58.705694,188.495776,1599.003112,26.102686,0
0.005196,-185.265174,116.743992,60.240851,1.417680,5.682341,-3.562875,-2.248281,-5.376557,3.676592,2.303675,-0.192949,0.463648,-0.078573,-61.689150,188.495640,1600.522496,25.665176,0
0.006238,-189.852944,39.919881,119.917711,2.611166,5.873154,-1.611855,-4.129395,-5.423708,1.731948,4.256733,-0.236703,0.467300,-0.100873,-57.467279,188.495636,1601.791005,24.891154,0
0.007280,-162.292426,-25.065260,164.903200,3.500651,5.146598,0.395484,-5.162683,-4.839761,-0.250743,5.422511,-0.229410,0.469367,-0.089723,-40.579792,188.495655,1602.534676,23.963854,0
0.008321,-93.295082,-77.471495,194.152273,4.074875,3.399929,2.913708,-5.707714,-3.109682,-2.635045,5.925915,-0.240349,0.451798,-0.082290,-12.614113,188.495651,1602.718147,22.600282,0
0.009363,-25.518130,-134.517009,185.719013,3.917245,1.403736,4.386024,-5.155113,-1.285301,-4.342950,5.509566,-0.240349,0.476533,-0.100873,9.497236,188.495691,1603.276753,21.532523,0
0.010405,37.241655,-178.678247,136.772080,2.971464,-0.985091,5.560659,-3.872019,0.992455,-5.412504,4.120473,-0.240349,0.470056,-0.097156,24.245641,188.495696,1603.598582,20.603351,0
0.011446,90.645102,-195.602806,62.525366,1.564051,-3.293190,5.681341,-1.843293,3.244822,-5.699973,2.144706,-0.171072,0.455725,-0.086006,42.540419,188.495716,1603.104090,19.806697,0
0.012488,152.161896,-165.406385,0.126531,0.336788,-4.911427,5.073910,0.336832,4.746400,-5.027802,-0.020312,-0.134610,0.459583,-0.082290,58.741148,188.495645,1603.246540,18.868425,0
0.013530,184.920379,-115.748483,-60.218670,-0.890476,-5.733389,3.557344,2.392053,5.627761,-3.641187,-2.185329,-0.076271,0.463097,-0.112023,60.722613,188.495705,1602.112550,18.657008,0
0.014571,189.779347,-38.348866,-119.275795,-1.982628,-5.876498,1.650573,4.303446,5.707555,-1.781093,-4.070256,-0.032517,0.456483,-0.130607,58.020615,188.495707,1601.378358,18.674040,0
0.015613,161.868532,25.661439,-164.407103,-2.872113,-5.171960,-0.392970,5.370799,5.145370,0.277693,-5.277670,-0.036163,0.473019,-0.115740,38.566230,188.570975,1601.500128,18.279866,0
0.016655,93.854281,77.269013,-193.631874,-3.401300,-3.465655,-2.891080,5.980174,3.502339,2.670450,-5.815139,-0.006994,0.486730,-0.078573,12.885992,188.495617,1600.986197,18.271946,0
0.017696,27.083022,134.326272,-185.672529,-3.345004,-1.473131,-4.391556,5.378369,1.641688,4.331852,-5.379864,-0.017932,0.457379,-0.093440,-6.827334,188.495631,1601.617501,18.159470,0
0.018738,-36.083560,178.064690,-137.248117,-2.410482,0.956060,-5.554123,4.061210,-0.690473,5.469046,-4.081611,-0.061686,0.464062,-0.097156,-24.514162,188.498519,1601.904877,18.004506,0
0.019780,-90.526600,195.541265,-63.256588,-1.025588,3.212786,-5.743190,1.987064,-2.935586,5.807245,-1.999864,-0.094502,0.462339,-0.097156,-41.874499,188.495537,1602.394873,17.851352,0
0.020821,-152.178993,164.969003,-0.784844,0.224195,4.889735,-5.035191,-0.185490,-4.426283,5.020933,0.240853,-0.145548,0.451384,-0.100873,-59.065961,188.495729,1601.262025,16.997585,0
0.021863,-185.479873,115.898351,60.009970,1.440199,5.652985,-3.526670,-2.244496,-5.278628,3.600497,2.356665,-0.196595,0.450489,-0.104590,-60.293118,188.495729,1599.657547,16.125499,0
0.022905,-189.593046,38.169875,118.872667,2.577388,5.807103,-1.583696,-4.144535,-5.362049,1.685446,4.264303,-0.229410,0.444494,-0.093440,-56.014955,188.495759,1598.306569,15.745970,0
0.023946,-161.557931,-26.368956,164.599408,3.433095,5.098895,0.407552,-5.174038,-4.821626,-0.297245,5.399801,-0.258580,0.477635,-0.086006,-39.476476,188.495694,1597.658516,15.761364,0
0.024988,-92.424988,-77.600690,193.654055,4.086135,3.403598,2.873481,-5.749349,-3.149579,-2.626590,5.876711,-0.225764,0.486592,-0.112023,-13.300871,188.495790,1596.950798,16.543756,0
0.026030,-25.472930,-134.070698,186.095715,3.917245,1.436761,4.406138,-5.170253,-1.281674,-4.279537,5.483071,-0.273164,0.456483,-0.082290,8.911803,188.495716,1596.084546,16.709681,0
0.027071,36.642759,-177.809116,137.440422,3.016501,-0.999769,5.556637,-3.845525,1.003336,-5.382911,4.177248,-0.229410,0.460755,-0.086006,25.202599,188.493304,1596.108429,16.653242,0
0.028115,90.373904,-195.544081,64.080780,1.575311,-3.241817,5.685364,-1.805443,3.248449,-5.759158,2.125781,-0.152841,0.461857,-0.112023,43.486118,188.490593,1596.858448,15.883804,0
0.029155,152.331395,-165.535580,2.119406,0.291750,-4.918766,5.057819,0.344401,4.782670,-5.036257,-0.031667,-0.156487,0.458757,-0.093440,58.898765,188.495779,1597.369729,14.853798,0
0.030197,185.474076,-116.958219,-59.368053,-0.867958,-5.737058,3.513094,2.429902,5.678539,-3.620049,-2.170189,-0.112733,0.459239,-0.082290,62.152420,188.495749,1598.082654,14.150340,0
0.031238,189.655048,-39.264977,-118.947699,-2.005147,-5.858151,1.594255,4.341296,5.714809,-1.696543,-4.111891,-0.058040,0.466129,-0.071140,57.919290,188.495843,1598.193098,12.488678,0
0.032280,162.105830,25.543989,-164.577227,-2.815817,-5.098570,-0.441242,5.401078,5.112727,0.345333,-5.270100,-0.039809,0.480667,-0.097156,40.322529,188.344985,1598.008329,11.475476,0
0.033322,92.599990,77.269013,-193.741239,-3.525153,-3.359240,-2.943376,5.923400,3.393529,2.725408,-5.807569,-0.036163,0.487350,-0.086006,13.257517,188.495658,1597.300719,10.229567,0
0.034363,25.489733,133.879962,-185.927714,-3.390041,-1.403411,-4.467987,5.310240,1.485727,4.399492,-5.338229,-0.006994,0.473639,-0.097156,-7.671709,188.420309,1596.937208,8.204751,0
0.035405,-36.784155,178.205630,-136.555472,-2.365445,0.992755,-5.622509,4.057425,-0.726743,5.494411,-3.998341,-0.050748,0.449317,-0.100873,-24.412838,188.495741,1596.502825,7.489904,0
0.036447,-89.826005,195.611735,-62.794825,-0.946773,3.271497,-5.739168,2.002204,-2.993618,5.756515,-1.984724,-0.090856,0.458481,-0.074856,-42.336090,188.420332,1596.056802,6.650010,0
0.037488,-151.817395,165.227394,-1.501793,0.303010,4.930099,-5.063350,-0.151425,-4.462553,5.037843,0.221928,-0.156487,0.452900,-0.078573,-58.435495,188.495754,1596.560003,6.353238,0
0.038530,-185.197375,116.884932,59.268718,1.440199,5.704358,-3.522648,-2.289915,-5.354795,3.647000,2.360450,-0.163779,0.457930,-0.104590,-61.722925,188.420356,1597.801794,6.021476,0
0.039572,-189.796444,40.342701,119.115701,2.521092,5.873154,-1.551514,-4.186169,-5.452724,1.660081,4.302153,-0.251287,0.461581,-0.059989,-57.557345,188.495745,1599.421856,4.938714,0
0.040613,-162.450625,-24.372304,164.769531,3.444354,5.073208,0.447779,-5.219457,-4.807118,-0.326838,5.441436,-0.251287,0.475982,-0.112023,-40.681117,188.420334,1600.029121,3.449199,0
0.041655,-94.232976,-76.567129,194.115818,4.074875,3.359565,2.917731,-5.779628,-3.135071,-2.694230,5.941055,-0.251287,0.474810,-0.100873,-12.940605,188.420301,1601.434628,1.741706,0
0.042697,-26.591623,-133.765328,186.156473,3.872208,1.348694,4.434297,-5.136189,-1.230896,-4.342950,5.475501,-0.258580,0.476119,-0.108307,9.103195,188.420356,1601.834941,0.202819,0
0.043738,36.315061,-178.384622,137.075871,2.971464,-1.062150,5.572728,-3.845525,1.046860,-5.446324,4.154538,-0.243995,0.476464,-0.056273,23.964183,188.495848,1602.527000,-0.640306,0
0.044780,89.741108,-195.673276,63.145101,1.541533,-3.311537,5.725591,-1.786519,3.259330,-5.708428,2.091716,-0.163779,0.457241,-0.086006,42.303994,188.420329,1601.651769,-1.045800,0
0.045822,151.427401,-165.664776,1.159424,0.359306,-4.940783,5.049774,0.359541,4.775416,-5.027802,-0.114936,-0.134610,0.456896,-0.074856,58.651082,188.420455,1601.247643,-1.875550,0
0.046863,185.010779,-116.018618,-59.222233,-0.834180,-5.715042,3.513094,2.460182,5.682166,-3.624277,-2.276169,-0.061686,0.455932,-0.071140,60.857713,188.420432,1601.354882,-2.832257,0
0.047905,189.892347,-38.736452,-118.230751,-1.937591,-5.880168,1.590232,4.360220,5.714809,-1.692316,-4.161096,-0.050748,0.467714,-0.104590,58.121940,188.495785,1601.570063,-3.312868,0
0.048947,162.151030,25.062443,-164.322042,-2.838335,-5.138934,-0.413083,5.389724,5.123608,0.341105,-5.289024,-0.006994,0.495136,-0.119457,38.678814,188.420314,1601.782638,-3.499120,0
0.049988,94.227179,76.493842,-193.546812,-3.513893,-3.403274,-2.907171,5.930970,3.429799,2.716953,-5.826494,-0.010640,0.478531,-0.082290,13.054867,188.420412,1602.331246,-3.786867,0
0.051030,27.591519,133.774257,-186.134292,-3.299967,-1.421758,-4.447874,5.359444,1.558267,4.344535,-5.379864,-0.017932,0.473432,-0.074856,-6.557135,188.420320,1602.671488,-3.176709,0
0.052072,-35.202166,177.853280,-137.685577,-2.376704,1.025780,-5.606418,4.068780,-0.719489,5.481729,-4.005911,-0.058040,0.466887,-0.071140,-24.243963,188.495754,1602.655433,-3.886954,0
0.053113,-89.611306,195.635225,-64.107205,-1.014329,3.242142,-5.735145,2.005989,-3.026261,5.756515,-2.015004,-0.105440,0.460410,-0.074856,-41.615558,188.420385,1603.153945,-4.394923,0
0.054155,-151.602697,165.156924,-1.829888,0.201676,4.889735,-4.970828,-0.261189,-4.426283,5.016705,0.282488,-0.163779,0.446423,-0.089723,-58.964636,188.344997,1602.477290,-5.135079,0
0.055197,-185.525073,116.473857,58.904167,1.338865,5.652985,-3.466330,-2.293700,-5.300390,3.613180,2.386945,-0.149195,0.448559,-0.100873,-60.416960,188.420386,1601.685568,-5.585236,0
0.056238,-189.547846,38.721890,118.070657,2.521092,5.807103,-1.515309,-4.152105,-5.372930,1.592441,4.249163,-0.214826,0.460135,-0.086006,-56.116280,188.495727,1599.595870,-5.757654,0
0.057280,-161.783929,-25.264925,164.441436,3.466873,5.010827,0.504097,-5.185393,-4.723697,-0.377567,5.396016,-0.233057,0.452762,-0.104590,-39.555284,188.345010,1598.083320,-6.256609,0
0.058322,-93.069084,-76.614109,193.568993,4.074875,3.308192,2.877504,-5.726639,-3.066158,-2.639273,5.854001,-0.240349,0.461444,-0.115740,-13.435971,188.345015,1595.887747,-5.970940,0
0.059363,-25.619829,-133.612643,186.484569,3.939764,1.381719,4.422229,-5.128619,-1.230896,-4.300675,5.437651,-0.218472,0.492242,-0.093440,8.866770,188.420388,1595.084283,-5.564595,0
0.060405,36.168162,-177.503746,137.804972,2.982723,-1.051142,5.524455,-3.864450,1.064995,-5.446324,4.128043,-0.211179,0.460272,-0.097156,24.932399,188.495832,1594.774830,-6.318797,0
0.061447,89.300411,-195.861197,64.773425,1.609088,-3.296859,5.681341,-1.801658,3.273838,-5.721110,2.129566,-0.174718,0.461306,-0.071140,43.215918,188.345066,1595.396405,-6.734402,0
0.062488,151.574300,-165.653031,3.018629,0.370565,-4.918766,5.017592,0.340616,4.775416,-5.006665,-0.054377,-0.101794,0.458757,-0.100873,58.808698,188.269494,1595.234255,-6.789679,0
0.063530,185.643575,-117.557214,-58.359464,-0.811661,-5.689355,3.501026,2.479106,5.660404,-3.624277,-2.230749,-0.101794,0.457723,-0.100873,62.310037,188.420376,1595.248567,-6.898961,0
0.064572,189.643748,-40.533438,-117.987717,-2.038925,-5.854482,1.566096,4.364005,5.758333,-1.662723,-4.096751,-0.058040,0.450420,-0.115740,58.020615,188.420330,1595.179063,-7.233793,0
0.065613,162.410928,24.334253,-164.370648,-2.860854,-5.080223,-0.493538,5.367014,5.094592,0.417200,-5.307949,-0.010640,0.475017,-0.104590,40.502662,188.344970,1595.260982,-8.686581,0
0.066655,93.390984,76.399882,-193.680480,-3.435078,-3.315206,-2.959467,5.896905,3.357259,2.733863,-5.781074,0.014883,0.469918,-0.086006,13.538975,188.269541,1594.215941,-9.325031,0
0.067697,26.099929,133.280966,-186.328719,-3.322485,-1.330022,-4.472010,5.314025,1.507489,4.416402,-5.315519,-0.017932,0.445252,-0.108307,-7.446542,188.420314,1593.849390,-10.309560,0
0.068738,-35.891461,177.700594,-137.005084,-2.331667,1.095500,-5.546077,4.023361,-0.784775,5.494411,-3.979416,-0.043455,0.456896,-0.097156,-24.097604,188.420354,1593.727534,-10.900263,0
0.069780,-88.933311,196.058045,-63.390256,-1.003069,3.322870,-5.739168,1.941645,-3.008126,5.739605,-1.950659,-0.090856,0.452211,-0.104590,-42.054632,188.344925,1593.029937,-11.401660,0
0.070822,-151.241099,165.450549,-1.817736,0.235454,4.897074,-5.027146,-0.238479,-4.462553,5.008250,0.282488,-0.163779,0.453245,-0.086006,-58.334170,188.269590,1593.281790,-11.800435,0
0.071863,-185.389473,117.061107,58.503162,1.440199,5.682341,-3.490466,-2.320195,-5.343914,3.579360,2.417225,-0.160133,0.455656,-0.089723,-61.903059,188.345050,1593.680375,-12.837408,0
0.072905,-189.694745,40.765522,118.228629,2.611166,5.825450,-1.543468,-4.201309,-5.380184,1.647399,4.268088,-0.247641,0.450075,-0.108307,-57.647412,188.420441,1594.404001,-13.039502,0
0.073947,-162.687923,-23.362233,164.599408,3.478132,5.032844,0.496052,-5.177823,-4.770848,-0.360657,5.418726,-0.240349,0.471296,-0.086006,-40.906283,188.345091,1595.344648,-13.477465,0
0.074988,-94.944871,-75.827193,193.714813,4.052357,3.297184,2.921754,-5.685005,-3.091547,-2.723822,5.888065,-0.254934,0.465715,-0.093440,-13.199546,188.269622,1596.676094,-14.902190,0
0.076030,-27.427817,-133.248548,186.338749,3.894726,1.359702,4.410161,-5.071845,-1.187372,-4.351405,5.418726,-0.247641,0.474397,-0.089723,8.810478,188.269680,1596.818093,-16.534125,0
0.077072,35.433667,-177.691666,137.707758,3.027760,-1.065820,5.572728,-3.819030,1.094011,-5.420959,4.078838,-0.240349,0.464406,-0.089723,23.682725,188.420363,1596.177504,-17.381511,0
0.078113,89.006613,-195.966902,63.922808,1.530273,-3.318876,5.673296,-1.744884,3.302854,-5.674608,2.038726,-0.163779,0.455380,-0.097156,42.101344,188.344921,1595.256950,-18.480440,0
0.079155,150.941504,-165.840951,1.779159,0.314269,-4.922436,5.017592,0.408745,4.789924,-4.939025,-0.107366,-0.130964,0.449937,-0.067423,58.549757,188.269603,1594.571090,-19.271845,0
0.080197,185.146378,-116.500163,-58.468829,-0.856698,-5.718711,3.452753,2.471536,5.664031,-3.543955,-2.261029,-0.079917,0.449042,-0.119457,60.992813,188.269559,1593.750839,-20.041498,0
0.081238,189.666348,-38.983097,-117.477347,-2.005147,-5.821456,1.550005,4.341296,5.732944,-1.641586,-4.111891,-0.065333,0.424858,-0.104590,58.065649,188.420417,1593.222930,-20.062828,0
0.082280,162.083230,24.710093,-164.079008,-2.860854,-5.098570,-0.469401,5.355659,5.072830,0.332650,-5.262530,0.003945,0.455449,-0.093440,38.780139,188.344977,1592.249496,-18.853710,0
0.083322,94.645276,76.000552,-193.109352,-3.468856,-3.348232,-2.887058,5.877981,3.411664,2.683133,-5.747009,0.003945,0.461513,-0.108307,13.268775,188.269566,1591.914619,-18.283780,0
0.084363,27.828818,132.999086,-186.377326,-3.322485,-1.410750,-4.451897,5.287530,1.511116,4.365672,-5.315519,-0.010640,0.480253,-0.104590,-6.275677,188.269583,1591.546897,-18.543761,0
0.085405,-34.693669,176.878444,-138.232402,-2.433000,1.007433,-5.542054,4.019576,-0.741251,5.397179,-4.013481,-0.010640,0.460135,-0.104590,-23.973763,188.420294,1590.626480,-18.284630,0
0.086447,-88.707312,195.940595,-63.499622,-0.980551,3.300853,-5.630554,1.881086,-3.011753,5.688876,-1.920379,-0.101794,0.444425,-0.082290,-41.210258,188.344954,1589.850376,-18.799767,0
0.087488,-150.676103,165.145179,-2.862780,0.201676,4.915421,-4.910487,-0.333102,-4.404521,4.898336,0.339263,-0.138256,0.439947,-0.078573,-58.739469,188.269772,1587.881178,-20.126783,0
0.088530,-185.502473,116.779227,57.980640,1.417680,5.660324,-3.442193,-2.327765,-5.275001,3.511720,2.432365,-0.171072,0.441945,-0.097156,-60.563318,188.269604,1586.563995,-20.821614,0
0.089572,-189.299248,39.684981,117.086372,2.566129,5.704358,-1.495196,-4.155890,-5.289509,1.575531,4.249163,-0.225764,0.459446,-0.104590,-56.116280,188.420309,1584.591592,-21.547827,0
0.090613,-162.032528,-24.348814,164.392829,3.421836,4.966794,0.532256,-5.166468,-4.665665,-0.386022,5.392231,-0.236703,0.439740,-0.074856,-39.724159,188.344918,1583.088800,-21.937379,0
0.091655,-94.052177,-76.038604,193.010016,4.052357,3.267828,2.877504,-5.681220,-3.040769,-2.639273,5.801011,-0.243995,0.475982,-0.093440,-13.649879,188.269559,1580.881613,-21.195554,0
0.092696,-26.083126,-132.813982,186.909877,3.951023,1.311999,4.406138,-5.015071,-1.111205,-4.317585,5.388446,-0.225764,0.440567,-0.108307,8.675379,188.194206,1580.037128,-21.653759,0
0.093738,35.806565,-176.611125,138.169522,3.005242,-1.051142,5.480205,-3.796321,1.123027,-5.353319,4.029633,-0.229410,0.446217,-0.100873,24.774783,188.420385,1578.707806,-22.251487,0
0.094780,88.667616,-196.096097,65.113672,1.597829,-3.274842,5.629046,-1.756239,3.313735,-5.649243,2.038726,-0.182010,0.449524,-0.082290,43.058302,188.269527,1578.621136,-22.893434,0
0.095821,150.613806,-165.770481,3.711275,0.381825,-4.882071,4.953228,0.404960,4.735519,-4.926343,-0.118721,-0.149195,0.452969,-0.082290,58.504723,188.269545,1577.827935,-23.494492,0
0.096863,185.643575,-118.179700,-57.399482,-0.811661,-5.682016,3.392412,2.471536,5.598745,-3.522817,-2.234534,-0.090856,0.451315,-0.089723,62.478912,188.194331,1577.216890,-24.008947,0
0.097905,189.406450,-41.367334,-117.282920,-1.971369,-5.810448,1.493687,4.345081,5.635015,-1.654268,-4.100536,-0.061686,0.457654,-0.086006,58.110682,188.420336,1576.161445,-24.819741,0
0.098947,162.772526,23.371162,-164.334193,-2.849594,-5.054537,-0.561924,5.302670,5.054695,0.417200,-5.292809,-0.043455,0.481425,-0.089723,40.694054,188.194204,1576.648249,-26.618785,0
0.099988,94.193279,75.883102,-193.024290,-3.502634,-3.260164,-2.951421,5.862841,3.284719,2.755000,-5.675094,-0.043455,0.463373,-0.089723,13.809175,188.269561,1575.236218,-28.437223,0
0.101030,26.676225,132.893381,-186.608207,-3.356263,-1.289657,-4.443851,5.249681,1.456711,4.399492,-5.232250,-0.014286,0.451867,-0.108307,-7.288926,188.194143,1574.458968,-29.296119,0
0.102072,-35.416864,176.984149,-137.624819,-2.365445,1.099169,-5.566191,3.947662,-0.744878,5.452136,-3.903716,0.000299,0.446423,-0.119457,-23.939988,188.420379,1574.059772,-29.964648,0
0.103113,-88.368315,196.140260,-63.608987,-0.924254,3.322870,-5.678827,1.881086,-3.026261,5.705785,-1.893884,-0.090856,0.447664,-0.071140,-41.840724,188.269659,1574.236037,-30.509449,0
0.104155,-150.348405,165.485784,-2.279500,0.235454,4.900743,-4.974851,-0.249834,-4.419029,4.974430,0.255993,-0.167425,0.446975,-0.052556,-58.075228,188.269613,1575.209420,-29.134978,0
0.105197,-185.400773,117.202047,57.919882,1.383902,5.675002,-3.454261,-2.331550,-5.322152,3.562450,2.402085,-0.196595,0.450833,-0.089723,-61.948092,188.194076,1576.046422,-28.603477,0
0.106238,-189.547846,41.117872,117.414467,2.543610,5.821781,-1.487150,-4.205094,-5.365676,1.634716,4.264303,-0.207533,0.456896,-0.112023,-57.714962,188.344976,1577.551080,-28.329878,0
0.107280,-162.733123,-22.622298,164.441436,3.410576,5.047522,0.504097,-5.204318,-4.752713,-0.381795,5.418726,-0.280457,0.460341,-0.074856,-41.142708,188.269458,1578.834758,-28.587838,0
0.108322,-95.882765,-75.286923,193.362415,4.041097,3.293514,2.966003,-5.703929,-3.048023,-2.694230,5.891850,-0.229410,0.471365,-0.086006,-13.559813,188.269523,1580.609542,-29.890638,0
0.109363,-28.331811,-132.708277,186.703299,3.951023,1.323007,4.454411,-5.121049,-1.176491,-4.338722,5.479286,-0.265872,0.475913,-0.104590,8.517762,188.194211,1582.020606,-29.709729,0
0.110405,34.789572,-177.163140,138.303190,2.982723,-1.113523,5.580773,-3.762256,1.101265,-5.437869,4.071268,-0.236703,0.480805,-0.082290,23.558884,188.344988,1583.420783,-29.752010,0
0.111447,88.419017,-196.060862,64.554695,1.564051,-3.337223,5.717546,-1.729745,3.306481,-5.699973,2.069006,-0.156487,0.451867,-0.074856,41.921211,188.269492,1583.974368,-29.191142,0
