1-Time,2-VGERA,3-VGERB,4-VGERC,5-VN,6-IGERAN,7-IGERBN,8-IGERCN,9-IGERAT,10-IGERBT,11-IGERCT,12-IN,13-IFD,14-IFAULT,15-VFAULT,16-Speed (rad/s),17-Active Power,18-Reactive Power,19-FAULT 
0.000000,119.527712,64.149837,-188.953480,-3.390041,-3.832602,-2.315831,5.787142,3.915817,2.154697,-5.790806,0.000299,0.482872,-0.067423,-47.987769,188.420207,1639.580381,-24.810799,0
0.001042,41.445228,124.061133,-195.539686,-3.525153,-1.829070,-4.311101,5.692519,1.899205,4.276895,-5.707536,0.025822,0.480391,-0.078573,89.543924,188.269465,1639.834236,-25.406937,0
0.002083,-25.088733,165.333099,-159.230491,-2.827076,0.420317,-5.344941,4.428349,-0.168185,5.295719,-4.481197,-0.003348,0.483629,-0.078573,194.617868,188.420300,1639.969477,-25.812087,0
0.003125,-77.927184,198.395302,-83.525576,-1.419663,3.043990,-5.883986,2.452612,-2.591021,5.849520,-2.490290,-0.061686,0.456827,-0.100873,280.158618,188.420220,1639.625205,-25.265426,0
0.004167,-138.777281,178.581470,-17.068084,-0.136103,4.552143,-5.192078,0.355756,-4.168766,5.354904,-0.423683,-0.112733,0.464200,-0.082290,315.599824,188.495653,1640.324450,-25.255214,0
0.005208,-185.796271,130.239009,44.504437,1.102420,5.715366,-3.924920,-1.937916,-5.307644,4.031701,1.934369,-0.163779,0.460961,-0.071140,318.234272,188.269546,1640.464299,-25.124184,0
0.006250,-195.017010,56.245445,101.763114,2.217091,5.939204,-1.913559,-3.849310,-5.543399,2.040555,3.997191,-0.171072,0.464475,-0.048839,245.021387,188.495754,1639.876742,-25.969629,0
0.007292,-167.207894,-6.343714,164.708773,3.444354,5.443825,0.109871,-5.196748,-5.002976,0.053636,5.295444,-0.207533,0.468747,-0.067423,157.217714,188.420294,1639.048620,-26.635587,0
0.008333,-118.267917,-64.446279,189.024268,3.917245,3.829257,2.334436,-5.582811,-3.519533,-2.119292,5.772354,-0.229410,0.459170,-0.086006,47.719248,188.495627,1637.903278,-27.068487,0
0.009375,-40.049834,-123.864285,195.853507,4.142431,1.836733,4.418206,-5.526037,-1.626239,-4.173850,5.704224,-0.211179,0.466542,-0.078573,-88.821713,188.269519,1637.399317,-27.270487,0
0.010417,25.602732,-165.077525,159.495706,3.399317,-0.427331,5.391705,-4.220234,0.448405,-5.298362,4.549801,-0.200241,0.484663,-0.112023,-193.242674,188.495617,1637.512876,-27.727224,0
0.011458,77.910087,-198.280669,84.933048,1.924349,-3.003301,5.942818,-2.259636,2.922019,-5.843707,2.494548,-0.167425,0.473157,-0.067423,-279.492699,188.420289,1638.636105,-28.013721,0
0.012500,138.794084,-178.819187,18.402646,0.640789,-4.507785,5.279069,-0.208200,4.452613,-5.311044,0.462006,-0.105440,0.471572,-0.093440,-316.937886,188.495718,1639.396191,-27.659474,0
0.013542,185.575775,-131.287131,-43.534425,-0.563957,-5.777423,3.967661,2.108182,5.576983,-3.996296,-1.884691,-0.087210,0.465784,-0.086006,-321.823999,188.269509,1639.672585,-27.957927,0
0.014583,194.999913,-57.551958,-101.048287,-1.678627,-5.913193,1.916073,4.064995,5.849008,-2.000922,-3.943728,0.003945,0.451660,-0.078573,-245.909116,188.495797,1639.085924,-28.962485,0
0.015625,167.394195,5.342571,-164.273435,-2.894632,-5.439831,-0.095288,5.420003,5.319466,-0.014004,-5.317681,0.025822,0.467438,-0.089723,-156.968352,188.495682,1638.987556,-29.902678,0
0.016667,118.838416,64.243797,-188.892722,-3.378782,-3.832602,-2.291695,5.779572,3.886801,2.184289,-5.794591,0.036760,0.463442,-0.115740,-46.614254,188.495624,1638.780580,-30.274226,0
0.017708,39.829338,123.203748,-195.721961,-3.547671,-1.843748,-4.290988,5.730368,1.917340,4.217710,-5.692396,0.011237,0.466542,-0.059989,89.937966,188.344874,1637.841498,-29.317953,0
0.018750,-26.184826,164.734103,-159.667951,-2.849594,0.357936,-5.328850,4.443489,-0.142796,5.321084,-4.500122,-0.006994,0.455105,-0.089723,193.841044,188.495665,1638.212850,-28.793176,0
0.019792,-77.271788,197.761072,-84.594924,-1.385885,2.981609,-5.855827,2.463967,-2.591021,5.832610,-2.475150,-0.032517,0.456483,-0.086006,278.953978,188.495834,1637.764523,-29.512044,0
0.020833,-138.336584,179.321406,-18.538436,-0.102325,4.500771,-5.224259,0.382251,-4.150631,5.346449,-0.435038,-0.083563,0.468816,-0.112023,315.836249,188.495718,1637.687612,-30.032676,0
0.021875,-185.039176,131.648410,43.264966,1.091161,5.704358,-3.932965,-1.907637,-5.242358,4.052838,1.919229,-0.120025,0.468127,-0.086006,318.324339,188.344959,1637.029827,-30.350374,0
0.022917,-195.683705,58.993777,101.021862,2.250869,5.906179,-1.913559,-3.815245,-5.532518,2.103967,3.936631,-0.152841,0.469229,-0.078573,247.959810,188.495694,1637.180685,-30.247898,0
0.023958,-167.580791,-4.018202,164.502195,3.433095,5.443825,0.097802,-5.147543,-5.013857,0.138186,5.276520,-0.182010,0.477291,-0.082290,158.726329,188.495745,1637.144449,-30.022208,0
0.025000,-120.019405,-63.166073,189.182240,3.905986,3.825588,2.318345,-5.556317,-3.584819,-2.115064,5.772354,-0.200241,0.473846,-0.108307,49.126539,188.495781,1637.895447,-30.275808,0
0.026042,-40.705230,-122.901194,195.841356,4.074875,1.829395,4.333729,-5.484403,-1.666136,-4.169623,5.696654,-0.243995,0.480667,-0.089723,-89.024363,188.345024,1637.727797,-30.278649,0
0.027083,25.975630,-164.889605,160.164048,3.376799,-0.346603,5.379637,-4.239158,0.444778,-5.264542,4.530876,-0.203887,0.456207,-0.112023,-193.591682,188.495732,1637.312884,-30.275199,0
0.028125,77.378990,-197.775633,84.714318,1.935608,-2.944590,5.882477,-2.252066,2.867614,-5.805660,2.498333,-0.163779,0.469023,-0.093440,-278.850974,188.495792,1636.284556,-29.770339,0
0.029167,137.630192,-180.087648,17.977337,0.753382,-4.489438,5.262978,-0.253619,4.474375,-5.285679,0.499856,-0.090856,0.463166,-0.089723,-317.275636,188.495807,1636.372077,-29.889316,0
0.030208,183.959886,-131.369346,-43.206330,-0.485141,-5.700364,4.032025,2.077903,5.537086,-3.975158,-1.850626,-0.068979,0.467025,-0.093440,-321.677641,188.420330,1635.080995,-29.854419,0
0.031250,195.824807,-58.773439,-100.574372,-1.656109,-5.946218,2.028709,4.008221,5.852635,-2.115064,-3.890738,0.000299,0.474672,-0.089723,-248.723697,188.495664,1635.602550,-28.680943,0
0.032292,167.518494,3.204979,-164.407103,-2.815817,-5.469187,-0.006788,5.314025,5.330347,-0.111236,-5.249551,0.007591,0.472605,-0.074856,-159.557766,188.495635,1635.103951,-27.842866,0
0.033333,121.313100,62.446810,-189.123604,-3.401300,-3.872966,-2.259513,5.760648,3.944833,2.082830,-5.798376,0.033114,0.484456,-0.097156,-50.824867,188.495817,1635.550698,-27.490534,0
0.034375,42.869018,122.393342,-195.551838,-3.480115,-1.851087,-4.303056,5.643314,1.913713,4.205028,-5.703751,0.007591,0.479840,-0.063706,87.404843,188.495781,1635.645397,-28.614123,0
0.035417,-24.772335,164.933768,-160.518568,-2.883372,0.398300,-5.304714,4.451059,-0.124661,5.325312,-4.522832,-0.006994,0.453796,-0.104590,193.447002,188.495696,1636.152914,-28.942763,0
0.036458,-76.864991,197.232546,-85.251114,-1.453441,2.963262,-5.855827,2.399623,-2.587394,5.752288,-2.463795,-0.025225,0.467920,-0.078573,278.357287,188.495644,1634.984103,-29.363029,0
0.037500,-137.602089,180.249262,-17.724274,-0.136103,4.500771,-5.204146,0.420100,-4.132496,5.299947,-0.457748,-0.054394,0.459170,-0.097156,315.960091,188.495631,1634.446577,-29.163615,0
0.038542,-183.886583,131.319550,43.665971,1.102420,5.693349,-3.916875,-1.892497,-5.216969,4.006336,1.881379,-0.120025,0.460824,-0.097156,318.290564,188.420345,1633.237592,-28.926264,0
0.039583,-195.785405,57.537396,100.365671,2.262128,5.928196,-1.969877,-3.792536,-5.525264,2.070147,3.929061,-0.200241,0.469298,-0.097156,247.790935,188.495797,1632.624520,-28.926595,0
0.040625,-167.422592,-4.288337,163.931066,3.466873,5.473181,0.033439,-5.132404,-4.999349,0.129731,5.215960,-0.222118,0.473915,-0.104590,160.066070,188.495703,1631.614617,-28.707223,0
0.041667,-120.674801,-62.543587,189.036420,3.928504,3.843935,2.258004,-5.544962,-3.679121,-2.098154,5.749644,-0.214826,0.471916,-0.067423,52.019928,188.495645,1631.988258,-28.014066,0
0.042708,-42.840915,-122.266963,195.634777,4.018579,1.855081,4.341775,-5.480618,-1.662509,-4.131575,5.685299,-0.229410,0.482389,-0.104590,-85.691898,188.495732,1631.545325,-28.636951,0
0.043750,23.941643,-164.795645,161.269850,3.376799,-0.346603,5.351478,-4.280793,0.375865,-5.243404,4.564940,-0.218472,0.481494,-0.100873,-191.835383,188.495756,1631.791889,-28.499858,0
0.044792,76.712295,-196.847777,86.865164,1.969386,-2.929912,5.838227,-2.259636,2.834971,-5.763385,2.547538,-0.182010,0.471365,-0.071140,-277.545008,188.571071,1631.338958,-28.577044,0
0.045833,137.494593,-180.616173,19.010229,0.674567,-4.438065,5.250910,-0.295253,4.376446,-5.272997,0.526351,-0.123671,0.465026,-0.074856,-317.906102,188.495689,1630.524689,-28.072799,0
0.046875,183.270590,-132.473377,-42.890386,-0.563957,-5.660000,3.987775,2.017344,5.457292,-4.004751,-1.816561,-0.047102,0.462546,-0.097156,-319.831276,188.571190,1629.781816,-27.633836,0
0.047917,196.084706,-58.409343,-99.577935,-1.633590,-5.898515,1.996527,3.970372,5.888905,-2.089699,-3.856673,-0.006994,0.422791,-0.082290,-247.744223,188.495702,1629.653006,-27.699724,0
0.048958,167.507195,4.191560,-163.119026,-2.883372,-5.414145,0.021371,5.279960,5.261434,-0.136601,-5.204131,0.000299,0.451729,-0.067423,-158.555775,188.495835,1628.048718,-27.366701,0
0.050000,120.126608,62.787416,-189.099300,-3.378782,-3.858288,-2.158945,5.745508,3.937579,2.044782,-5.745386,0.033114,0.472743,-0.108307,-50.746059,188.495767,1626.961530,-26.499906,0
0.051042,41.682526,121.582936,-195.308804,-3.536412,-1.928146,-4.214556,5.673594,1.982626,4.027473,-5.635621,0.011237,0.469505,-0.071140,86.200202,188.571051,1624.535355,-24.233379,0
0.052083,-24.342938,164.522693,-161.612219,-2.894632,0.288216,-5.264487,4.443489,-0.044867,5.257672,-4.553112,0.003945,0.468127,-0.093440,191.566862,188.495805,1624.169943,-23.253415,0
0.053125,-76.379094,195.564755,-87.827268,-1.509738,2.871525,-5.843759,2.467752,-2.518481,5.756515,-2.524355,-0.047102,0.483836,-0.078573,276.488405,188.571141,1623.966172,-22.924206,0
0.054167,-137.500390,181.259332,-19.814362,-0.158622,4.409034,-5.236327,0.529863,-4.078091,5.325312,-0.567513,-0.079917,0.468265,-0.119457,316.635590,188.495674,1624.306396,-22.038436,0
0.055208,-182.451493,133.069556,42.876113,1.034864,5.619960,-3.941011,-1.786519,-5.148056,4.057066,1.782969,-0.145548,0.466336,-0.086006,318.211756,188.571078,1623.541196,-21.131531,0
0.056250,-196.745898,59.839418,99.466448,2.194572,5.858476,-1.969877,-3.709267,-5.521637,2.108195,3.868501,-0.196595,0.465647,-0.063706,249.783659,188.495709,1623.689560,-21.175044,0
0.057292,-167.524291,-2.996386,162.667292,3.399317,5.410800,-0.014834,-5.068060,-4.966706,0.184688,5.125120,-0.218472,0.452762,-0.093440,159.739578,188.571207,1622.054304,-20.843769,0
0.058333,-120.810400,-62.132512,189.376666,3.962282,3.891638,2.193641,-5.495758,-3.635597,-2.009377,5.738289,-0.211179,0.462753,-0.093440,51.670920,188.495667,1621.312567,-20.425197,0
0.059375,-41.744823,-121.198167,195.124407,4.097394,1.895445,4.176843,-5.469263,-1.706033,-4.004751,5.624739,-0.236703,0.438776,-0.093440,-86.344881,188.571111,1619.158140,-18.903509,0
0.060417,25.218535,-164.631215,161.853130,3.433095,-0.196154,5.271023,-4.329997,0.292444,-5.158855,4.629285,-0.178364,0.485421,-0.063706,-191.857900,188.495725,1618.914707,-16.798800,0
0.061458,76.531496,-195.097771,88.141090,2.048201,-2.739099,5.814091,-2.369399,2.697145,-5.683063,2.581603,-0.127317,0.474397,-0.082290,-275.799968,188.571111,1616.995266,-15.496617,0
0.062500,136.658398,-182.002085,19.994515,0.764641,-4.364676,5.275046,-0.378522,4.314787,-5.319499,0.602051,-0.109087,0.473294,-0.056273,-320.078959,188.495700,1617.339495,-14.684370,0
0.063542,181.417403,-133.824053,-42.440774,-0.518919,-5.575602,4.036048,1.926505,5.417395,-4.076618,-1.650021,-0.025225,0.467231,-0.108307,-320.484258,188.571004,1616.692786,-12.744170,0
0.064583,196.943500,-61.204656,-99.237688,-1.644849,-5.872829,2.105141,3.856824,5.834500,-2.220751,-3.788543,-0.047102,0.472674,-0.078573,-251.223045,188.495731,1616.795352,-11.777591,0
0.065625,167.846192,1.572423,-162.511442,-2.894632,-5.395798,0.158143,5.204262,5.308585,-0.242288,-5.064087,0.036760,0.480942,-0.074856,-160.874990,188.571062,1615.801584,-10.505932,0
0.066667,122.273593,61.307544,-189.378789,-3.401300,-3.861958,-2.110672,5.673594,3.959341,1.943323,-5.734031,0.025822,0.487212,-0.100873,-53.144082,188.495731,1615.814173,-10.240630,0
0.067708,43.614813,120.514140,-194.907799,-3.547671,-1.895120,-4.109965,5.677379,2.015269,4.023246,-5.601556,0.000299,0.470676,-0.108307,84.995561,188.571161,1615.322351,-10.810870,0
0.068750,-24.060440,164.546183,-162.268409,-2.905891,0.244182,-5.200123,4.526758,-0.015851,5.223852,-4.606102,-0.036163,0.464475,-0.108307,192.129778,188.495743,1615.626921,-10.193152,0
0.069792,-76.186995,194.907034,-87.960937,-1.453441,2.831161,-5.755259,2.539665,-2.406044,5.710013,-2.554635,-0.014286,0.452211,-0.100873,275.846680,188.571107,1614.416109,-8.819558,0
0.070833,-136.381697,182.445578,-18.769318,-0.079807,4.368670,-5.212191,0.556358,-4.012805,5.283037,-0.597793,-0.101794,0.461099,-0.119457,316.826982,188.495720,1613.488409,-8.194325,0
0.071875,-180.903403,133.316201,43.106994,1.169976,5.572257,-3.969170,-1.729745,-5.104532,4.103568,1.737549,-0.160133,0.465991,-0.063706,318.268047,188.571103,1612.832589,-7.307830,0
0.072917,-197.096196,60.426669,99.077594,2.217091,5.928196,-2.034240,-3.686557,-5.507129,2.247702,3.773877,-0.185656,0.460892,-0.089723,251.956515,188.495683,1612.759378,-5.233438,0
0.073958,-167.851989,-1.363829,162.594382,3.365539,5.451164,-0.079197,-5.015071,-4.988468,0.286148,5.102410,-0.200241,0.479358,-0.056273,162.475351,188.571029,1612.870141,-4.437681,0
0.075000,-123.036485,-60.770090,189.413121,3.917245,3.913655,2.109164,-5.503328,-3.704510,-1.967102,5.704224,-0.214826,0.457379,-0.089723,55.431201,188.495794,1613.174365,-4.328559,0
0.076042,-45.225200,-120.270312,194.966435,4.074875,1.917462,4.172820,-5.420059,-1.735049,-4.000523,5.639879,-0.218472,0.484112,-0.097156,-82.809767,188.571286,1613.552638,-5.306740,0
0.077083,22.890750,-164.502020,162.788809,3.455614,-0.214502,5.250910,-4.303502,0.263428,-5.184219,4.617930,-0.196595,0.483492,-0.089723,-190.608226,188.571120,1613.863729,-6.223602,0
0.078125,76.102099,-194.357835,89.283347,2.036942,-2.753777,5.793977,-2.361829,2.671756,-5.666153,2.570248,-0.160133,0.468609,-0.074856,-275.045660,188.571250,1613.325790,-6.583115,0
0.079167,136.330701,-182.824235,19.484144,0.697085,-4.346328,5.279069,-0.427726,4.311160,-5.298362,0.602051,-0.098148,0.464269,-0.082290,-320.585583,188.495691,1613.234517,-6.642946,0
0.080208,180.038812,-134.141169,-42.793173,-0.575216,-5.527899,3.991798,1.892441,5.395633,-4.008978,-1.676516,-0.087210,0.458757,-0.089723,-317.399478,188.571160,1612.160328,-7.538616,0
0.081250,197.192098,-59.971430,-98.180493,-1.599812,-5.880168,2.113186,3.841684,5.859889,-2.157339,-3.780973,-0.028871,0.438707,-0.078573,-251.042912,188.495707,1611.774794,-8.012774,0
0.082292,167.642794,2.335849,-161.466399,-2.838335,-5.406806,0.198370,5.192907,5.246926,-0.267653,-5.064087,0.011237,0.492518,-0.059989,-161.370357,188.571176,1610.731356,-7.931401,0
0.083333,122.137994,61.037409,-189.463850,-3.345004,-3.972042,-2.038263,5.688734,4.060897,1.909503,-5.681041,-0.003348,0.469160,-0.078573,-55.193097,188.495658,1610.691559,-6.604056,0
0.084375,45.095103,119.645010,-194.652614,-3.480115,-2.008874,-4.065715,5.628175,2.087809,3.942924,-5.601556,0.007591,0.487143,-0.089723,81.730647,188.571129,1610.179498,-5.809928,0
0.085417,-21.969953,164.546183,-163.495728,-2.860854,0.137768,-5.167941,4.522973,0.092959,5.198487,-4.613672,0.018530,0.483767,-0.074856,189.934405,188.495731,1610.183686,-5.391063,0
0.086458,-75.305601,193.004343,-90.950248,-1.520997,2.732085,-5.735145,2.509386,-2.304488,5.671966,-2.554635,-0.047102,0.472674,-0.071140,273.549982,188.570977,1608.898026,-5.587075,0
0.087500,-136.246098,183.373434,-20.093850,-0.192400,4.306289,-5.244373,0.632057,-3.991043,5.354904,-0.646998,-0.105440,0.467162,-0.063706,317.524998,188.495772,1609.886788,-5.167846,0
0.088542,-179.219714,134.843053,42.803202,1.034864,5.495198,-3.997329,-1.657831,-5.017484,4.078203,1.654279,-0.090856,0.463717,-0.104590,318.268047,188.571116,1608.274085,-4.779520,0
0.089583,-197.819391,61.037409,98.141915,2.138276,5.862145,-2.114695,-3.591934,-5.470859,2.239247,3.770092,-0.152841,0.471779,-0.045123,252.271748,188.495741,1607.912048,-5.338599,0
0.090625,-167.795490,-2.127255,160.808086,3.388058,5.370436,-0.207924,-4.909092,-4.937690,0.370698,4.996430,-0.203887,0.483836,-0.089723,160.966736,188.571228,1605.729337,-3.995887,0
0.091667,-121.838693,-60.770090,189.826278,3.939764,3.961358,2.036755,-5.465478,-3.679121,-1.836050,5.662589,-0.218472,0.462891,-0.037689,55.363651,188.495521,1604.356510,-2.406097,0
0.092708,-43.857909,-119.225006,194.528975,4.097394,2.012868,4.084320,-5.435199,-1.771319,-3.873699,5.583104,-0.247641,0.450213,-0.082290,-81.717710,188.571160,1602.236052,-0.868746,0
0.093750,23.071549,-164.713430,163.578667,3.523169,-0.100748,5.174478,-4.371631,0.165499,-5.082760,4.670920,-0.203887,0.478738,-0.078573,-189.583718,188.495638,1601.863314,1.029048,0
0.094792,75.548402,-192.290713,92.248355,2.104498,-2.643693,5.749727,-2.365614,2.523049,-5.539328,2.672443,-0.178364,0.479427,-0.078573,-272.501279,188.571102,1599.933734,2.492328,0
0.095833,136.014303,-184.045716,21.525625,0.753382,-4.276608,5.267001,-0.446651,4.253128,-5.298362,0.677751,-0.109087,0.469918,-0.045123,-323.557781,188.495689,1599.955312,2.859432,0
0.096875,178.411622,-135.996880,-41.942556,-0.563957,-5.454509,4.080298,1.816742,5.301331,-4.059708,-1.562966,-0.054394,0.466611,-0.074856,-317.388219,188.571132,1598.873293,3.977624,0
0.097917,197.960493,-62.508352,-97.791639,-1.644849,-5.861821,2.153414,3.811404,5.787349,-2.199614,-3.720413,-0.047102,0.467093,-0.048839,-253.395902,188.495685,1598.355598,4.011989,0
0.098958,168.117391,0.726782,-160.627933,-2.849594,-5.384789,0.210439,5.075574,5.250553,-0.360657,-4.901332,0.022176,0.479771,-0.089723,-161.685590,188.571169,1596.675735,5.359742,0
0.100000,122.951589,60.215258,-189.731187,-3.378782,-3.983050,-2.014127,5.654669,4.010119,1.884138,-5.635621,0.025822,0.477911,-0.082290,-55.542105,188.495734,1595.843161,4.799196,0
0.101042,44.778706,118.752389,-194.215154,-3.480115,-2.001535,-3.997329,5.571401,2.142214,3.930241,-5.556136,0.022176,0.440085,-0.052556,82.147205,188.571116,1595.001841,5.308600,0
0.102083,-23.145146,164.499203,-163.592941,-2.928410,0.115751,-5.155873,4.568392,0.074824,5.143530,-4.625027,-0.025225,0.474121,-0.104590,190.699971,188.495707,1594.573728,5.816761,0
0.103125,-75.497700,192.135212,-91.071765,-1.509738,2.618331,-5.698941,2.604009,-2.239202,5.629691,-2.618980,-0.061686,0.470745,-0.097156,272.457924,188.571125,1593.881456,7.170205,0
0.104167,-135.296904,184.301290,-20.737889,-0.136103,4.236569,-5.220237,0.707755,-3.969281,5.376042,-0.696202,-0.058040,0.467576,-0.071140,317.806456,188.495810,1594.100279,7.430532,0
0.105208,-178.055822,135.841378,42.013344,1.113679,5.473181,-3.997329,-1.570777,-4.992095,4.057066,1.616429,-0.163779,0.465578,-0.074856,318.256789,188.495586,1593.334866,7.135964,0
0.106250,-198.045390,63.175001,97.728759,2.183313,5.873154,-2.122740,-3.584364,-5.499875,2.268839,3.698177,-0.185656,0.469229,-0.078573,254.883680,188.495656,1593.614859,7.379098,0
0.107292,-168.394386,0.597587,160.625811,3.365539,5.388783,-0.163675,-4.878813,-4.948571,0.366470,4.981290,-0.196595,0.458619,-0.052556,163.837608,188.495709,1593.745625,6.412111,0
0.108333,-123.974379,-59.384179,189.704762,3.928504,3.976036,2.036755,-5.385995,-3.737153,-1.819140,5.730719,-0.225764,0.479082,-0.059989,57.604057,188.495817,1595.218126,5.976227,0
0.109375,-46.050094,-118.508560,194.334549,4.074875,1.990851,4.104434,-5.382210,-1.814843,-3.844106,5.590674,-0.211179,0.486661,-0.071140,-80.490553,188.495754,1595.262345,5.849584,0
0.110417,22.382254,-164.443295,163.894611,3.511910,-0.133773,5.218728,-4.322427,0.201769,-5.137717,4.621715,-0.182010,0.480047,-0.082290,-189.752593,188.495674,1595.396758,4.471133,0
