1-Time,2-VGERA,3-VGERB,4-VGERC,5-VN,6-IGERAN,7-IGERBN,8-IGERCN,9-IGERAT,10-IGERBT,11-IGERCT,12-IN,13-IFD,14-IFAULT,15-VFAULT,16-Speed (rad/s),17-Active Power,18-Reactive Power,19-FAULT 
0.000000,170.071904,-162.787289,-27.477652,2.441718,-3.261690,6.395863,-2.408403,3.175978,-6.339970,2.417882,-0.183235,0.601796,-0.017021,-85.874490,188.495658,1522.526583,948.271193,0
0.001042,181.255610,-107.964147,-97.020265,1.163688,-4.980025,5.554524,0.039375,5.002825,-5.559385,0.091050,-0.110175,0.583374,-0.043161,-50.553360,188.495568,1523.137961,947.015745,0
0.002083,184.953265,-20.582968,-145.290152,0.213648,-6.091262,4.086148,2.464766,6.065117,-4.086346,-2.239340,-0.084604,0.604866,-0.046895,-1.931672,188.495606,1524.123889,946.021652,0
0.003125,155.700956,57.701290,-173.616857,-0.351852,-6.084162,2.082013,4.214778,6.223174,-2.151671,-4.014705,-0.022503,0.592650,-0.024490,42.821998,188.555254,1524.135844,945.692466,0
0.004166,77.120113,113.031830,-195.578978,-0.815562,-5.235645,-0.719807,5.822999,5.238073,0.588770,-5.590831,0.021333,0.607218,-0.050629,70.667217,188.476001,1524.777528,945.856101,0
0.005208,2.531829,158.262735,-177.433144,-0.464952,-3.726777,-2.747754,6.184942,3.786152,2.695509,-6.007100,0.006721,0.620805,-0.031958,96.510566,188.495153,1525.450135,945.242152,0
0.006250,-68.177319,190.748286,-128.978599,0.394608,-1.397794,-4.732046,5.655087,1.496160,4.638578,-5.526790,-0.018850,0.609112,-0.065566,113.927966,188.505975,1525.575940,945.303016,0
0.007291,-120.885918,196.269259,-45.266477,2.034558,1.094501,-5.847218,4.196122,-1.032756,5.897586,-4.178366,-0.059033,0.603233,-0.046895,115.567916,188.439383,1525.977312,944.849266,0
0.008333,-170.441303,162.648103,27.292235,3.436998,3.370229,-6.287730,2.311780,-3.278640,6.271092,-2.360307,-0.084604,0.604082,-0.054364,90.210896,188.498374,1525.813327,944.967776,0
0.009375,-182.033339,109.250507,96.921023,4.681098,5.092114,-5.386862,-0.124805,-5.061378,5.553457,-0.008570,-0.135746,0.598595,-0.069301,53.951037,188.495752,1525.680029,945.340408,0
0.010416,-185.016416,19.682685,145.104735,5.642448,6.242405,-3.886737,-2.572583,-6.142049,4.017468,2.375187,-0.194194,0.610745,-0.050629,5.159698,188.646648,1525.487852,944.917729,0
0.011458,-155.718738,-57.719667,173.739205,6.230568,6.267256,-1.902445,-4.322596,-6.318485,2.137349,4.132764,-0.201500,0.609308,-0.028224,-37.874851,188.495689,1525.436282,945.252823,0
0.012500,-78.646447,-112.482405,195.442804,6.649038,5.369036,0.943029,-6.001712,-5.384844,-0.670238,5.723121,-0.245336,0.613358,-0.043161,-65.754000,188.495749,1525.921500,945.586559,0
0.013541,-2.436186,-158.172384,177.653978,6.354978,3.885020,2.959070,-6.326342,-3.966005,-2.751798,6.135831,-0.278213,0.632956,-0.076769,-92.298570,188.495716,1526.414621,946.886646,0
0.014583,68.930827,-190.730420,128.707008,5.427558,1.548937,4.927487,-5.856189,-1.620876,-4.715850,5.634175,-0.245336,0.609047,-0.054364,-109.557629,188.646522,1525.752575,946.613379,0
0.015625,120.924850,-195.985614,46.422917,3.832848,-0.911406,6.058534,-4.348716,0.926419,-5.979055,4.332003,-0.205153,0.605388,-0.050629,-108.256979,188.495682,1527.406614,947.173595,0
0.016666,170.264727,-162.473186,-27.477652,2.430408,-3.275891,6.415706,-2.427060,3.168626,-6.348364,2.457018,-0.212459,0.601273,-0.039427,-85.003620,188.495826,1527.275051,947.816361,0
0.017708,181.550515,-107.855419,-97.007955,1.163688,-4.987126,5.586272,0.061764,5.002825,-5.584566,0.062587,-0.128440,0.585530,-0.076769,-49.128300,188.495808,1527.655136,947.863441,0
0.018750,184.907895,-20.184298,-145.265531,0.202338,-6.116114,4.125833,2.487154,6.076144,-4.098936,-2.306939,-0.077298,0.604474,-0.046895,-2.259662,188.571237,1528.316099,947.653885,0
0.019791,155.746326,57.459672,-173.887690,-0.317922,-6.130315,2.026453,4.293137,6.226850,-2.126491,-4.092978,-0.037115,0.608655,-0.050629,42.946408,188.495807,1529.450619,947.100070,0
0.020833,76.552988,113.019749,-196.046781,-0.815562,-5.200142,-0.759493,5.938671,5.267479,0.685293,-5.637084,0.010374,0.583897,-0.043161,72.273237,188.495736,1530.831596,946.703441,0
0.021875,2.191554,158.564757,-177.236175,-0.442332,-3.726777,-2.854905,6.229718,3.789828,2.792033,-6.049794,-0.037115,0.608524,-0.035692,97.437986,188.495626,1532.198938,946.597582,0
0.022917,-68.177319,191.340250,-128.757008,0.417228,-1.319688,-4.851103,5.718520,1.422645,4.760282,-5.526790,0.006721,0.613946,-0.024490,114.369056,188.571080,1534.065355,945.732451,0
0.023958,-121.022028,196.148450,-44.995644,2.057178,1.176157,-5.910715,4.211047,-1.113623,5.973126,-4.153461,-0.033462,0.603363,-0.065566,115.217306,188.495644,1535.414970,945.060430,0
0.025000,-170.702181,162.974287,28.080114,3.448308,3.512241,-6.319479,2.222227,-3.433021,6.350829,-2.289150,-0.062686,0.602514,-0.061832,89.679326,188.495635,1538.022037,944.346598,0
0.026041,-181.953941,108.839756,97.081061,4.737648,5.234126,-5.386862,-0.277791,-5.201057,5.519884,0.115955,-0.146705,0.597876,-0.035692,56.190417,188.495664,1540.028186,942.701448,0
0.027083,-185.730994,19.755170,145.264773,5.687688,6.324061,-3.847051,-2.706913,-6.178806,4.025861,2.471249,-0.179582,0.565736,-0.028224,5.544238,188.571047,1541.679568,942.325873,0
0.028125,-154.981475,-58.323712,173.788447,6.230568,6.299209,-1.811168,-4.456925,-6.380973,1.986268,4.271520,-0.201500,0.610876,-0.035692,-38.643931,188.495808,1543.942880,940.840947,0
0.029166,-77.308032,-112.107897,196.895455,6.671658,5.344184,1.030338,-6.087534,-5.388520,-0.787746,5.836972,-0.267254,0.612966,-0.061832,-66.048060,188.495857,1546.231586,940.211131,0
0.030208,-2.515583,-158.571054,176.927652,6.275808,3.782062,3.086064,-6.359924,-3.826326,-2.881895,6.189199,-0.256295,0.595590,-0.039427,-92.377740,188.495835,1547.891857,938.152194,0
0.031250,68.703977,-191.950592,128.214584,5.427558,1.414026,5.098136,-5.818875,-1.517955,-4.854341,5.644849,-0.227071,0.611856,-0.031958,-109.421909,188.646547,1550.278783,937.139903,0
0.032291,121.015590,-195.284921,45.881250,3.878088,-1.064068,6.133937,-4.244237,0.981555,-5.987448,4.260846,-0.234377,0.611268,-0.039427,-109.636799,188.495752,1550.176353,935.948095,0
0.033333,170.865879,-163.246364,-27.957765,2.419098,-3.425003,6.475235,-2.311388,3.334035,-6.402921,2.321820,-0.179582,0.602775,-0.058098,-86.191170,188.495718,1553.035844,934.219180,0
0.034375,181.164870,-107.178888,-97.303409,1.129758,-5.090084,5.510869,0.192362,5.094719,-5.542599,-0.069053,-0.132093,0.592846,-0.031958,-49.931310,188.495837,1554.272961,932.472460,0
0.035416,185.701870,-19.628577,-145.548675,0.191028,-6.204871,4.002807,2.610289,6.149659,-4.015002,-2.392327,-0.044421,0.597288,-0.017021,-1.750712,188.646504,1555.961831,931.440609,0
0.036458,155.133831,57.858341,-173.887690,-0.374472,-6.112564,1.915332,4.401347,6.223174,-2.004787,-4.189040,-0.040768,0.611660,-0.046895,42.844618,188.495832,1557.120015,929.828402,0
0.037500,75.702300,112.572756,-197.228599,-0.804252,-5.153989,-0.906331,5.942403,5.296885,0.760834,-5.694009,-0.000585,0.579258,-0.061832,70.508877,188.495664,1558.621520,929.646064,0
0.038541,1.862622,158.854699,-176.706819,-0.408402,-3.623819,-2.954120,6.248375,3.716313,2.880164,-6.081814,0.017680,0.626096,-0.024490,96.849866,188.495830,1559.618115,928.611150,0
0.039583,-68.086579,192.125509,-128.264584,0.462468,-1.241582,-4.914600,5.684938,1.382212,4.894576,-5.537464,-0.022503,0.612966,-0.058098,114.470846,188.646493,1561.565541,928.251537,0
0.040625,-121.067398,195.761861,-44.823296,2.034558,1.254264,-5.982150,4.143882,-1.201841,6.019290,-4.103652,-0.022503,0.604996,-0.061832,114.289886,188.495772,1562.464113,927.049233,0
0.041666,-170.804263,163.034692,28.732576,3.448308,3.625849,-6.327416,2.181182,-3.462427,6.355025,-2.221551,-0.084604,0.600816,-0.054364,90.380546,188.495774,1562.867065,926.380049,0
0.042708,-181.829174,108.271954,97.167235,4.726338,5.276729,-5.339239,-0.322567,-5.223111,5.528277,0.144417,-0.135746,0.596700,-0.035692,53.555187,188.495725,1563.110979,926.262727,0
0.043750,-186.082611,19.537714,145.510985,5.665068,6.331161,-3.807366,-2.792734,-6.267024,4.009074,2.538848,-0.179582,0.599117,-0.050629,5.148388,188.646523,1564.829880,926.084956,0
0.044791,-154.879392,-58.492845,173.862311,6.264498,6.292108,-1.731796,-4.509164,-6.344215,1.931711,4.275078,-0.201500,0.606238,-0.043161,-38.112361,188.495725,1564.669132,925.219923,0
0.045833,-76.389289,-111.938764,197.474054,6.728208,5.376137,1.097804,-6.147236,-5.373817,-0.838106,5.876109,-0.230724,0.609700,-0.028224,-65.539110,188.495651,1565.321414,924.826690,0
0.046875,-2.901228,-158.897238,176.816857,6.309738,3.750109,3.117813,-6.363655,-3.818975,-2.999403,6.210546,-0.212459,0.603625,-0.039427,-92.762280,188.495671,1566.888385,924.111796,0
0.047917,68.783375,-192.530475,127.660606,5.404938,1.357222,5.125917,-5.818875,-1.466495,-4.900505,5.655522,-0.223418,0.607675,-0.061832,-110.304089,188.646495,1567.711466,923.812203,0
0.048958,120.822767,-195.562782,45.561174,3.844158,-1.113772,6.177591,-4.262894,1.084476,-6.071382,4.257288,-0.216112,0.605323,-0.020755,-107.849819,188.571129,1569.529147,923.154925,0
0.050000,171.217497,-163.367173,-28.228599,2.430408,-3.464056,6.499047,-2.244223,3.407550,-6.436494,2.304030,-0.197847,0.603494,-0.054364,-85.648290,188.495712,1570.760308,923.020335,0
0.051041,181.403062,-106.623167,-97.291099,1.842288,-5.136237,5.502932,0.248332,5.168234,-5.500632,-0.150884,-0.121134,0.589972,-0.039427,-48.166950,188.495740,1571.733482,921.821479,0
0.052083,185.849322,-18.734590,-145.696402,0.213648,-6.261675,4.002807,2.707305,6.237877,-4.019199,-2.495505,-0.117481,0.607675,-0.069301,-1.682852,188.571149,1573.564405,921.786740,0
0.053125,154.861611,57.701290,-174.281629,-0.363162,-6.219072,1.891521,4.464780,6.278311,-2.004787,-4.242408,-0.037115,0.613358,-0.043161,42.923788,188.571015,1574.692485,922.112361,0
0.054167,75.055778,112.246571,-198.151895,-0.849492,-5.207243,-0.997608,6.073001,5.249101,0.848965,-5.761608,-0.007891,0.576449,-0.050629,72.069657,188.495671,1576.004254,920.959361,0
0.055208,1.420264,159.386259,-176.312879,-0.419712,-3.620268,-3.033492,6.308077,3.642798,3.010261,-6.110277,-0.018850,0.634785,-0.002084,97.765976,188.495794,1577.480685,919.764031,0
0.056250,-68.222689,192.959091,-128.042993,0.439848,-1.191878,-5.041595,5.703595,1.293994,4.928150,-5.576600,-0.011544,0.611072,-0.046895,115.307786,188.571189,1578.703958,919.380199,0
0.057292,-121.282906,195.604809,-44.466288,2.034558,1.382074,-6.033741,4.084180,-1.260653,6.019290,-4.064515,-0.044421,0.601142,-0.065566,114.708356,188.495846,1578.904162,918.570494,0
0.058333,-170.963058,163.880355,29.631250,3.482238,3.718157,-6.367102,2.110286,-3.613133,6.413779,-2.104142,-0.077298,0.598921,-0.035692,90.007316,188.494388,1581.513434,917.158747,0
0.059375,-181.715749,107.232996,97.376515,4.737648,5.383237,-5.311459,-0.449434,-5.333384,5.486310,0.286731,-0.117481,0.591931,0.001650,55.579677,188.495678,1582.999851,915.395294,0
0.060416,-186.865244,19.380662,145.818750,5.619828,6.483823,-3.791491,-2.889750,-6.369945,3.937730,2.681162,-0.179582,0.590494,-0.028224,5.453758,188.571172,1585.693294,914.091090,0
0.061470,-152.905797,-60.063363,174.797917,6.241878,6.295659,-1.592896,-4.677076,-6.355242,1.776434,4.460086,-0.219765,0.590364,-0.035692,-39.254671,188.495707,1587.719111,912.699623,0
0.062513,-73.247416,-112.119978,199.788448,6.773448,5.280279,1.316076,-6.274102,-5.344411,-1.043744,6.046885,-0.252642,0.608328,-0.054364,-66.330810,188.495740,1590.919245,911.661239,0
0.063543,-2.651693,-159.452960,175.881251,6.287118,3.711056,3.316242,-6.378581,-3.734433,-3.062353,6.246125,-0.238030,0.613097,-0.050629,-92.694420,188.495707,1591.602831,910.756891,0
0.064583,68.783375,-193.509028,127.291288,5.371008,1.268465,5.260848,-5.800218,-1.334168,-5.068372,5.641291,-0.197847,0.590233,-0.039427,-110.236229,188.571180,1594.247867,909.142323,0
0.065625,121.106330,-194.958737,44.847159,3.866778,-1.245132,6.225214,-4.184535,1.242533,-6.109152,4.150553,-0.205153,0.604605,-0.039427,-109.297499,188.495716,1595.211831,906.866718,0
0.066666,171.194812,-165.348441,-29.114962,2.396478,-3.606067,6.538732,-2.128550,3.558256,-6.453281,2.204411,-0.154011,0.607871,-0.035692,-86.722740,188.495727,1597.800674,905.247237,0
0.067708,181.119500,-106.007041,-97.414205,1.152378,-5.278248,5.479121,0.423707,5.296885,-5.475452,-0.236272,-0.121134,0.572465,-0.046895,-48.936030,188.495685,1599.368763,904.107302,0
0.068750,186.575242,-18.203030,-145.757955,0.224958,-6.293628,3.939310,2.845366,6.293014,-3.964642,-2.605798,-0.069992,0.610222,-0.043161,-1.377482,188.568287,1601.103257,903.081475,0
0.069792,154.113006,58.124121,-174.355493,-0.329232,-6.144516,1.764526,4.602841,6.259932,-1.891476,-4.345585,-0.044421,0.613815,-0.035692,42.776758,188.495416,1602.166995,901.479086,0
0.070833,74.295830,111.763335,-199.149054,-0.838182,-5.157539,-1.073011,6.136434,5.197640,0.958079,-5.879017,0.014027,0.609177,-0.061832,70.248747,188.495521,1604.207538,900.123327,0
0.071875,1.136702,159.531230,-175.832766,-0.397092,-3.506660,-3.116832,6.352853,3.558256,3.081605,-6.135182,0.043251,0.610745,-0.039427,97.279646,188.495360,1604.958128,898.968779,0
0.072917,-68.177319,193.732269,-127.587500,0.485088,-1.103121,-5.128904,5.655087,1.231506,5.028871,-5.562369,-0.015197,0.612705,-0.050629,115.092896,188.648572,1606.417934,898.201104,0
0.073958,-121.453044,195.254463,-44.392424,2.045868,1.435328,-6.085333,4.046867,-1.341519,6.128404,-4.025379,-0.004238,0.599248,-0.035692,113.894036,188.495787,1608.098809,897.414061,0
0.075000,-171.291991,164.049488,30.271402,3.504858,3.778511,-6.367102,2.002076,-3.708702,6.405386,-2.093468,-0.091910,0.601600,-0.054364,90.685916,188.495826,1609.116315,897.074004,0
0.076042,-181.704406,106.761841,97.462690,4.715028,5.457793,-5.315427,-0.531524,-5.395872,5.494703,0.375678,-0.117481,0.597615,-0.024490,52.786107,188.495647,1610.272763,896.310669,0
0.077083,-187.137464,19.344419,145.978788,5.642448,6.451871,-3.739900,-2.953183,-6.392000,3.895763,2.755877,-0.219765,0.601665,-0.028224,5.363278,188.571208,1611.281734,895.415594,0
0.078125,-153.813197,-58.927758,174.354735,6.264498,6.345363,-1.553210,-4.721853,-6.380973,1.805810,4.495664,-0.223418,0.586444,-0.054364,-38.270701,188.495816,1612.186665,895.230407,0
0.079166,-74.041391,-111.370962,199.456061,6.773448,5.361936,1.248610,-6.289028,-5.326032,-1.043744,5.993518,-0.270907,0.619499,-0.050629,-65.369460,188.495617,1611.558589,894.437677,0
0.080208,-2.753776,-159.646254,175.795076,6.253188,3.657802,3.320211,-6.423357,-3.738108,-3.146287,6.285261,-0.248989,0.615840,-0.076769,-93.203370,188.553466,1612.889838,894.217920,0
0.081250,68.454442,-194.004345,127.020455,5.348388,1.190359,5.284660,-5.796487,-1.234923,-5.076766,5.673311,-0.263601,0.567108,-0.058098,-110.903519,188.568448,1613.719401,893.431249,0
0.082291,120.981562,-195.200355,44.477841,3.821538,-1.301937,6.268869,-4.136027,1.271939,-6.138529,4.136322,-0.197847,0.605323,-0.031958,-107.476589,188.496185,1614.245959,893.176598,0
0.083334,171.603142,-164.104108,-29.545833,2.407788,-3.680623,6.574450,-2.068849,3.609716,-6.507838,2.158159,-0.179582,0.602841,-0.084238,-86.326890,188.495955,1614.946431,893.115681,0
0.084375,181.437090,-105.837908,-97.438826,1.152378,-5.317301,5.491026,0.453558,5.322616,-5.555189,-0.282524,-0.128440,0.594414,-0.031958,-47.624071,188.496071,1616.077720,893.568934,0
0.085416,186.847462,-17.598985,-145.647160,0.202338,-6.371734,3.871844,2.890142,6.359177,-3.918479,-2.705418,-0.077298,0.585726,-0.050629,-1.264382,188.571444,1617.627134,892.699433,0
0.086458,153.511854,58.208688,-174.872538,-0.374472,-6.190670,1.716903,4.655080,6.315068,-1.820132,-4.452321,-0.048074,0.612901,-0.050629,42.923788,188.496094,1619.476437,892.154937,0
0.087500,73.535883,111.582122,-199.986175,-0.906042,-5.153989,-1.203975,6.222255,5.252776,1.054602,-5.943058,0.010374,0.585856,-0.080503,71.911317,188.495911,1621.280337,892.096907,0
0.088542,0.819112,160.376893,-175.303410,-0.408402,-3.439204,-3.227952,6.371510,3.547228,3.157146,-6.167203,0.014027,0.605976,-0.054364,98.014796,188.496018,1622.305019,892.091728,0
0.089583,-68.460881,194.336314,-127.341288,0.507708,-1.028565,-5.208276,5.688670,1.121233,5.142181,-5.569484,-0.022503,0.610876,-0.069301,116.088176,188.496120,1624.269337,891.024813,0
0.090625,-121.487071,195.157815,-44.330871,2.057178,1.541836,-6.097238,3.968508,-1.455468,6.174568,-3.943548,-0.022503,0.605780,-0.054364,114.188096,188.496056,1625.415077,889.227274,0
0.091666,-171.337361,164.726018,31.256250,3.504858,3.945375,-6.418694,1.931180,-3.841029,6.468336,-1.961828,-0.080951,0.600424,-0.061832,90.448406,188.496004,1627.806046,887.775757,0
0.092708,-181.874544,105.469184,97.647349,4.748958,5.539449,-5.299553,-0.688242,-5.506144,5.532474,0.489529,-0.143052,0.598464,-0.058098,54.754047,188.496127,1629.643396,887.280474,0
0.093750,-187.727274,18.837021,146.261932,5.642448,6.561930,-3.680371,-3.091244,-6.502272,3.828616,2.891075,-0.161317,0.602971,-0.050629,5.385898,188.496134,1632.209607,886.199124,0
0.094791,-152.905797,-58.964000,175.093372,6.253188,6.331161,-1.442090,-4.874839,-6.373621,1.692500,4.595284,-0.223418,0.595002,-0.039427,-38.734411,188.496007,1633.503391,884.742343,0
0.095833,-72.714319,-110.923968,200.650190,6.784758,5.301581,1.411322,-6.322610,-5.289275,-1.199022,6.100253,-0.289172,0.604670,-0.080503,-65.754000,188.495993,1635.719956,883.246661,0
0.096875,-2.458871,-160.286542,175.019508,6.275808,3.579696,3.471017,-6.475596,-3.624160,-3.230221,6.271030,-0.252642,0.611072,-0.005818,-92.965860,188.496020,1636.160159,881.620246,0
0.097923,69.282445,-194.765442,125.998675,5.325768,1.058998,5.443403,-5.785293,-1.128326,-5.219453,5.651964,-0.256295,0.602906,-0.031958,-110.824349,188.495955,1638.000361,880.662278,0
0.098958,121.378550,-194.717119,43.579167,3.844158,-1.465250,6.292680,-4.094982,1.433672,-6.201479,4.061607,-0.241683,0.600620,-0.069301,-108.980819,188.496136,1639.422281,878.930129,0
0.100000,171.364949,-164.913528,-30.456818,2.385168,-3.822634,6.546670,-1.968102,3.760422,-6.512035,2.076328,-0.150358,0.605258,-0.017021,-87.243000,188.496044,1641.364103,877.425511,0
0.101041,181.108157,-104.980164,-97.451137,1.129758,-5.427360,5.407686,0.610275,5.399806,-5.450271,-0.424838,-0.106522,0.593042,-0.050629,-48.178260,188.496143,1642.059955,874.878367,0
0.102083,187.357875,-16.970778,-145.905682,0.213648,-6.424988,3.828190,3.009546,6.370204,-3.847135,-2.790806,-0.073645,0.606630,-0.054364,-0.959012,188.420564,1642.971643,873.743029,0
0.103125,152.808618,58.619438,-175.131061,-0.385782,-6.176469,1.609751,4.744633,6.289338,-1.736198,-4.487899,-0.026156,0.610418,-0.046895,42.731518,188.495959,1643.173225,872.707383,0
0.104166,73.150237,111.183452,-200.712501,-0.872112,-5.132687,-1.251598,6.222255,5.223370,1.163716,-6.010657,-0.000585,0.589123,-0.035692,70.169577,188.486837,1644.762491,871.434162,0
0.105208,0.683002,160.340650,-174.983334,-0.374472,-3.410802,-3.299387,6.382704,3.484741,3.278850,-6.199223,0.014027,0.630865,-0.039427,97.686806,188.473904,1646.196157,870.160144,0
0.106250,-68.608334,194.928278,-126.701137,0.485088,-0.943359,-5.224150,5.703595,1.062421,5.205132,-5.541022,-0.004238,0.610745,-0.017021,115.522676,188.494010,1646.949077,869.432570,0
0.107292,-121.645866,194.819550,-44.035417,2.023248,1.612842,-6.144861,3.961045,-1.514280,6.161978,-3.918644,-0.007891,0.600554,-0.043161,113.554736,188.436412,1646.996862,868.703427,0
0.108333,-171.496156,165.064284,31.650189,3.482238,3.980877,-6.430600,1.864015,-3.888814,6.434763,-1.862208,-0.084604,0.600032,-0.065566,90.832946,188.515669,1647.452668,867.192875,0
0.109375,-181.670379,105.118838,97.684281,4.737648,5.560751,-5.259867,-0.733018,-5.509820,5.427556,0.525107,-0.128440,0.598333,-0.050629,51.869997,188.496358,1646.859153,865.745982,0
0.110416,-187.897411,18.704132,146.397349,5.676378,6.600983,-3.656559,-3.173334,-6.528003,3.845403,2.919538,-0.190541,0.603167,-0.043161,5.442448,188.420215,1647.508933,865.944659,0
