1-Time,2-VGERA,3-VGERB,4-VGERC,5-VN,6-IGERAN,7-IGERBN,8-IGERCN,9-IGERAT,10-IGERBT,11-IGERCT,12-IN,13-IFD,14-IFAULT,15-VFAULT,16-Speed (rad/s),17-Active Power,18-Reactive Power,19-FAULT 
0.000000,-135.381634,186.701183,-19.057197,2.520888,3.267271,-4.093104,0.494603,-3.047067,4.252482,-0.577825,-0.102869,0.396283,-0.046895,63.835977,188.495890,1172.074057,12.259130,0
0.001042,-168.263543,140.020570,46.939962,3.731058,3.924073,-2.977932,-1.147200,-3.624160,3.110982,0.973396,-0.154011,0.394193,-0.043161,66.867057,188.721918,1171.261879,12.300341,0
0.002083,-194.419349,63.572609,99.617046,4.782888,4.374958,-1.656393,-2.721838,-4.179198,1.801614,2.606447,-0.183235,0.398504,-0.084238,62.433537,188.721956,1170.404101,12.098327,0
0.003125,-168.002666,-1.253522,158.400190,5.925198,3.689754,-0.271357,-3.322589,-3.532266,0.399918,3.175703,-0.190541,0.389489,-0.054364,42.075538,188.571143,1169.415505,12.218981,0
0.004167,-119.218571,-61.368100,187.120834,6.456768,2.798635,1.550223,-3.971847,-2.646411,-1.421446,3.865925,-0.194194,0.399941,-0.039427,17.125678,188.553594,1168.961593,12.174907,0
0.005208,-45.900648,-116.348294,186.628410,6.479388,1.311068,3.125750,-3.975579,-1.161408,-2.953239,3.837462,-0.190541,0.394585,-0.058098,-11.002291,188.710746,1167.964926,12.785975,0
0.006259,22.653425,-165.396765,157.809281,5.925198,-0.212001,4.300451,-3.509157,0.415489,-4.262607,3.446099,-0.208806,0.394977,-0.046895,-32.830591,188.721655,1167.913199,13.177517,0
0.007292,77.154140,-183.687253,94.151137,4.715028,-1.997791,4.502849,-1.979296,2.139416,-4.447262,1.987382,-0.175929,0.387987,-0.028224,-48.981270,188.589137,1167.292977,13.398273,0
0.008333,135.080290,-186.659156,18.416288,3.267348,-3.148081,4.236954,-0.606152,3.403874,-4.279394,0.638958,-0.124787,0.393670,-0.035692,-60.969870,188.501183,1166.842200,13.478102,0
0.009375,167.587897,-139.314093,-47.334659,2.023248,-3.811983,3.165436,1.039383,3.977291,-3.167270,-0.905147,-0.088257,0.392690,-0.028224,-62.960430,188.721599,1166.403565,14.296220,0
0.010417,194.027265,-62.117116,-99.667046,1.027968,-4.316123,1.843898,2.614021,4.550708,-1.916656,-2.531083,-0.066339,0.373811,-0.043161,-58.085820,188.721706,1166.609426,15.609297,0
0.011458,167.746692,2.576125,-158.499432,-0.069102,-3.648671,0.423145,3.263279,3.870694,-0.477190,-3.071876,-0.048074,0.382434,-0.046895,-38.519521,188.570801,1166.610997,16.029496,0
0.012500,118.508897,62.316195,-186.813826,-0.645912,-2.672344,-1.382561,3.927463,2.929702,1.331584,-3.826139,-0.007891,0.392690,-0.069301,-10.685611,188.495452,1166.649640,16.407179,0
0.013542,44.782644,116.837315,-186.961554,-0.611982,-1.198979,-2.997775,3.886418,1.477781,2.934721,-3.779887,-0.029809,0.369435,-0.031958,14.942848,188.721728,1167.056046,16.988402,0
0.014583,-22.671207,165.487115,-158.093182,-0.091722,0.295688,-4.156601,3.449848,-0.066034,4.227302,-3.416987,-0.044421,0.369761,-0.024490,37.856908,188.721722,1167.940664,16.881936,0
0.015625,-77.841129,184.550782,-92.822349,1.107138,2.092129,-4.414559,1.938643,-1.797312,4.424547,-1.855092,-0.069992,0.388575,-0.050629,53.634357,188.551278,1168.610361,17.166973,0
0.016676,-135.812649,185.855519,-16.459659,2.577438,3.288573,-4.112947,0.502065,-3.083825,4.185335,-0.545805,-0.106522,0.394389,-0.046895,64.718157,188.570157,1167.918315,17.035798,0
0.017709,-168.683216,139.005774,47.666288,3.787608,3.934724,-2.966026,-1.102424,-3.671945,3.094195,0.980511,-0.143052,0.393735,-0.043161,68.314737,188.721456,1168.256924,17.054467,0
0.018750,-194.396664,61.990011,99.850947,4.828128,4.453064,-1.684173,-2.714376,-4.230659,1.826794,2.617121,-0.183235,0.392690,-0.017021,62.795457,188.589047,1168.875110,17.713988,0
0.019791,-167.469568,-2.799878,158.831061,5.947818,3.746559,-0.271357,-3.393485,-3.572700,0.391525,3.221955,-0.175929,0.411308,-0.046895,43.466667,188.571699,1169.688478,18.099839,0
0.020833,-118.401911,-62.636595,186.628410,6.456768,2.841238,1.554191,-4.031549,-2.617005,-1.379479,3.905062,-0.172276,0.368063,-0.039427,17.363188,188.571138,1169.608049,18.703909,0
0.021875,-44.460150,-116.964420,186.886932,6.479388,1.321719,3.141625,-4.039012,-1.109947,-2.982616,3.865925,-0.212459,0.383871,0.001650,-10.482031,188.721835,1170.044375,18.449447,0
0.022917,22.778193,-165.179308,158.387879,5.970438,-0.194250,4.312357,-3.568859,0.393435,-4.195460,3.535045,-0.190541,0.384263,-0.028224,-31.914481,188.721951,1170.217829,19.558417,0
0.023958,77.732608,-184.460431,93.338637,4.726338,-1.997791,4.570315,-2.027803,2.117362,-4.480835,1.994498,-0.124787,0.397198,-0.002084,-49.264020,188.571147,1170.709907,20.164524,0
0.025000,135.341168,-186.139677,18.170076,3.357828,-3.140981,4.264734,-0.632271,3.356089,-4.312968,0.656747,-0.117481,0.398700,-0.046895,-60.404370,188.571149,1170.588310,21.013061,0
0.026042,168.404557,-138.867099,-47.223864,2.068488,-3.847486,3.185279,1.039383,3.995670,-3.230221,-0.880242,-0.084604,0.402489,-0.005818,-64.012260,188.708474,1171.351160,21.856726,0
0.027083,193.789073,-62.201683,-100.233334,1.050588,-4.316123,1.855804,2.591632,4.565411,-1.908263,-2.506178,-0.069992,0.400464,-0.043161,-57.723900,188.722319,1171.336563,22.114886,0
0.028134,166.737209,3.264736,-160.259849,-0.114342,-3.666422,0.439019,3.267010,3.885397,-0.514961,-3.118128,-0.029809,0.407715,-0.050629,-37.275421,188.571429,1172.085904,22.886423,0
0.029167,118.667692,62.376600,-186.629167,-0.578052,-2.771752,-1.366687,3.927463,2.999542,1.323191,-3.815466,-0.022503,0.399941,-0.028224,-9.464131,188.586226,1172.428034,23.587353,0
0.030208,45.474536,117.248066,-186.616857,-0.600672,-1.223831,-2.962057,3.923732,1.507187,2.947311,-3.787003,-0.018850,0.379233,-0.054364,15.519658,188.721788,1172.760692,23.756518,0
0.031250,-21.797834,165.740814,-158.154735,-0.125652,0.295688,-4.140727,3.434922,-0.058682,4.176942,-3.413429,-0.044421,0.400791,-0.035692,36.952108,188.721900,1172.249290,23.843704,0
0.032292,-77.761732,184.127950,-93.881061,1.107138,2.085029,-4.382810,1.938643,-1.782609,4.378383,-1.922691,-0.040768,0.399941,-0.058098,54.584397,188.571042,1172.057543,24.437125,0
0.033333,-136.186952,186.193785,-18.835606,2.520888,3.245970,-4.105009,0.528185,-3.058095,4.214712,-0.584941,-0.099216,0.397655,-0.035692,63.937767,188.571093,1172.471101,24.653697,0
0.034375,-169.000806,139.416524,47.333902,3.787608,3.924073,-3.029523,-1.106155,-3.627836,3.140359,0.948491,-0.168623,0.396348,-0.050629,67.149807,188.722007,1172.430897,25.407019,0
0.035417,-194.408007,63.536366,100.614205,4.760268,4.421112,-1.704016,-2.680793,-4.193901,1.860367,2.613563,-0.161317,0.376032,-0.035692,62.229957,188.797490,1172.448529,25.522431,0
0.036458,-167.719103,-1.241441,159.360417,5.879958,3.696855,-0.279295,-3.371097,-3.587403,0.492246,3.161472,-0.201500,0.408107,-0.046895,41.973748,188.556197,1172.221943,26.735136,0
0.037500,-119.207228,-62.020469,186.837690,6.434148,2.819936,1.502600,-4.042743,-2.653762,-1.383676,3.905062,-0.212459,0.402685,-0.043161,17.125678,188.646243,1172.645782,26.698632,0
0.038550,-45.129358,-118.281239,186.209849,6.456768,1.332370,3.197185,-4.039012,-1.165083,-2.949042,3.901504,-0.197847,0.401052,-0.020755,-11.635651,188.721603,1173.110837,27.832792,0
0.039583,21.836765,-165.795434,158.030872,5.936508,-0.208451,4.252828,-3.542740,0.382408,-4.250017,3.538603,-0.175929,0.388444,-0.031958,-32.683561,188.587524,1173.774709,27.605766,0
0.040625,77.812005,-183.892629,93.831061,4.715028,-2.008442,4.534598,-1.997953,2.058550,-4.464049,2.005171,-0.179582,0.399092,-0.028224,-49.388430,188.571424,1173.248820,28.221538,0
0.041667,135.896950,-186.030949,18.588636,3.256038,-3.176484,4.272671,-0.628540,3.403874,-4.250017,0.685210,-0.139399,0.399157,-0.054364,-60.981180,188.646750,1173.137875,27.945362,0
0.042708,168.654092,-138.770452,-47.507008,2.068488,-3.833285,3.153530,1.039383,4.025076,-3.200844,-0.887358,-0.106522,0.400007,-0.024490,-63.231870,188.722121,1173.291799,27.637506,0
0.043750,193.947868,-62.092954,-100.528788,1.005348,-4.351626,1.903427,2.640140,4.605844,-1.941836,-2.548873,-0.051727,0.394258,-0.031958,-57.904860,188.646681,1174.282034,27.712084,0
0.044792,167.134197,2.660691,-159.558144,-0.114342,-3.673523,0.411239,3.270742,3.907452,-0.514961,-3.111012,-0.080951,0.416860,-0.013287,-38.180221,188.571071,1174.392048,27.566814,0
0.045833,118.599637,62.992726,-186.653788,-0.645912,-2.739799,-1.410341,3.938657,3.006893,1.293814,-3.879507,-0.040768,0.399876,-0.046895,-10.549891,188.721849,1175.118495,28.012941,0
0.046875,44.782644,117.815868,-186.715341,-0.623292,-1.262884,-3.053335,3.990896,1.510863,2.955704,-3.822582,-0.033462,0.402685,-0.031958,15.214288,188.780866,1175.672117,28.369923,0
0.047917,-23.181619,165.559601,-158.080872,-0.114342,0.292138,-4.152632,3.487161,-0.055007,4.193729,-3.427661,-0.022503,0.394389,-0.046895,38.071798,188.646265,1175.942876,28.786358,0
0.048967,-79.009407,185.843438,-89.978599,1.163688,2.163135,-4.450276,1.871478,-1.848773,4.449727,-1.894229,-0.073645,0.403534,-0.024490,54.075447,188.571458,1177.061808,28.960450,0
0.050000,-135.926074,186.145461,-17.235227,2.543508,3.295674,-4.144695,0.531916,-3.094852,4.231499,-0.563594,-0.088257,0.395826,-0.054364,64.729467,188.739075,1177.403229,28.863700,0
0.051042,-169.454506,138.123868,48.035606,3.776298,4.009280,-3.029523,-1.206902,-3.697675,3.094195,1.005416,-0.124787,0.393670,-0.050629,68.450457,188.722608,1177.827504,28.056875,0
0.052083,-194.419349,61.446370,100.651137,4.794198,4.460165,-1.700048,-2.721838,-4.263741,1.839384,2.638468,-0.212459,0.393997,-0.043161,62.569257,188.646866,1178.452707,28.203639,0
0.053138,-166.516798,-5.083168,161.194697,5.970438,3.782062,-0.188017,-3.475575,-3.546969,0.383132,3.250418,-0.179582,0.381846,-0.020755,42.358288,188.571453,1178.941482,27.642520,0
0.054177,-117.256318,-64.847401,185.889773,6.456768,2.795084,1.605783,-4.091251,-2.587599,-1.459217,3.940640,-0.194194,0.366691,-0.017021,16.367908,188.722335,1178.865198,27.285553,0
0.055208,-43.688860,-117.894650,186.985417,6.502008,1.321719,3.189248,-4.117371,-1.106271,-3.032976,3.890830,-0.227071,0.383153,-0.046895,-11.171941,188.722445,1179.208900,26.146123,0
0.056250,24.196005,-165.203470,158.030872,5.947818,-0.208451,4.344106,-3.572591,0.386083,-4.262607,3.535045,-0.197847,0.391776,-0.043161,-32.423431,188.646980,1179.207067,26.574001,0
0.057292,78.367788,-185.366499,91.504356,4.669788,-2.040395,4.621906,-2.053923,2.139416,-4.535392,2.001613,-0.161317,0.400203,-0.035692,-49.490220,188.703397,1180.619994,26.353032,0
0.058333,135.590703,-185.849735,16.988258,3.278658,-3.222637,4.260765,-0.606152,3.440632,-4.325558,0.642516,-0.168623,0.396218,-0.017021,-60.099000,188.719630,1181.516551,26.263379,0
0.059375,169.187189,-137.586524,-48.011743,2.057178,-3.897190,3.244808,1.076696,4.054482,-3.213434,-0.926494,-0.110175,0.395761,-0.065566,-64.034880,188.722351,1181.973788,26.207946,0
0.060417,193.811758,-60.413709,-100.676515,1.061898,-4.372927,1.887552,2.669991,4.664656,-1.891476,-2.541757,-0.077298,0.379495,-0.054364,-57.282810,188.587678,1182.141867,26.262694,0
0.061458,166.759894,4.339937,-159.779735,-0.114342,-3.716126,0.462831,3.337906,3.951561,-0.523354,-3.189285,-0.044421,0.406800,-0.043161,-37.207561,188.574735,1183.311554,26.671578,0
0.062510,117.057057,64.841104,-186.050569,-0.578052,-2.746900,-1.414310,3.975971,2.995866,1.339978,-3.854602,-0.022503,0.368651,-0.065566,-8.389681,188.721924,1182.888290,26.898962,0
0.063545,42.684281,118.673612,-186.850758,-0.634602,-1.273534,-3.013649,4.028210,1.529242,2.972491,-3.833255,-0.007891,0.380866,-0.020755,16.571488,188.721985,1183.222633,27.695444,0
0.064583,-24.134389,165.547520,-157.933144,-0.080412,0.281487,-4.196287,3.494624,-0.029276,4.214712,-3.459681,-0.069992,0.382565,-0.035692,37.404508,188.571051,1183.702608,28.391469,0
0.065625,-78.669132,185.227312,-91.603599,1.174998,2.138283,-4.454245,1.953568,-1.848773,4.458120,-1.944039,-0.077298,0.402750,-0.065566,54.889767,188.571024,1184.095257,28.452209,0
0.066666,-136.232322,186.000490,-17.284470,2.600058,3.285023,-4.192318,0.558036,-3.102204,4.260876,-0.584941,-0.080951,0.402032,-0.046895,63.688947,188.721896,1184.537369,28.825620,0
0.067708,-169.386451,138.027220,48.035606,3.798918,3.963126,-3.100958,-1.121081,-3.719730,3.152949,1.019648,-0.154011,0.403469,-0.058098,67.489107,188.778367,1185.271091,29.073584,0
0.068750,-194.362637,61.591341,101.069697,4.850748,4.438863,-1.747671,-2.721838,-4.304174,1.885548,2.649142,-0.175929,0.403012,-0.043161,61.901967,188.570180,1186.084979,29.555862,0
0.069791,-167.140636,-2.848201,160.037500,5.913888,3.796263,-0.315012,-3.404679,-3.635187,0.433492,3.204166,-0.168623,0.396610,-0.031958,41.690998,188.570613,1186.460547,30.036543,0
0.070833,-118.186403,-63.071508,186.579167,6.434148,2.862540,1.562128,-4.083788,-2.741980,-1.383676,3.951314,-0.186888,0.396675,-0.065566,17.057818,188.739936,1187.564042,31.562154,0
0.071875,-44.641630,-117.979216,186.468372,6.468078,1.371423,3.169405,-4.121102,-1.238598,-3.020386,3.937082,-0.197847,0.407323,-0.035692,-11.183251,188.797536,1188.405396,33.057654,0
0.072916,23.141153,-165.735030,158.117046,5.970438,-0.180049,4.300451,-3.580053,0.308893,-4.271001,3.567066,-0.157664,0.407454,-0.024490,-32.807971,188.571094,1188.845172,33.893973,0
0.073969,79.433983,-185.596036,90.679546,4.635858,-2.051045,4.574283,-2.031535,2.157795,-4.535392,2.022961,-0.157664,0.404318,-0.046895,-50.180130,188.571056,1189.155051,34.362314,0
0.075000,136.350650,-185.499389,18.342424,3.278658,-3.148081,4.312357,-0.673316,3.396523,-4.329754,0.727904,-0.150358,0.403404,-0.031958,-60.981180,188.721829,1189.066185,35.524405,0
0.076042,169.448067,-137.936870,-47.556250,2.079798,-3.907841,3.217028,1.046845,4.006697,-3.217631,-0.894474,-0.059033,0.406866,-0.035692,-63.480690,188.797182,1188.598052,35.928624,0
0.077083,193.811758,-61.923822,-101.304356,0.982728,-4.337425,1.931207,2.621483,4.624223,-1.958623,-2.552430,-0.069992,0.406278,-0.017021,-57.723900,188.570959,1188.802885,36.239412,0
0.078125,166.657812,2.684853,-160.407576,-0.148272,-3.726777,0.482674,3.345369,3.958912,-0.544337,-3.153706,-0.037115,0.406735,-0.069301,-37.976641,188.633902,1188.663876,36.363766,0
0.079167,118.735747,63.149777,-186.284470,-0.600672,-2.775302,-1.398435,3.998359,3.014245,1.335781,-3.897296,-0.040768,0.404449,-0.028224,-10.629061,188.722233,1189.480037,35.719779,0
0.080208,45.122919,118.564884,-186.542993,-0.634602,-1.273534,-3.041429,4.024479,1.547620,2.968294,-3.843929,-0.026156,0.408564,-0.058098,15.248218,188.722273,1189.748864,35.363070,0
0.081250,-23.295044,165.511277,-158.068561,-0.125652,0.285038,-4.204224,3.449848,-0.062358,4.239892,-3.495260,-0.051727,0.390012,-0.039427,38.173588,188.584595,1190.389875,34.866727,0
0.082292,-78.839269,185.384364,-91.406629,1.129758,2.113431,-4.478056,1.916255,-1.812015,4.516874,-1.929807,-0.048074,0.398831,-0.020755,54.018897,188.495729,1190.823945,35.166878,0
0.083333,-136.640652,185.553497,-17.075189,2.577438,3.292123,-4.128821,0.520722,-3.109555,4.273466,-0.574268,-0.088257,0.398700,-0.043161,64.786017,188.721969,1190.960826,35.207088,0
0.084382,-171.121853,136.287570,48.540341,3.787608,4.009280,-3.037460,-1.188245,-3.741784,3.131965,1.069458,-0.143052,0.399223,-0.043161,68.767137,188.721916,1191.273227,34.999376,0
0.085416,-194.351294,61.373884,101.389773,4.794198,4.460165,-1.727828,-2.740495,-4.274768,1.877154,2.642026,-0.186888,0.386942,-0.039427,62.444847,188.571089,1190.864539,35.066514,0
0.086458,-166.925128,-3.295195,160.653031,5.970438,3.778511,-0.279295,-3.486769,-3.576375,0.467065,3.232628,-0.175929,0.394977,-0.069301,42.765448,188.495546,1190.634420,35.198848,0
0.087500,-118.311171,-63.711796,186.123675,6.434148,2.823487,1.546254,-4.109908,-2.672141,-1.429840,3.972661,-0.223418,0.401640,-0.069301,16.763758,188.721878,1190.529818,34.175917,0
0.088541,-43.688860,-118.534938,186.751516,6.456768,1.318169,3.248776,-4.091251,-1.172435,-3.032976,3.958429,-0.208806,0.400529,-0.002084,-11.330281,188.706320,1190.739769,33.747626,0
0.089583,24.377485,-165.070580,157.895455,5.936508,-0.201350,4.344106,-3.512889,0.393435,-4.308771,3.492351,-0.190541,0.405167,-0.024490,-32.570461,188.570611,1190.335765,32.359133,0
0.090625,78.832830,-185.680602,90.765720,4.647168,-2.090098,4.645718,-1.986758,2.172498,-4.506016,2.019403,-0.154011,0.406278,-0.028224,-49.739040,188.495378,1190.018622,32.019878,0
0.091666,136.225883,-185.100719,16.655871,3.233418,-3.229738,4.260765,-0.613614,3.459010,-4.342344,0.642516,-0.154011,0.398374,-0.046895,-60.008520,188.737301,1190.368789,31.056770,0
0.092708,169.935794,-136.837508,-48.270265,2.068488,-3.932693,3.169405,1.087890,4.050806,-3.209237,-0.962073,-0.073645,0.396675,-0.039427,-64.091430,188.646536,1190.914623,30.494115,0
0.093750,193.698333,-59.954634,-101.390531,1.027968,-4.362277,1.883584,2.677454,4.620547,-1.933443,-2.552430,-0.069992,0.396218,-0.035692,-57.022680,188.571067,1190.493662,30.744116,0
0.094800,165.988604,6.055425,-161.429357,-0.170892,-3.698375,0.383459,3.371489,3.944209,-0.468797,-3.207074,-0.022503,0.395891,-0.013287,-36.528961,188.495788,1190.868680,30.639304,0
0.095833,117.204509,64.478677,-186.173675,-0.578052,-2.732699,-1.438121,3.938657,2.999542,1.348371,-3.875949,-0.044421,0.382630,-0.013287,-8.310511,188.696679,1190.391265,31.070100,0
0.096875,42.638911,118.721936,-186.936932,-0.668532,-1.216730,-3.025555,3.990896,1.503511,2.997671,-3.865276,-0.059033,0.373550,-0.084238,16.910788,188.629454,1190.635841,31.045157,0
0.097917,-25.087159,165.475034,-157.637690,-0.114342,0.281487,-4.168507,3.453579,-0.080737,4.223106,-3.420545,-0.048074,0.394781,-0.024490,37.800358,188.571100,1189.714332,30.924916,0
0.098958,-79.258942,185.722629,-90.101705,1.186308,2.138283,-4.470119,1.912523,-1.852449,4.458120,-1.887113,-0.022503,0.394389,-0.020755,55.070727,188.522648,1188.978312,30.483330,0
0.100000,-136.674679,185.468930,-15.782576,2.577438,3.295674,-4.160570,0.524454,-3.105879,4.239892,-0.606288,-0.132093,0.396414,-0.031958,63.406197,188.665744,1188.574937,31.075789,0
0.101042,-169.953576,136.903696,48.885038,3.821538,3.970226,-3.025555,-1.162126,-3.716054,3.123572,1.030321,-0.139399,0.395107,-0.031958,67.477797,188.646549,1187.961072,31.408702,0
0.102083,-194.271897,59.827529,101.635985,4.805508,4.414011,-1.727828,-2.718107,-4.238010,1.822597,2.610005,-0.161317,0.398047,-0.017021,61.404327,188.549701,1186.889998,31.534007,0
0.103125,-166.584853,-4.805308,160.419129,5.959128,3.796263,-0.259452,-3.415873,-3.613133,0.437689,3.214839,-0.179582,0.414574,-0.020755,41.204668,188.704551,1186.920599,31.935964,0
0.104167,-116.836646,-64.448731,186.394508,6.456768,2.844788,1.558160,-4.057669,-2.628032,-1.404660,3.908619,-0.205153,0.379103,-0.035692,16.390528,188.715777,1185.625150,32.423692,0
0.105216,-41.397675,-119.791352,186.308334,6.479388,1.328819,3.205122,-4.106177,-1.132002,-3.053960,3.937082,-0.205153,0.362641,-0.061832,-12.427351,188.550590,1185.352167,32.616737,0
0.106250,25.160118,-165.505493,157.661554,5.981748,-0.151647,4.308388,-3.516620,0.327271,-4.262607,3.499467,-0.197847,0.401574,-0.020755,-33.113341,188.564493,1184.931147,33.929744,0
0.107292,79.524723,-185.378580,90.778031,4.726338,-2.047495,4.594126,-2.020341,2.106334,-4.489229,2.015845,-0.190541,0.399027,-0.076769,-49.976550,188.570836,1184.355511,34.722592,0
0.108333,136.430048,-185.088638,16.680492,3.335208,-3.137431,4.280608,-0.669585,3.403874,-4.296181,0.674537,-0.128440,0.400137,-0.043161,-60.845460,188.664045,1183.461262,35.328057,0
0.109375,169.708944,-136.535485,-48.393371,2.091108,-3.858137,3.201153,1.054308,4.032427,-3.209237,-0.922937,-0.091910,0.400333,-0.009553,-63.480690,188.582281,1183.030775,35.900287,0
0.110416,193.584908,-60.135848,-101.919887,1.050588,-4.397779,1.943112,2.636409,4.613196,-1.912459,-2.509736,-0.051727,0.409021,-0.058098,-57.497700,188.571304,1182.619774,36.132603,0
0.111458,166.011289,4.412422,-161.047728,-0.114342,-3.673523,0.482674,3.289399,3.977291,-0.552731,-3.143033,-0.044421,0.397590,-0.035692,-37.637341,188.571342,1182.270408,37.148927,0
