1-Time,2-VGERA,3-VGERB,4-VGERC,5-VN,6-IGERAN,7-IGERBN,8-IGERCN,9-IGERAT,10-IGERBT,11-IGERCT,12-IN,13-IFD,14-IFAULT,15-VFAULT,16-Speed (rad/s),17-Active Power,18-Reactive Power,19-FAULT 
0.000000,-151.090997,179.078132,-1.933144,2.882808,0.860183,-4.803480,3.558057,-0.782805,4.798052,-3.463239,-0.029809,0.554892,-0.005818,-61.795500,188.721820,995.890184,998.046297,0
0.001053,-169.647328,137.338609,76.054546,4.364418,2.589168,-4.910632,1.830433,-2.466299,4.953330,-1.901344,-0.080951,0.557440,-0.046895,-71.635200,188.571056,995.951298,997.668618,0
0.002084,-188.918236,56.154934,126.552652,5.359698,4.197444,-4.351062,-0.195701,-4.098332,4.470710,0.066145,-0.132093,0.552279,-0.035692,-78.862290,188.646576,995.074617,998.565010,0
0.003125,-160.448560,-18.722509,167.116099,6.128778,4.861346,-3.204141,-1.826310,-4.782021,3.396357,1.645829,-0.168623,0.531245,-0.039427,-68.954730,188.721857,994.292715,997.741111,0
0.004167,-111.324191,-89.879034,185.028031,6.445458,4.950103,-1.239692,-3.598710,-4.881267,1.453288,3.467446,-0.212459,0.538626,-0.024490,-48.008610,188.721882,992.997634,997.860602,0
0.005209,-32.822745,-140.099352,181.494887,6.354978,4.208095,0.605700,-4.572598,-4.204929,-0.405847,4.399602,-0.223418,0.555611,-0.020755,-14.350051,188.571060,992.098366,998.191794,0
0.006250,42.536829,-177.441426,152.195644,5.800788,3.072006,2.506651,-5.143497,-3.080149,-2.327932,4.979531,-0.281866,0.567043,-0.020755,20.009728,188.721909,991.988840,998.442897,0
0.007292,110.206187,-177.767610,90.888826,4.647168,1.186808,3.978996,-4.553941,-1.198165,-3.830348,4.520569,-0.230724,0.561555,-0.046895,49.607997,188.721931,992.570984,998.064349,0
0.008334,150.971133,-178.927377,1.169129,3.029838,-0.723241,4.990985,-3.636024,0.764686,-4.862734,3.531488,-0.208806,0.553716,-0.031958,67.149807,188.721886,992.141022,997.666912,0
0.009375,169.005709,-137.634847,-75.735228,1.559538,-2.427375,5.014796,-1.975564,2.404070,-4.971848,2.044308,-0.157664,0.554304,-0.043161,75.903747,188.571009,991.428648,997.859057,0
0.010417,188.809715,-54.928978,-126.848864,0.552948,-4.096006,4.490943,0.091615,4.135348,-4.497622,0.005661,-0.135746,0.552475,-0.031958,84.465417,188.721831,991.308724,997.931076,0
0.011459,159.716201,18.861183,-167.953978,-0.250062,-4.770559,3.387677,1.767000,4.804335,-3.423269,-1.588254,-0.077298,0.557113,-0.069301,72.205377,188.797264,991.406112,997.650924,0
0.012500,110.988819,90.754643,-184.770266,-0.589362,-4.820262,1.375605,3.602834,4.918283,-1.446626,-3.377851,-0.059033,0.518572,-0.046895,52.322397,188.646556,991.336310,997.829387,0
0.013542,31.239698,140.926637,-181.298675,-0.487572,-4.071154,-0.509472,4.531945,4.153727,0.416705,-4.331354,-0.051727,0.547772,-0.035692,19.772218,188.570988,991.300343,997.855521,0
0.014584,-44.142560,177.084783,-152.417993,0.043998,-2.888911,-2.338990,5.050605,2.995866,2.372364,-4.889936,-0.029809,0.563776,-0.017021,-16.498951,188.721862,992.922900,997.996089,0
0.015625,-110.689011,178.280793,-89.781629,1.242858,-0.982412,-3.843083,4.505825,1.139612,3.837010,-4.359817,-0.048074,0.560902,-0.028224,-45.124561,188.797237,994.533897,997.772490,0
0.016667,-151.487985,178.884838,-0.505114,2.905428,0.959591,-4.819354,3.509549,-0.874699,4.881986,-3.409871,-0.037115,0.552932,-0.043161,-63.695580,188.571044,995.939848,997.384314,0
0.017709,-169.828808,136.662078,76.350000,4.387038,2.592718,-4.866977,1.830433,-2.503056,4.932347,-1.844419,-0.110175,0.552149,-0.024490,-71.035770,188.571046,996.208446,996.617041,0
0.018750,-189.542074,53.932048,126.749622,5.337078,4.286201,-4.315344,-0.229283,-4.193901,4.399367,0.172880,-0.146705,0.552410,-0.002084,-79.348620,188.721951,997.427711,995.579516,0
0.019792,-159.405050,-18.698347,168.544129,6.094848,4.882648,-3.140644,-1.956907,-4.866564,3.358587,1.741891,-0.183235,0.557897,-0.031958,-69.554160,188.797239,999.173159,995.507296,0
0.020834,-111.630438,-90.507241,184.658713,6.456768,4.957204,-1.152383,-3.759159,-4.866564,1.348371,3.563508,-0.230724,0.542089,-0.076769,-48.370530,188.571129,1000.746204,994.287426,0
0.021875,-30.508875,-141.234957,181.211743,6.456768,4.137090,0.760474,-4.650957,-4.113035,-0.535944,4.463643,-0.234377,0.532355,-0.058098,-14.870311,188.646476,1001.772177,993.178019,0
0.022918,45.780784,-176.583682,152.577273,5.868648,3.004551,2.586023,-5.147229,-3.032364,-2.390882,5.004436,-0.259948,0.566455,-0.031958,21.615748,188.721887,1002.211732,993.171989,0
0.023958,111.056874,-178.178361,89.177652,4.601928,1.126454,4.125833,-4.583792,-1.128326,-3.872315,4.492106,-0.248989,0.563646,-0.050629,49.596687,188.797204,1002.578551,992.755572,0
0.025000,151.583628,-178.468303,0.935227,2.950668,-0.858152,5.042576,-3.572591,0.860255,-4.908898,3.524372,-0.190541,0.558028,-0.031958,67.975437,188.571207,1003.839731,992.495767,0
0.026042,169.493437,-135.677741,-76.584659,1.491678,-2.505481,5.014796,-1.859892,2.506991,-4.963455,1.937572,-0.190541,0.548686,-0.050629,76.276977,188.571172,1004.755018,991.409783,0
0.027083,189.320128,-52.065804,-126.947349,0.530328,-4.145710,4.494912,0.162511,4.238269,-4.438868,-0.093958,-0.124787,0.530983,-0.017021,84.804717,188.721942,1005.851182,990.650331,0
0.028125,158.672691,19.900141,-168.754167,-0.182202,-4.774109,3.336085,1.864015,4.826389,-3.372908,-1.655853,-0.095563,0.552867,-0.050629,74.535237,188.797364,1006.411032,990.256358,0
0.029167,111.181642,90.863371,-184.634849,-0.623292,-4.791860,1.359731,3.614028,4.903580,-1.379479,-3.452566,-0.011544,0.559530,-0.058098,53.668287,188.571060,1007.593890,989.353277,0
0.030208,30.377668,141.748139,-181.015531,-0.555432,-4.014349,-0.553127,4.572990,4.146376,0.471262,-4.313565,-0.040768,0.528109,-0.017021,18.211438,188.721884,1007.585408,989.140691,0
0.031250,-46.921473,176.710275,-152.319508,-0.001242,-2.864059,-2.390581,5.043143,2.977487,2.397544,-4.872146,-0.000585,0.551887,-0.046895,-17.437681,188.721905,1007.165545,989.292834,0
0.032292,-111.868631,178.449925,-88.144318,1.299408,-0.954009,-3.898643,4.446123,1.066097,3.853797,-4.327796,-0.059033,0.563384,-0.054364,-44.298931,188.797322,1007.186045,988.829615,0
0.033334,-152.259275,178.449925,-0.492803,2.894118,0.959591,-4.870946,3.468504,-0.874699,4.902970,-3.392082,-0.084604,0.555219,-0.054364,-62.519340,188.571094,1007.304433,988.928209,0
0.034375,-170.044316,135.598959,76.867046,4.353108,2.663724,-4.803480,1.759537,-2.510408,4.911363,-1.808840,-0.073645,0.552736,-0.017021,-71.725680,188.646505,1007.014058,988.555804,0
0.035417,-189.882349,51.310491,127.192803,5.371008,4.272000,-4.303439,-0.262866,-4.182874,4.399367,0.201343,-0.135746,0.540455,-0.039427,-78.828360,188.721880,1006.475353,988.862824,0
0.036458,-158.440938,-20.776263,168.864205,6.140088,4.871997,-3.108895,-1.953176,-4.855536,3.325013,1.777469,-0.164970,0.538496,-0.043161,-68.468400,188.797268,1006.116452,988.740935,0
0.037500,-110.938546,-91.135448,184.720266,6.422838,4.946553,-1.160320,-3.774085,-4.895970,1.344174,3.574182,-0.227071,0.556068,-0.069301,-47.748481,188.571122,1006.198797,989.217729,0
0.038542,-31.007945,-141.790678,180.633144,6.343668,4.140640,0.784286,-4.658419,-4.157144,-0.535944,4.460086,-0.230724,0.559988,-0.024490,-12.834511,188.646540,1006.241228,989.735976,0
0.039583,47.425446,-176.438711,152.355682,5.879958,2.990350,2.578086,-5.173348,-2.925768,-2.437046,4.979531,-0.238030,0.543852,-0.058098,21.955048,188.721862,1006.412899,988.521088,0
0.040625,112.259179,-178.528707,87.269508,4.624548,1.048347,4.098053,-4.527821,-1.062162,-3.914282,4.428065,-0.219765,0.560902,-0.050629,50.207427,188.797273,1006.492520,987.880835,0
0.041667,152.003301,-178.214604,0.098106,2.973288,-0.854602,5.062419,-3.572591,0.904364,-4.963455,3.510141,-0.216112,0.561425,-0.043161,67.896267,188.571178,1007.262153,988.007770,0
0.042709,170.185329,-134.832077,-76.560038,1.491678,-2.576487,4.998922,-1.774070,2.565803,-4.976045,1.894878,-0.175929,0.555023,-0.031958,76.412697,188.721779,1008.064480,987.716246,0
0.043750,189.649060,-50.688581,-127.328978,0.541638,-4.177662,4.479037,0.240869,4.227242,-4.405295,-0.147326,-0.113828,0.540129,-0.024490,84.397557,188.744421,1007.950113,987.218994,0
0.044792,157.606496,22.280079,-169.345076,-0.250062,-4.802511,3.292431,1.908792,4.848444,-3.322548,-1.677200,-0.099216,0.561098,-0.076769,71.628567,188.587148,1007.714798,987.336880,0
0.045833,110.081419,92.433889,-184.351705,-0.532812,-4.845114,1.252579,3.696118,4.896229,-1.337512,-3.505933,-0.037115,0.558812,-0.028224,52.299777,188.571147,1007.996491,987.268613,0
0.046875,30.536463,142.545479,-180.350758,-0.498882,-4.017900,-0.656310,4.606572,4.124321,0.601360,-4.381164,-0.055380,0.559596,-0.024490,18.810868,188.722016,1009.773727,986.444473,0
0.047917,-48.010353,176.045825,-152.738069,0.021378,-2.810805,-2.477890,5.020754,2.933378,2.447904,-4.882820,-0.015197,0.550842,-0.069301,-18.387721,188.721967,1010.376349,985.936154,0
0.048958,-112.639921,179.633854,-85.460606,1.389888,-0.847501,-3.962140,4.416272,0.992582,3.895763,-4.327796,-0.015197,0.554108,-0.050629,-45.656131,188.646484,1010.853292,986.053518,0
0.050000,-152.123165,178.232469,1.415341,2.984598,0.998644,-4.914600,3.457310,-0.948214,4.919757,-3.399198,-0.062686,0.555088,-0.028224,-64.362870,188.571208,1011.278303,986.112609,0
0.051042,-171.496156,133.919713,76.805493,4.364418,2.727629,-4.866977,1.658790,-2.613329,4.928150,-1.759031,-0.099216,0.556591,-0.039427,-71.589960,188.721947,1012.523281,985.907151,0
0.052083,-190.165912,50.948064,127.709849,5.337078,4.296852,-4.228035,-0.341224,-4.204929,4.361596,0.286731,-0.139399,0.539737,-0.039427,-79.552200,188.721944,1013.309522,985.043284,0
0.053125,-157.488168,-22.491751,169.725947,6.117468,4.921701,-3.073178,-2.053923,-4.826130,3.266260,1.880647,-0.172276,0.520401,-0.065566,-68.717220,188.646455,1013.683564,984.233915,0
0.054167,-109.566103,-93.237525,183.993940,6.411528,4.982056,-1.088886,-3.803936,-4.884942,1.247650,3.691591,-0.179582,0.539541,-0.061832,-48.166950,188.571033,1014.787773,983.613739,0
0.055208,-29.454022,-143.035011,180.313069,6.400218,4.122888,0.887469,-4.751704,-4.109359,-0.699615,4.527685,-0.183235,0.558812,-0.039427,-14.157781,188.721907,1016.486016,982.710498,0
0.056250,48.276134,-175.520562,152.823485,5.879958,2.922894,2.653489,-5.113646,-2.914740,-2.533570,4.975973,-0.259948,0.566324,-0.017021,22.916398,188.797318,1017.425121,982.172625,0
0.057292,112.758249,-179.688474,84.745834,4.534068,0.941839,4.157582,-4.520359,-0.977620,-3.973036,4.413834,-0.248989,0.559726,-0.020755,50.094327,188.646489,1018.165987,981.947490,0
0.058333,151.878533,-177.646801,-2.191667,2.939358,-0.925607,5.106074,-3.535277,0.977879,-4.959258,3.485236,-0.175929,0.556068,-0.039427,68.665347,188.571203,1018.171281,981.573093,0
0.059375,170.967962,-132.802486,-77.077084,1.536918,-2.643942,5.038608,-1.736757,2.620939,-4.959258,1.845068,-0.164970,0.553063,-0.039427,76.831167,188.721915,1018.325150,981.172470,0
0.060417,189.603690,-50.362397,-127.772159,0.507708,-4.198964,4.423477,0.229675,4.311784,-4.430475,-0.168673,-0.132093,0.552083,-0.002084,84.974367,188.797273,1019.458696,981.658093,0
0.061458,156.948631,22.908286,-170.083713,-0.306612,-4.862866,3.260682,1.961031,4.940338,-3.293171,-1.780378,-0.073645,0.528566,-0.058098,73.732227,188.646581,1021.267291,981.730750,0
0.062500,108.629579,94.125215,-183.970076,-0.544122,-4.788310,1.248610,3.699849,4.899904,-1.266169,-3.541512,-0.055380,0.539671,-0.058098,53.057547,188.571181,1021.436782,981.520802,0
0.063542,28.143196,143.463627,-180.264584,-0.464952,-4.017900,-0.719807,4.647617,4.087564,0.605556,-4.416742,-0.062686,0.566716,-0.002084,17.476288,188.721965,1021.184569,981.902609,0
0.064583,-49.155945,175.816288,-152.578031,0.077928,-2.800154,-2.473921,5.028217,2.874566,2.468888,-4.889936,-0.029809,0.568023,-0.065566,-18.274621,188.797313,1021.347715,981.447339,0
0.065625,-113.195703,179.742582,-84.475758,1.333338,-0.826199,-4.001826,4.431198,0.944797,3.950320,-4.324238,-0.040768,0.560510,-0.046895,-44.694781,188.571129,1022.013914,981.319921,0
0.066668,-152.610892,177.797556,3.261932,2.973288,1.073199,-4.974129,3.446116,-0.973944,4.932347,-3.356504,-0.055380,0.553651,-0.058098,-63.062220,188.646493,1021.890165,981.234047,0
0.067709,-171.450786,132.264629,78.233523,4.420968,2.798635,-4.843166,1.636402,-2.661114,4.961723,-1.680758,-0.066339,0.552279,-0.080503,-72.426900,188.721960,1022.341672,981.021222,0
0.068750,-190.177254,49.643327,128.177652,5.393628,4.339455,-4.267721,-0.352418,-4.285795,4.399367,0.279616,-0.143052,0.550385,-0.028224,-78.703950,188.797373,1022.987647,982.065164,0
0.069792,-156.909700,-22.334699,170.587690,6.185328,4.957204,-3.017617,-2.117356,-4.910673,3.253669,1.887762,-0.161317,0.556852,-0.017021,-68.027310,188.571114,1023.849932,982.613702,0
0.070833,-109.021663,-94.107350,183.944698,6.411528,4.943003,-1.049200,-3.833787,-4.848185,1.205683,3.645339,-0.216112,0.503873,0.005384,-46.696651,188.571114,1023.043749,982.116302,0
0.071875,-27.196864,-143.590733,179.968372,6.354978,4.126439,0.883500,-4.770360,-4.072602,-0.687025,4.556147,-0.227071,0.544832,-0.028224,-11.601721,188.721962,1022.509558,982.435936,0
0.072917,50.249729,-175.423915,152.515720,5.846028,2.937095,2.689206,-5.132303,-2.933119,-2.499996,5.004436,-0.223418,0.561686,-0.017021,22.622338,188.797402,1021.877345,983.485566,0
0.073958,113.427457,-179.688474,84.413447,4.522758,0.916987,4.189331,-4.479314,-0.966593,-4.023396,4.399602,-0.219765,0.565997,-0.054364,50.558037,188.571047,1022.342601,983.525848,0
0.075000,152.627138,-177.163565,-2.991856,2.894118,-0.971761,5.062419,-3.486769,1.010961,-5.030602,3.460331,-0.186888,0.556003,-0.028224,68.416527,188.646612,1023.138978,983.780333,0
0.076056,171.988787,-128.827868,-79.268371,1.491678,-2.775302,4.990985,-1.643472,2.712833,-4.938275,1.720544,-0.154011,0.549405,-0.054364,77.702037,188.721973,1023.255908,983.051056,0
0.077093,189.490265,-46.520669,-129.249432,0.530328,-4.241567,4.407603,0.345348,4.352218,-4.396901,-0.218483,-0.124787,0.545485,-0.005818,83.764197,188.797342,1022.934437,983.371745,0
0.078125,156.211369,23.186147,-171.364016,-0.283992,-4.884167,3.181311,2.020733,4.874174,-3.263794,-1.865766,-0.102869,0.559204,-0.043161,71.221407,188.571183,1023.149783,982.536517,0
0.079167,109.015224,94.898393,-183.613069,-0.532812,-4.806061,1.185113,3.770745,4.899904,-1.215808,-3.573532,-0.051727,0.560118,-0.035692,51.598557,188.646456,1023.790379,982.138116,0
0.080208,26.430478,144.466342,-180.190720,-0.498882,-3.950444,-0.775368,4.658811,4.061833,0.643327,-4.452321,-0.044421,0.529873,-0.043161,16.842928,188.721911,1024.058408,982.314743,0
0.081250,-52.014255,174.886059,-152.590341,0.010068,-2.750450,-2.545356,5.039411,2.848836,2.557018,-4.879262,-0.015197,0.548948,-0.035692,-19.371691,188.797304,1024.390909,982.117204,0
0.082292,-113.955651,180.926511,-82.555303,1.423818,-0.716141,-4.089135,4.423735,0.882310,3.992287,-4.285102,0.003068,0.563646,-0.017021,-45.961501,188.571056,1024.837940,981.842283,0
0.083333,-153.007880,176.939812,3.151136,2.984598,1.169057,-4.974129,3.364026,-1.058487,4.961723,-3.299578,-0.048074,0.557571,-0.039427,-64.894440,188.646460,1025.750481,980.821939,0
0.084375,-172.857256,130.259199,78.541288,4.398348,2.887392,-4.843166,1.505804,-2.738304,4.974314,-1.595370,-0.106522,0.545877,-0.050629,-72.098910,188.721925,1026.685494,980.362990,0
0.085417,-190.029802,46.816395,128.546970,5.371008,4.367858,-4.192318,-0.434509,-4.311525,4.298646,0.372120,-0.139399,0.548686,-0.061832,-79.382550,188.797324,1026.587455,979.017371,0
0.086458,-156.013643,-24.050188,171.732576,6.162708,4.999807,-3.013649,-2.214372,-4.877591,3.161342,1.990940,-0.168623,0.552867,-0.031958,-68.083860,188.571047,1027.053507,977.894257,0
0.087500,-109.225828,-95.073822,183.095266,6.400218,4.946553,-0.965860,-3.856175,-4.932727,1.142733,3.720053,-0.219765,0.557832,-0.054364,-47.952061,188.722085,1028.626861,978.164036,0
0.088542,-26.686452,-144.750500,180.079167,6.400218,4.041232,0.994621,-4.785286,-4.010114,-0.775156,4.588168,-0.223418,0.557113,-0.031958,-12.110671,188.774642,1029.623567,977.386067,0
0.089583,52.937902,-174.312472,152.429546,5.868648,2.819936,2.728892,-5.068870,-2.808144,-2.583930,4.983089,-0.238030,0.540129,-0.013287,24.318838,188.703629,1030.053074,975.896714,0
0.090625,113.960554,-181.440205,81.261932,4.500138,0.821130,4.280608,-4.501702,-0.841617,-4.065363,4.371139,-0.216112,0.557701,-0.031958,50.422317,188.570486,1030.805799,975.343937,0
0.091667,152.978756,-176.221255,-3.275000,2.916738,-1.003713,5.066388,-3.438261,1.044043,-4.976045,3.410521,-0.197847,0.557048,-0.050629,69.445737,188.742098,1030.227042,974.328621,0
0.092709,172.748734,-129.782260,-78.086553,1.457748,-2.764651,4.987016,-1.624816,2.738563,-4.963455,1.684965,-0.190541,0.553847,-0.046895,77.249637,188.674240,1031.424634,973.928453,0
0.093750,189.365498,-45.844139,-128.683144,0.530328,-4.202514,4.363948,0.371467,4.341190,-4.371721,-0.286082,-0.113828,0.519617,-0.031958,85.064847,188.647500,1031.546554,972.939988,0
0.094792,155.417394,25.686894,-171.622538,-0.250062,-4.877067,3.161468,2.050584,4.907256,-3.154680,-1.869324,-0.095563,0.540651,-0.054364,73.200657,188.570848,1031.347731,972.523239,0
0.095834,108.266619,95.937351,-183.034470,-0.487572,-4.806061,1.165270,3.759551,4.881526,-1.245185,-3.598437,-0.062686,0.554043,-0.031958,53.000997,188.721413,1030.925395,972.886886,0
0.096875,26.759410,145.167035,-179.956819,-0.476262,-3.936243,-0.763462,4.673737,4.069185,0.723064,-4.448763,-0.040768,0.560380,-0.046895,15.892888,188.796943,1031.683762,972.500184,0
0.097917,-53.159848,174.620279,-152.171781,0.055308,-2.690096,-2.569167,4.979709,2.804727,2.515052,-4.875704,-0.037115,0.564299,-0.028224,-19.903261,188.646214,1030.928659,972.341082,0
0.098958,-114.772311,181.651365,-80.142424,1.469058,-0.733892,-4.089135,4.423735,0.852904,4.021664,-4.263755,-0.080951,0.559138,-0.028224,-45.045391,188.570720,1030.846411,972.563423,0
0.100000,-153.495607,176.347848,4.468371,3.029838,1.137104,-4.922538,3.408802,-1.010702,4.957527,-3.324483,-0.073645,0.562143,-0.031958,-63.899160,188.723157,1029.912817,973.532321,0
0.101042,-173.129476,129.751801,78.689015,4.364418,2.901593,-4.878883,1.546849,-2.716250,4.928150,-1.613159,-0.099216,0.553455,-0.046895,-73.207290,188.796880,1029.110002,973.482639,0
0.102083,-189.791609,46.260674,129.322538,5.382318,4.374958,-4.216130,-0.434509,-4.289471,4.294449,0.336541,-0.143052,0.524908,-0.039427,-78.443820,188.646085,1028.345472,973.969115,0
0.103125,-155.253695,-26.224750,171.757197,6.207948,4.967855,-2.993806,-2.158401,-4.866564,3.161342,1.958919,-0.183235,0.536209,-0.024490,-67.654080,188.570727,1027.245413,974.563191,0
0.104167,-107.490425,-96.596016,182.959849,6.388908,4.918151,-1.009514,-3.859906,-4.914348,1.180503,3.663128,-0.219765,0.553455,-0.031958,-46.244251,188.721500,1025.553640,975.340030,0
0.105208,-26.368862,-145.330383,179.488258,6.332358,4.087386,0.986684,-4.803943,-4.105683,-0.737385,4.595284,-0.212459,0.562339,-0.050629,-10.843951,188.796858,1025.238924,976.935637,0
0.106250,52.971929,-174.433281,152.183334,5.800788,2.883841,2.713018,-5.080064,-2.833874,-2.537767,5.000878,-0.238030,0.565671,-0.035692,23.968228,188.645980,1024.736985,977.575298,0
0.107292,115.060777,-181.488529,79.636932,4.454898,0.842431,4.272671,-4.490508,-0.837942,-4.082150,4.406718,-0.241683,0.556591,-0.035692,51.100917,188.646047,1024.633416,978.507918,0
0.108334,153.182921,-175.810504,-5.170833,2.882808,-0.971761,5.145759,-3.468112,1.033015,-5.022209,3.438984,-0.186888,0.559596,-0.031958,69.219537,188.721538,1024.507421,979.634467,0
0.109375,173.009612,-128.719140,-78.972917,1.491678,-2.750450,5.046545,-1.613621,2.731212,-4.963455,1.734775,-0.161317,0.552541,-0.035692,78.018717,188.796794,1023.824502,980.571916,0
0.110417,189.127305,-46.279051,-129.557197,0.485088,-4.230916,4.391729,0.375199,4.326487,-4.371721,-0.225599,-0.113828,0.552410,-0.024490,83.560617,188.570568,1023.220729,981.210112,0
