1-Time,2-VGERA,3-VGERB,4-VGERC,5-VN,6-IGERAN,7-IGERBN,8-IGERCN,9-IGERAT,10-IGERBT,11-IGERCT,12-IN,13-IFD,14-IFAULT,15-VFAULT,16-Speed (rad/s),17-Active Power,18-Reactive Power,19-FAULT 
0.000000,-114.787540,-81.922854,178.415859,3.737096,4.845757,-1.712756,-3.438273,-4.903727,1.561256,3.179809,0.066437,0.574233,-0.003573,-107.409207,188.496454,985.093784,999.661211,0
0.001042,-38.354845,-132.555592,181.648203,3.793393,4.365056,0.214032,-4.563316,-4.303474,-0.303914,4.124154,0.099252,0.579676,0.022444,-32.428765,188.495937,985.424136,998.714246,0
0.002083,33.501380,-171.525536,149.555638,3.196650,3.198164,2.053428,-5.092975,-3.140020,-2.266089,4.676291,0.150299,0.585877,-0.007290,39.951004,188.496091,986.339536,998.175563,0
0.003125,105.561004,-171.819161,94.204774,2.070720,1.407461,3.788786,-4.872606,-1.413366,-3.906380,4.318354,0.102898,0.582777,-0.018440,107.906252,188.496129,986.400464,997.819536,0
0.004167,148.037423,-173.874538,8.596247,0.426862,-0.489656,4.787553,-3.813287,0.505962,-4.902901,3.339739,0.117483,0.575198,0.011294,146.983897,188.496114,986.792679,997.509259,0
0.005208,165.834806,-139.261993,-69.393182,-1.048106,-2.225317,5.028922,-2.297766,2.265964,-5.035182,1.744253,0.081021,0.565758,0.003860,162.126343,188.495977,986.831269,996.812588,0
0.006250,183.383590,-59.783510,-123.832671,-2.106481,-3.905936,4.666869,-0.256451,4.011145,-4.695660,-0.292942,0.022683,0.538956,0.015011,181.693311,188.722221,987.656674,996.957636,0
0.007292,163.766919,14.057369,-160.603630,-2.872113,-4.672855,3.655617,1.375054,4.692914,-3.624179,-1.896044,-0.046595,0.539576,0.026161,155.652806,188.496123,987.702351,996.685101,0
0.008333,113.809949,83.094538,-178.503042,-3.232411,-4.859999,1.628952,3.358377,4.922640,-1.551769,-3.929431,-0.046595,0.563278,0.015011,106.814194,188.496044,988.258156,996.629608,0
0.009375,36.913958,132.611501,-181.759690,-3.333744,-4.342603,-0.264543,4.475688,4.366850,0.269306,-4.885200,-0.097641,0.540334,-0.022156,32.103952,188.496045,988.000537,996.745751,0
0.010417,-34.863168,171.193859,-149.302575,-2.703224,-3.139016,-2.120586,4.997615,3.184870,2.205026,-5.403066,-0.108580,0.566792,-0.003573,-39.960584,188.722232,988.532253,997.083855,0
0.011458,-105.883199,171.816344,-93.441341,-1.566034,-1.396016,-3.818489,4.773380,1.424868,3.845316,-5.094631,-0.061180,0.577196,-0.033307,-107.521790,188.496015,988.338165,996.947869,0
0.012500,-147.986721,173.601586,-8.173060,0.077824,0.497432,-4.804772,3.768187,-0.457407,4.907978,-4.100784,-0.072118,0.573957,-0.011006,-146.745793,188.496016,988.982879,996.834150,0
0.013542,-165.919702,139.176961,69.561184,1.575311,2.211076,-5.150179,2.256531,-2.232230,5.027031,-2.493875,-0.032010,0.573751,0.007577,-161.922015,188.496013,989.403083,996.622347,0
0.014583,-183.366787,60.367944,124.365223,2.599907,3.979762,-4.725703,0.234547,-3.970000,4.639005,-0.487142,-0.006487,0.572028,0.018727,-181.331366,188.722246,989.504651,996.719690,0
0.015625,-163.930915,-12.744744,161.306305,3.331761,4.713656,-3.718613,-1.431753,-4.651769,3.585163,1.112151,0.044560,0.577954,0.007577,-155.358411,188.496567,989.286900,997.206916,0
0.016667,-114.369443,-82.228224,178.658892,3.714578,4.897130,-1.650333,-3.476934,-4.870380,1.499524,3.183617,0.095606,0.576920,-0.029590,-106.733707,188.495709,989.296509,996.405870,0
0.017708,-38.117547,-132.802237,181.757568,3.770874,4.365056,0.189063,-4.547851,-4.329411,-0.321551,4.105115,0.135714,0.579056,0.011294,-31.708232,188.495673,989.271438,996.617921,0
0.018750,34.484474,-171.314125,149.324757,3.219168,3.168808,2.065913,-5.069778,-3.151136,-2.213177,4.634405,0.110191,0.580985,-0.018440,41.009287,188.721880,988.009164,996.805170,0
0.019792,105.832202,-171.913121,93.536432,2.093238,1.374436,3.780463,-4.833945,-1.365197,-3.924017,4.348817,0.110191,0.577058,-0.014723,108.063868,188.571212,988.470382,996.834198,0
0.020833,148.003523,-174.003733,7.940056,0.426862,-0.489656,4.775069,-3.821020,0.528194,-4.933766,3.335931,0.081021,0.572373,-0.011006,146.983897,188.495747,988.885896,996.932073,0
0.021875,165.812206,-138.944878,-69.782036,-1.104403,-2.239995,5.041406,-2.262971,2.280785,-5.088095,1.675712,0.051852,0.566585,-0.018440,162.115085,188.495379,989.562383,996.686299,0
0.022917,183.643488,-58.937869,-123.844823,-2.106481,-3.949969,4.637738,-0.190727,4.059313,-4.722116,-0.311982,0.044560,0.529035,0.003860,181.862186,188.719014,990.178559,997.068921,0
0.023958,163.608720,14.409719,-160.798057,-2.838335,-4.702211,3.634810,1.425314,4.718851,-3.571267,-1.934122,-0.028364,0.567825,-0.007290,155.393865,188.570709,990.755058,996.544845,0
0.025000,113.583951,83.270713,-178.673166,-3.176114,-4.878346,1.595660,3.412503,4.963398,-1.534132,-3.971318,-0.053887,0.550669,0.011294,106.847969,188.495278,991.552547,996.806958,0
0.026042,36.959157,132.799421,-181.577415,-3.288707,-4.401314,-0.277028,4.491152,4.363145,0.317810,-4.873776,-0.075764,0.569548,-0.037023,32.137727,188.570788,991.790313,996.373809,0
0.027084,-35.179566,171.393524,-149.521305,-2.635668,-3.120668,-2.199655,5.047875,3.114470,2.209435,-5.391643,-0.093995,0.585464,-0.044457,-40.455950,188.721793,991.906196,995.604222,0
0.028125,-106.165697,171.875069,-93.186155,-1.566034,-1.366660,-3.851782,4.796576,1.347058,3.920276,-5.083207,-0.112226,0.582088,-0.007290,-107.578082,188.570687,993.100525,994.882094,0
0.029166,-148.257919,173.648566,-8.063695,0.066564,0.486423,-4.863033,3.760455,-0.505576,4.859475,-4.112208,-0.112226,0.578298,-0.003573,-146.824601,188.495267,993.053700,994.571119,0
0.030208,-166.077901,138.730651,69.378908,1.575311,2.288135,-5.116887,2.183075,-2.272988,5.053488,-2.410102,-0.028364,0.570099,-0.048173,-162.327314,188.570875,993.931376,993.754078,0
0.031250,-184.067382,59.815928,124.207251,2.588648,4.023795,-4.684088,0.145626,-3.988526,4.647824,-0.403370,0.033621,0.568859,0.007577,-181.804216,188.721777,994.831353,993.303415,0
0.032291,-163.343319,-12.979644,161.585793,3.376799,4.746681,-3.689482,-1.451084,-4.666590,3.501385,1.195924,0.019036,0.575818,-0.007290,-154.795495,188.570908,995.701753,992.073323,0
0.033333,-114.120844,-82.416144,178.950532,3.725837,4.889791,-1.612879,-3.527194,-4.885201,1.411337,3.217888,0.084667,0.574095,-0.011006,-106.272116,188.495535,996.596579,991.392730,0
0.034375,-36.953654,-133.178078,181.247198,3.804652,4.350378,0.263971,-4.543985,-4.262716,-0.348007,4.131770,0.077375,0.560315,-0.018440,-30.582399,188.570926,996.493156,990.761810,0
0.035416,35.512767,-171.384596,149.567790,3.207909,3.091749,2.132497,-5.089109,-3.077031,-2.274908,4.664868,0.113837,0.585670,-0.011006,42.033794,188.646319,997.463977,990.178519,0
0.036458,106.679696,-171.666476,92.576450,2.059460,1.348750,3.826240,-4.795283,-1.305913,-3.946064,4.325970,0.117483,0.578436,0.003860,108.514201,188.570906,997.546572,989.675230,0
0.037500,148.161722,-174.179908,7.028681,0.415603,-0.544698,4.833330,-3.797823,0.591183,-4.929357,3.290237,0.073729,0.573544,-0.011006,146.972638,188.495519,997.905465,988.960063,0
0.038541,165.608807,-138.122727,-70.122283,-1.059366,-2.265681,4.978984,-2.232042,2.291901,-4.995498,1.656673,0.026329,0.563967,-0.037023,162.160118,188.646364,997.038840,987.993960,0
0.039583,184.197184,-58.374108,-123.784065,-2.095221,-3.960978,4.625254,-0.221656,4.018555,-4.700069,-0.342444,0.000805,0.534547,-0.014723,182.166161,188.721674,996.693654,987.573074,0
0.040625,163.168023,14.198309,-161.041090,-2.883372,-4.658178,3.630648,1.405983,4.689208,-3.553629,-1.949354,-0.035656,0.551634,0.011294,155.112407,188.570895,996.513677,987.089354,0
0.041666,113.403152,82.941853,-178.891896,-3.243670,-4.878346,1.591499,3.466629,4.918935,-1.503266,-3.975125,-0.053887,0.565827,-0.033307,106.757903,188.570937,996.436870,986.300096,0
0.042708,37.252955,133.069556,-181.054893,-3.311226,-4.324255,-0.281190,4.522081,4.370555,0.335447,-4.881392,-0.097641,0.575129,0.018727,32.272827,188.570812,996.626235,986.249706,0
0.043750,-35.089167,171.405269,-149.339030,-2.737001,-3.139016,-2.178847,5.005347,3.129291,2.310851,-5.418297,-0.083057,0.581261,-0.055607,-40.568533,188.721784,997.894094,986.201254,0
0.044791,-106.323896,171.640169,-93.113245,-1.554775,-1.362991,-3.901720,4.761781,1.384111,3.911457,-5.060360,-0.108580,0.582088,-0.037023,-107.983381,188.570921,997.351708,986.324233,0
0.045833,-148.551717,173.613331,-7.857117,0.100342,0.526788,-4.825580,3.756588,-0.524102,4.890340,-4.058898,-0.064826,0.576782,-0.011006,-146.959701,188.570986,997.755848,985.855854,0
0.046875,-166.010102,138.401791,69.986492,1.586570,2.247770,-5.054464,2.179209,-2.250756,5.018212,-2.425334,-0.017425,0.570650,-0.018440,-162.034598,188.646234,996.979913,985.946685,0
0.047916,-184.270781,58.993777,124.365223,2.611166,3.983431,-4.700734,0.168823,-3.977410,4.603730,-0.407178,0.026329,0.566930,0.003860,-181.837991,188.721748,996.460419,985.689230,0
0.048958,-163.264220,-13.778305,161.452125,3.388058,4.676961,-3.668674,-1.439486,-4.633243,3.532250,1.180692,0.033621,0.566585,0.000144,-154.604103,188.570944,995.752746,986.067957,0
0.050000,-113.205550,-83.132590,178.986987,3.748356,4.915477,-1.600394,-3.503997,-4.881496,1.455431,3.225504,0.084667,0.549705,-0.022156,-105.551583,188.570998,995.257658,986.745628,0
0.051041,-36.219159,-133.354253,181.332260,3.838430,4.365056,0.234840,-4.571048,-4.277537,-0.348007,4.177464,0.088314,0.524074,-0.003573,-30.064517,188.721607,995.635634,987.258787,0
0.052083,36.552360,-171.408086,149.385515,3.207909,3.168808,2.111690,-5.050448,-3.073325,-2.314592,4.691523,0.139360,0.579194,0.018727,42.506644,188.721601,996.055681,987.520640,0
0.053125,106.837895,-171.877886,92.467085,2.081979,1.341411,3.817917,-4.814614,-1.335555,-3.937246,4.341201,0.113837,0.577678,-0.003573,108.829434,188.570917,995.857207,988.069278,0
0.054166,148.399021,-173.991988,6.627676,0.370565,-0.515343,4.816684,-3.801689,0.580068,-4.929357,3.370201,0.091960,0.572924,0.018727,147.411713,188.495441,995.678302,989.221597,0
0.055208,165.755706,-138.064002,-70.183041,-1.093144,-2.295037,5.012276,-2.228175,2.295606,-5.061638,1.694751,0.040913,0.568652,-0.018440,162.407801,188.721655,996.088735,990.257615,0
0.056250,184.219784,-58.385853,-124.014947,-2.117740,-3.982995,4.700161,-0.182995,4.044492,-4.700069,-0.334829,0.019036,0.561831,0.000144,182.211194,188.721813,996.331714,990.451810,0
0.057291,163.100224,13.951664,-161.381337,-2.860854,-4.698542,3.622325,1.433046,4.718851,-3.610951,-1.949354,-0.028364,0.569617,-0.033307,154.932274,188.570986,996.662248,991.329101,0
0.058333,113.369252,83.094538,-178.879744,-3.209892,-4.918710,1.603983,3.485960,4.959693,-1.467991,-4.009396,-0.053887,0.573337,-0.029590,106.735386,188.495465,997.478648,991.361841,0
0.059375,37.365955,133.198751,-181.006287,-3.277448,-4.324255,-0.260382,4.553010,4.337208,0.313400,-4.904239,-0.097641,0.579194,-0.014723,32.103952,188.721721,997.481580,991.261279,0
0.060416,-35.213466,171.440504,-149.460547,-2.691964,-3.142685,-2.170524,5.059473,3.140407,2.257938,-5.399258,-0.126811,0.581950,0.003860,-41.052641,188.797045,996.736701,991.491049,0
0.061458,-106.493395,171.710639,-92.675785,-1.577294,-1.362991,-3.905882,4.804309,1.350763,3.893820,-5.064168,-0.108580,0.579814,0.011294,-108.186031,188.570933,996.633345,991.310899,0
0.062500,-148.698616,173.707291,-7.128017,0.077824,0.508440,-4.858872,3.760455,-0.527807,4.921206,-4.070321,-0.090349,0.575129,0.011294,-146.948443,188.495468,996.866676,991.782669,0
0.063541,-165.998802,137.638365,70.569772,1.597829,2.302812,-5.079433,2.167610,-2.276693,4.974119,-2.372024,-0.017425,0.567205,-0.022156,-162.248506,188.721726,996.691394,990.929109,0
0.064583,-184.598479,57.995452,124.365223,2.611166,4.012787,-4.684088,0.095367,-4.025579,4.599321,-0.403370,0.011744,0.570788,-0.003573,-182.119449,188.797088,997.042612,991.149493,0
0.065625,-162.676624,-14.764886,161.695158,3.388058,4.676961,-3.614575,-1.478147,-4.655474,3.532250,1.211155,0.019036,0.586566,0.003860,-154.086221,188.570906,997.224159,991.388363,0
0.066666,-112.617954,-83.672860,179.108504,3.737096,4.886121,-1.604556,-3.500131,-4.870380,1.486296,3.210272,0.084667,0.554596,0.003860,-105.326417,188.495495,996.611005,991.831561,0
0.067708,-35.269965,-133.671368,181.040620,3.759615,4.310014,0.251486,-4.524655,-4.270127,-0.361236,4.120346,0.106545,0.580503,-0.018440,-29.771800,188.721717,995.733947,991.638680,0
0.068750,37.173856,-171.408086,149.421970,3.207909,3.168808,2.111690,-5.077511,-3.088146,-2.310183,4.653444,0.128422,0.566792,-0.037023,42.698036,188.646433,995.210147,991.681237,0
0.069791,107.301192,-171.396341,92.187596,2.070720,1.374436,3.817917,-4.818480,-1.317029,-3.937246,4.341201,0.117483,0.578505,-0.011006,108.964534,188.570942,995.085986,991.567590,0
0.070833,148.658919,-173.980243,6.858558,0.438121,-0.530021,4.783392,-3.840350,0.561541,-4.920538,3.377817,0.117483,0.574577,-0.011006,147.580588,188.570989,994.883393,991.765623,0
0.071875,165.687907,-137.770377,-70.158738,-1.059366,-2.284029,5.049730,-2.243640,2.303017,-5.061638,1.713790,0.040913,0.571821,-0.003573,162.531643,188.721733,994.794391,991.940764,0
0.072916,184.389283,-58.573774,-124.100008,-2.128999,-4.001342,4.683515,-0.194593,4.018555,-4.713297,-0.308174,0.000805,0.567825,0.015011,182.278744,188.721630,994.439867,992.301411,0
0.073958,162.535227,13.916429,-161.685129,-2.894632,-4.724228,3.618163,1.402117,4.726261,-3.549220,-1.937930,-0.028364,0.573544,-0.018440,154.639557,188.570937,994.297577,991.729415,0
0.075000,113.391852,83.012323,-179.098474,-3.266189,-4.896693,1.637275,3.451164,4.933756,-1.525313,-3.963702,-0.050241,0.573475,0.000144,106.543994,188.495508,993.371300,992.143896,0
0.076041,37.501554,133.433651,-180.617433,-3.299967,-4.335264,-0.247897,4.467956,4.333503,0.273716,-4.828082,-0.061180,0.584637,-0.022156,31.664877,188.721675,992.104968,992.130858,0
0.077083,-35.315165,171.393524,-149.241817,-2.703224,-3.161033,-2.149716,5.001481,3.181165,2.218254,-5.399258,-0.126811,0.584568,-0.022156,-41.593041,188.721867,991.498768,992.758593,0
0.078125,-106.990592,171.370034,-92.323387,-1.554775,-1.381338,-3.835136,4.773380,1.402637,3.876182,-5.106054,-0.134103,0.578505,0.000144,-108.670139,188.570933,990.965191,993.810097,0
0.079166,-148.676016,173.578096,-6.544736,0.122861,0.497432,-4.825580,3.783651,-0.494460,4.899159,-4.058898,-0.024718,0.572786,-0.007290,-146.982218,188.570917,990.236704,993.894024,0
0.080208,-165.648504,137.614875,71.201659,1.609088,2.280796,-5.029495,2.210138,-2.202588,5.022622,-2.451989,-0.042949,0.567067,0.000144,-161.764398,188.721701,989.336823,995.470348,0
0.081250,-184.214281,57.431691,124.802683,2.622425,4.016456,-4.713218,0.161091,-3.958884,4.656643,-0.433832,-0.017425,0.549429,-0.011006,-181.860507,188.797166,988.307116,996.371544,0
0.082291,-162.563624,-15.399117,161.525035,3.354280,4.717326,-3.668674,-1.412423,-4.629537,3.558706,1.134998,0.077375,0.555906,0.003860,-154.041187,188.570883,987.050823,997.008104,0
0.083333,-112.199857,-84.166151,178.999139,3.770874,4.882452,-1.696110,-3.446005,-4.885201,1.468659,3.187425,0.073729,0.551289,-0.003573,-105.112508,188.646362,986.764438,997.122199,0
0.084375,-35.156966,-133.777073,181.016316,3.827171,4.361387,0.159933,-4.540119,-4.322000,-0.255410,4.116538,0.081021,0.548671,-0.003573,-30.222133,188.721634,985.915028,998.560474,0
0.085416,37.015657,-171.490301,149.057420,3.185390,3.198164,2.074236,-5.089109,-3.147431,-2.257270,4.687715,0.084667,0.559695,-0.018440,42.394061,188.721775,985.454973,999.687252,0
0.086458,107.402892,-171.478556,92.418478,2.070720,1.407461,3.792948,-4.864874,-1.394840,-3.901971,4.371664,0.095606,0.582501,-0.011006,109.189701,188.570857,984.805164,1000.769063,0
0.087500,148.862318,-173.557422,7.065136,0.404343,-0.485987,4.787553,-3.875145,0.502257,-4.916129,3.419703,0.088314,0.577402,-0.037023,147.783238,188.646391,984.157695,1001.605716,0
0.088541,165.891305,-137.805612,-70.134434,-1.081884,-2.247334,5.087183,-2.305498,2.247438,-5.083685,1.763292,0.037267,0.576782,0.000144,162.452835,188.721751,983.561187,1002.532159,0
0.089583,184.106785,-58.726459,-124.415952,-2.128999,-3.942630,4.683515,-0.237120,3.985208,-4.673613,-0.273903,0.011744,0.570512,-0.033307,182.098611,188.646274,982.734969,1002.361851,0
0.090625,162.682126,13.763744,-161.721584,-2.860854,-4.742575,3.659779,1.444645,4.729966,-3.562448,-1.918891,0.000805,0.576369,-0.011006,154.448166,188.570865,982.643224,1002.623689,0
0.091666,113.233653,83.423398,-178.928351,-3.232411,-4.911371,1.658083,3.420235,4.892998,-1.542950,-3.944663,-0.053887,0.574646,-0.011006,106.059887,188.721761,981.935581,1002.528328,0
0.092708,36.913958,133.574591,-180.678192,-3.299967,-4.335264,-0.239574,4.467956,4.307566,0.304581,-4.850929,-0.108580,0.575266,-0.022156,30.797986,188.721795,982.249134,1002.221538,0
0.093750,-36.366058,171.417014,-148.986632,-2.714483,-3.146355,-2.158039,5.020812,3.121881,2.244710,-5.403066,-0.086703,0.581192,-0.055607,-42.617548,188.646377,982.407302,1001.728368,0
0.094791,-107.374789,171.698894,-91.545680,-1.543516,-1.388677,-3.839297,4.761781,1.395226,3.924685,-5.037513,-0.075764,0.577127,-0.011006,-109.086697,188.570913,982.468921,1001.228045,0
0.095833,-148.732516,173.531116,-5.609058,0.100342,0.508440,-4.833903,3.748856,-0.501870,4.846247,-4.070321,-0.057533,0.566516,-0.033307,-146.937184,188.721721,981.767707,1001.265219,0
0.096875,-165.671104,136.851449,71.639119,1.609088,2.273457,-5.066948,2.190807,-2.243346,4.925615,-2.471028,-0.002841,0.567136,-0.040740,-162.135923,188.721744,981.103748,1000.696062,0
0.097916,-184.722778,56.656520,124.814835,2.656203,4.012787,-4.679926,0.164957,-3.973705,4.621368,-0.471911,0.019036,0.556732,0.000144,-181.984349,188.646319,980.737670,1000.893455,0
0.098958,-162.021228,-15.634017,161.901737,3.376799,4.717326,-3.656190,-1.420155,-4.629537,3.554297,1.173077,0.033621,0.544399,-0.022156,-153.658404,188.570895,980.972175,1000.764088,0
0.100000,-112.199857,-83.978230,179.132807,3.759615,4.900799,-1.600394,-3.500131,-4.896317,1.446612,3.176002,0.066437,0.561486,-0.007290,-105.427742,188.721630,981.067742,1000.622476,0
0.101041,-35.382965,-134.164659,180.530249,3.759615,4.284328,0.230679,-4.555584,-4.310884,-0.348007,4.124154,0.095606,0.574577,-0.014723,-30.132066,188.721732,981.845186,999.835797,0
0.102083,37.139956,-171.642986,149.166785,3.252946,3.150461,2.120013,-5.069778,-3.091852,-2.323411,4.668676,0.135714,0.580158,0.007577,42.754327,188.646284,982.537907,998.874531,0
0.103125,107.787089,-171.196675,92.029625,2.059460,1.356088,3.826240,-4.756622,-1.335555,-3.950474,4.318354,0.106545,0.584292,-0.011006,109.437384,188.570895,982.969791,997.858520,0
0.104166,149.382114,-173.639637,6.895013,0.426862,-0.544698,4.808361,-3.821020,0.550425,-4.933766,3.351162,0.110191,0.580985,-0.007290,147.873304,188.721748,983.558846,997.026241,0
0.105208,165.857405,-137.171381,-70.438226,-1.070625,-2.269351,5.049730,-2.220443,2.277080,-5.017545,1.702367,0.051852,0.568376,0.007577,162.621709,188.797150,983.362569,995.801334,0
0.106250,184.716981,-57.963033,-124.464558,-2.117740,-3.949969,4.662707,-0.198459,3.996324,-4.611881,-0.338636,0.029975,0.569617,-0.014723,182.335036,188.646346,983.677152,994.824314,0
0.107291,161.981531,14.362739,-161.855252,-2.872113,-4.694872,3.622325,1.402117,4.681798,-3.549220,-1.922699,-0.035656,0.574784,-0.014723,154.009091,188.570933,982.937529,994.476162,0
0.108333,112.623457,83.705279,-179.256446,-3.232411,-4.845321,1.591499,3.447298,4.952282,-1.512085,-3.940855,-0.050241,0.571821,-0.033307,105.463195,188.721686,983.290685,994.900906,0
0.109375,36.179462,133.950432,-180.313642,-3.288707,-4.349942,-0.256220,4.448625,4.314976,0.335447,-4.881392,-0.068472,0.586566,-0.037023,29.953612,188.797110,983.617919,995.042137,0
0.110416,-37.552550,171.440504,-149.095997,-2.691964,-3.157363,-2.128909,5.005347,3.107060,2.279985,-5.399258,-0.086703,0.589804,-0.033307,-43.540731,188.570919,983.805195,995.000317,0
0.111458,-108.064084,171.381779,-90.913793,-1.520997,-1.396016,-3.818489,4.715388,1.406342,3.898229,-5.064168,-0.101287,0.573820,-0.022156,-109.424447,188.570921,983.247917,995.580484,0
