1-Time,2-VGERA,3-VGERB,4-VGERC,5-VN,6-IGERAN,7-IGERBN,8-IGERCN,9-IGERAT,10-IGERBT,11-IGERCT,12-IN,13-IFD,14-IFAULT,15-VFAULT,16-Speed (rad/s),17-Active Power,18-Reactive Power,19-FAULT 
0.000000,101.176633,77.903244,-181.553112,-3.198633,-2.460163,-1.957995,4.429294,2.702455,2.176792,-4.521336,-0.086703,0.419966,-0.022156,14.349574,188.419882,1242.162466,-19.110709,0
0.001042,26.958723,131.519215,-185.769742,-3.288707,-0.963018,-3.450164,4.301712,1.202282,3.492489,-4.273826,-0.072118,0.421964,-0.033307,-3.922687,188.495242,1242.027337,-19.411629,0
0.002083,-38.659943,164.945513,-143.032313,-2.444260,0.783651,-4.181939,3.118678,-0.605521,4.204260,-3.123858,-0.032010,0.397987,-0.011006,-20.449907,188.495262,1241.645091,-20.020071,0
0.003125,-90.549200,193.098303,-65.395282,-1.003069,2.732141,-4.586664,1.676612,-2.474091,4.540733,-1.661647,-0.021072,0.407633,0.003860,-34.973146,188.495291,1241.009038,-20.024925,0
0.004167,-143.975247,164.240813,-3.288088,0.190417,3.730237,-3.924387,0.021910,-3.583079,3.889355,0.021419,0.011744,0.405083,-0.003573,-48.167903,188.495296,1240.983503,-19.988771,0
0.005208,-184.135182,116.685267,57.725455,1.372643,4.643936,-2.865561,-1.841563,-4.521162,2.815229,1.833952,0.044560,0.397918,-0.037023,-56.577871,188.419902,1241.318323,-20.115334,0
0.006250,-184.451580,41.940023,114.267184,2.476055,4.614580,-1.340687,-3.175376,-4.452800,1.279530,3.166696,0.081021,0.405428,-0.003573,-50.205659,188.495260,1241.195139,-19.971078,0
0.007292,-158.518251,-21.071956,164.745228,3.365539,4.130210,0.253684,-4.192168,-3.981859,-0.381269,4.130080,0.102898,0.429061,-0.044457,-36.290370,188.495247,1241.192220,-19.962457,0
0.008333,-100.459235,-78.023510,181.453777,3.737096,2.889928,2.027934,-4.458930,-2.633603,-2.111087,4.442323,0.099252,0.395024,-0.018440,-16.351877,188.495233,1240.669362,-19.634777,0
0.009375,-26.060526,-131.369346,185.925592,3.872208,1.323063,3.507838,-4.292687,-1.099249,-3.569138,4.156735,0.088314,0.409011,-0.007290,5.219073,188.419811,1240.553808,-19.928949,0
0.010417,39.128743,-164.889605,143.090949,3.050279,-0.394250,4.206908,-3.186975,0.655384,-4.194634,3.025806,0.059144,0.415074,0.015011,20.845627,188.495128,1239.933974,-19.731097,0
0.011458,90.577303,-193.418234,65.271643,1.530273,-2.284029,4.627986,-1.725579,2.573326,-4.569931,1.536940,0.011744,0.412800,-0.018440,37.372848,188.419734,1239.618218,-19.563117,0
0.012500,143.867751,-164.314099,3.407483,0.359306,-3.307812,3.949356,-0.063145,3.632942,-3.896984,-0.115663,0.015390,0.405290,0.000144,48.462298,188.495291,1239.599150,-19.423326,0
0.013542,184.219784,-116.829024,-57.460241,-0.822920,-4.184816,2.874177,1.773265,4.529247,-2.809916,-1.909157,-0.013779,0.404808,0.011294,57.547766,188.419819,1239.427122,-18.939279,0
0.014583,184.468382,-41.848879,-114.014121,-1.903813,-4.126104,1.386097,3.099347,4.533045,-1.252648,-3.272364,-0.072118,0.390408,0.007577,53.258344,188.495369,1239.006172,-18.688154,0
0.015625,158.602853,21.057395,-164.467862,-2.804557,-3.718792,-0.224627,4.185728,4.107680,0.321874,-4.285250,-0.064826,0.375388,-0.037023,36.731123,188.419838,1239.414339,-18.403173,0
0.016667,100.295239,77.997204,-181.492354,-3.153596,-2.482180,-1.982524,4.467956,2.732838,2.112086,-4.528952,-0.064826,0.447250,-0.014723,16.578722,188.495063,1239.201820,-17.245714,0
0.017708,26.484126,131.225589,-185.696832,-3.266189,-0.904307,-3.458340,4.293980,1.213676,3.522686,-4.285250,-0.090349,0.405979,0.015011,-3.675004,188.419905,1239.497728,-17.203324,0
0.018750,-38.535644,165.250884,-142.862189,-2.433000,0.798329,-4.165587,3.196000,-0.639702,4.238770,-3.173360,-0.050241,0.400054,-0.014723,-19.988316,188.495208,1240.409533,-17.298908,0
0.019792,-90.323202,193.086558,-66.160838,-0.991810,2.717463,-4.598929,1.723006,-2.500676,4.596812,-1.654031,-0.028364,0.405979,-0.044457,-35.558579,188.419750,1241.210449,-17.831638,0
0.020833,-144.280345,164.088128,-4.406042,0.156639,3.766932,-3.957092,-0.012885,-3.567888,3.850531,0.105192,0.022683,0.405635,-0.014723,-48.685785,188.495115,1240.652663,-19.141772,0
0.021875,-184.214281,117.542653,57.385209,1.361384,4.640267,-2.894178,-1.783571,-4.502172,2.797974,1.811105,0.062790,0.406806,-0.029590,-56.577871,188.419835,1240.363467,-19.268338,0
0.022917,-184.372480,43.020564,114.935526,2.476055,4.621919,-1.361128,-3.167644,-4.490779,1.279530,3.189543,0.077375,0.412662,-0.037023,-52.648716,188.495224,1241.166635,-19.537644,0
0.023958,-159.173647,-20.003160,164.915351,3.421836,4.188921,0.245508,-4.203766,-4.027434,-0.290680,4.130080,0.088314,0.415832,-0.029590,-37.979119,188.344446,1241.688742,-18.610695,0
0.025000,-101.250229,-77.600690,181.696810,3.759615,2.831217,2.011581,-4.485993,-2.660188,-2.128342,4.419476,0.066437,0.418519,-0.011006,-16.250552,188.495211,1241.835940,-18.807210,0
0.026042,-27.778115,-131.428071,185.658255,3.804652,1.319394,3.507838,-4.339081,-1.141026,-3.551883,4.164351,0.055498,0.418381,-0.018440,4.656157,188.419831,1241.929976,-18.625807,0
0.027083,37.761452,-165.312425,143.236769,3.005242,-0.375903,4.194644,-3.237234,0.681969,-4.224830,3.041038,0.081021,0.419277,-0.011006,20.316486,188.495222,1242.525936,-19.296617,0
0.028125,90.633803,-192.854474,66.887816,1.609088,-2.247334,4.636162,-1.775839,2.542943,-4.621696,1.605481,0.015390,0.413696,0.018727,36.325824,188.419920,1243.273655,-18.640344,0
0.029167,144.455347,-164.396315,4.804925,0.404343,-3.282125,3.990237,-0.109538,3.625346,-3.896984,-0.149934,0.008098,0.409769,-0.022156,49.025214,188.495247,1243.327666,-19.289372,0
0.030210,184.151985,-118.050505,-56.962022,-0.777883,-4.199493,2.902794,1.723006,4.586216,-2.805603,-1.924388,-0.010133,0.410664,-0.014723,56.512000,188.419961,1244.134514,-20.022817,0
0.031250,184.445783,-43.540161,-114.342216,-1.858776,-4.166468,1.410626,3.099347,4.544439,-1.300100,-3.241901,-0.068472,0.411973,-0.022156,52.526553,188.495202,1244.389394,-19.615517,0
0.032292,158.975751,19.929874,-164.686592,-2.860854,-3.770165,-0.204187,4.181862,4.077297,0.339130,-4.250979,-0.042949,0.421482,-0.011006,35.954299,188.419880,1243.879886,-20.177799,0
0.033333,101.639930,77.774049,-181.492354,-3.198633,-2.471172,-1.974348,4.413830,2.729040,2.068948,-4.532760,-0.075764,0.422240,-0.018440,14.495932,188.495278,1243.877271,-20.151944,0
0.034375,27.704518,131.401765,-185.514557,-3.288707,-0.933663,-3.458340,4.259185,1.232665,3.479548,-4.247172,-0.090349,0.403016,-0.029590,-3.686262,188.419871,1243.212591,-20.060421,0
0.035417,-38.241846,164.898533,-143.008009,-2.511815,0.754295,-4.116529,3.161205,-0.578936,4.165436,-3.131474,-0.010133,0.416934,-0.033307,-20.404874,188.495256,1241.856752,-19.589770,0
0.036458,-90.549200,192.980853,-65.759832,-0.991810,2.666090,-4.582576,1.695943,-2.466495,4.579557,-1.657839,-0.028364,0.410182,-0.022156,-35.051954,188.495247,1241.430676,-19.074826,0
0.037500,-144.031747,164.170343,-3.774155,0.167898,3.675195,-3.940740,0.064438,-3.545100,3.846218,0.017611,0.015390,0.406117,0.007577,-48.179161,188.495253,1241.194607,-17.820208,0
0.038542,-184.248181,117.072852,57.603939,1.338865,4.570547,-2.881913,-1.760374,-4.418618,2.789346,1.822528,0.044560,0.401294,-0.007290,-56.622904,188.495217,1240.188960,-17.662554,0
0.039583,-184.587179,42.292373,114.485914,2.431017,4.526513,-1.344775,-3.078723,-4.399629,1.288157,3.121002,0.062790,0.417210,-0.018440,-50.261951,188.495269,1238.576540,-17.077874,0
0.040625,-158.586051,-20.766586,164.878896,3.388058,4.122871,0.241420,-4.153506,-3.978061,-0.333817,4.084386,0.070083,0.417141,0.018727,-36.324145,188.419855,1237.537280,-17.349415,0
0.041667,-100.685233,-78.140960,181.235046,3.770874,2.787183,1.974788,-4.416403,-2.603219,-2.076577,4.366167,0.095606,0.418588,0.011294,-16.464460,188.495090,1236.132364,-17.069913,0
0.042708,-26.015327,-131.533776,185.633952,3.849689,1.319394,3.417899,-4.265624,-1.114440,-3.452667,4.130080,0.077375,0.408115,0.018727,5.275364,188.495238,1234.734102,-16.265776,0
0.043750,39.275642,-164.760410,143.030191,3.039020,-0.313522,4.145586,-3.163778,0.651586,-4.177379,3.006767,0.059144,0.389374,-0.018440,20.935694,188.494846,1233.741111,-15.599092,0
0.044792,90.803301,-193.218569,65.417464,1.552792,-2.228986,4.583016,-1.694650,2.539145,-4.561304,1.563595,0.022683,0.405841,-0.037023,37.372848,188.419793,1232.806453,-15.639464,0
0.045833,143.879051,-164.278864,3.371028,0.370565,-3.223414,3.937092,-0.070877,3.594963,-3.862474,-0.108048,-0.021072,0.404532,-0.025873,48.394748,188.495363,1232.046221,-14.825323,0
0.046875,184.140685,-116.711574,-57.666819,-0.789143,-4.133443,2.874177,1.726872,4.498864,-2.758151,-1.901541,-0.017425,0.397504,-0.029590,57.536507,188.495224,1230.474355,-14.319402,0
0.047917,184.366683,-41.707939,-114.111334,-1.881295,-4.140782,1.386097,3.064552,4.468481,-1.304414,-3.219054,-0.046595,0.391648,-0.014723,53.235827,188.495018,1229.240632,-13.796677,0
0.048958,158.388155,21.268805,-164.297738,-2.827076,-3.737140,-0.277773,4.112272,4.096286,0.347757,-4.209093,-0.064826,0.413283,-0.007290,36.550990,188.419965,1228.786251,-13.150114,0
0.050000,100.137040,78.208614,-181.370837,-3.164855,-2.386774,-1.978436,4.425428,2.706253,2.137968,-4.513721,-0.075764,0.422171,0.000144,16.308523,188.495197,1228.548938,-13.591797,0
0.051042,25.885230,131.249079,-185.514557,-3.288707,-0.926324,-3.425635,4.259185,1.175697,3.496803,-4.250979,-0.097641,0.408391,-0.033307,-4.024012,188.495278,1228.449382,-13.863170,0
0.052083,-39.100640,165.133434,-142.473336,-2.455519,0.831354,-4.181939,3.176669,-0.624511,4.178377,-3.161937,-0.039302,0.396884,-0.018440,-20.123416,188.495235,1228.943006,-13.815089,0
0.053125,-90.628300,193.086558,-65.176552,-1.003069,2.688107,-4.549871,1.711407,-2.455101,4.583871,-1.657839,-0.010133,0.409975,-0.003573,-35.547321,188.495376,1228.900870,-13.533652,0
0.054167,-143.997847,163.958933,-3.433908,0.179157,3.733907,-3.916211,0.029642,-3.602069,3.854845,0.070921,0.022683,0.405566,-0.007290,-48.652010,188.495193,1229.437101,-14.346924,0
0.055208,-183.954383,116.955402,57.871275,1.350125,4.629258,-2.857384,-1.841563,-4.433810,2.797974,1.868222,0.066437,0.404394,-0.022156,-56.555354,188.419864,1229.772387,-14.727923,0
0.056250,-184.259481,42.022238,114.765402,2.453536,4.596233,-1.352952,-3.194707,-4.460395,1.219137,3.159081,0.077375,0.405428,-0.025873,-52.569907,188.495410,1230.456998,-15.523288,0
0.057292,-158.789449,-20.966251,164.648015,3.444354,4.166905,0.245508,-4.184435,-4.012242,-0.355386,4.149120,0.066437,0.403016,0.000144,-37.855277,188.419817,1231.470695,-15.867918,0
0.058333,-100.357535,-78.023510,181.672507,3.759615,2.842225,1.991141,-4.466663,-2.663986,-2.102459,4.461363,0.117483,0.403154,0.007577,-16.160486,188.495180,1233.137651,-15.563651,0
0.059375,-26.783722,-131.240151,185.512435,3.815911,1.348750,3.475133,-4.304285,-1.141026,-3.504432,4.114849,0.110191,0.408115,-0.022156,4.779998,188.570705,1233.440920,-15.949809,0
0.060417,38.371648,-165.265445,142.932977,3.039020,-0.430945,4.210996,-3.225636,0.697161,-4.246399,3.021998,0.051852,0.410389,-0.048173,20.372778,188.495302,1234.490703,-16.772379,0
0.061458,90.701602,-192.960179,66.584024,1.552792,-2.273020,4.619810,-1.771973,2.546741,-4.617382,1.529324,0.040913,0.416865,0.003860,36.370857,188.430180,1235.030401,-17.466507,0
0.062500,144.500547,-164.043964,4.683408,0.393084,-3.289464,3.986149,-0.144333,3.648133,-3.896984,-0.123279,0.026329,0.411836,-0.007290,49.104022,188.520270,1235.946090,-18.032341,0
0.063542,184.219784,-117.956545,-57.180752,-0.811661,-4.184816,2.902794,1.777132,4.514056,-2.814230,-1.928196,-0.035656,0.408942,-0.022156,56.478225,188.438748,1236.810391,-18.259183,0
0.064583,184.310183,-43.575396,-114.488036,-1.903813,-4.173807,1.398361,3.107079,4.514056,-1.278531,-3.241901,-0.057533,0.410251,0.003860,52.549070,188.511337,1237.622072,-19.058983,0
0.065625,158.828852,19.718464,-164.637985,-2.860854,-3.755487,-0.269597,4.166398,4.088690,0.300306,-4.254787,-0.090349,0.424927,-0.007290,36.010591,188.495875,1238.131281,-19.263007,0
0.066667,101.572130,77.644853,-181.480202,-3.198633,-2.441816,-1.998877,4.460223,2.725242,2.142282,-4.540375,-0.064826,0.418450,-0.014723,14.642291,188.495743,1238.783582,-19.614865,0
0.067708,28.009616,131.437000,-185.283675,-3.254929,-0.944671,-3.466516,4.266917,1.202282,3.531313,-4.323328,-0.072118,0.419690,-0.018440,-3.539904,188.571084,1240.056681,-19.824661,0
0.068750,-37.710749,165.074709,-142.947251,-2.444260,0.816676,-4.218733,3.188268,-0.609319,4.212887,-3.131474,-0.046595,0.416176,0.000144,-20.337324,188.495759,1240.152663,-20.502418,0
0.069792,-90.526600,192.992598,-66.160838,-0.980551,2.710124,-4.619370,1.695943,-2.489282,4.570930,-1.623569,-0.021072,0.411836,0.037311,-35.040696,188.495926,1240.109860,-21.479214,0
0.070833,-144.212546,163.982423,-4.090099,0.167898,3.730237,-3.936651,-0.020617,-3.621058,3.850531,0.048074,0.000805,0.407495,-0.014723,-48.359294,188.495770,1240.311515,-21.513110,0
0.071875,-184.474179,117.307753,57.482422,1.372643,4.625589,-2.820591,-1.868626,-4.498374,2.793660,1.860607,0.055498,0.402327,-0.007290,-56.532838,188.571109,1241.138511,-21.758460,0
0.072917,-184.440280,42.703448,114.680341,2.442277,4.596233,-1.336599,-3.156046,-4.441406,1.262275,3.181928,0.059144,0.409424,0.007577,-50.273209,188.495835,1241.336057,-21.737541,0
0.073958,-158.958948,-20.519941,164.963958,3.421836,4.166905,0.278213,-4.203766,-3.985657,-0.407151,4.137696,0.102898,0.421068,-0.011006,-36.402953,188.496058,1241.126414,-22.547282,0
0.075000,-100.741733,-77.964785,181.672507,3.770874,2.820208,2.003405,-4.462797,-2.641199,-2.158538,4.415669,0.121129,0.412800,-0.018440,-16.408169,188.495731,1240.804799,-23.399172,0
0.076042,-26.738522,-131.463306,185.670407,3.804652,1.323063,3.511926,-4.284955,-1.068866,-3.513059,4.118657,0.066437,0.417485,-0.007290,5.174040,188.571035,1240.838345,-24.222456,0
0.077087,38.947944,-165.523835,142.155270,2.960204,-0.379572,4.243701,-3.175376,0.738937,-4.211889,2.991536,0.044560,0.413834,-0.025873,20.890661,188.495723,1240.239220,-24.464779,0
0.078125,90.509503,-193.394744,65.538980,1.530273,-2.295037,4.632074,-1.702382,2.637890,-4.608755,1.510285,0.022683,0.407426,0.007577,37.339073,188.571219,1240.607410,-25.328226,0
0.079167,144.161549,-164.008729,3.565455,0.359306,-3.293134,3.965708,-0.059278,3.697506,-3.896984,-0.191820,0.000805,0.404532,-0.007290,48.541106,188.495812,1240.953431,-26.170980,0
0.080208,184.411883,-116.852514,-57.496696,-0.822920,-4.232519,2.870089,1.788730,4.582418,-2.801289,-1.954851,-0.039302,0.401018,-0.011006,57.491474,188.571214,1241.622841,-26.397022,0
0.081250,184.445783,-41.707939,-114.269306,-1.926332,-4.181146,1.353392,3.145740,4.544439,-1.239707,-3.321866,-0.021072,0.400123,-0.037023,53.134502,188.495783,1242.290906,-26.980453,0
0.082292,158.749752,21.421490,-164.164070,-2.928410,-3.766496,-0.253244,4.228256,4.100084,0.421091,-4.285250,-0.046595,0.422308,0.003860,36.539732,188.571087,1242.741356,-27.977887,0
0.083333,99.685043,78.102909,-181.796145,-3.254929,-2.397782,-2.068375,4.471822,2.694859,2.206988,-4.589877,-0.090349,0.389788,-0.033307,16.038323,188.495683,1243.280863,-28.390909,0
0.084375,26.032129,131.343040,-185.526709,-3.333744,-0.885959,-3.556455,4.263051,1.130122,3.591706,-4.296674,-0.097641,0.378281,-0.022156,-4.147853,188.571151,1243.256965,-29.226240,0
0.085417,-38.908541,165.638469,-141.768539,-2.500556,0.813006,-4.235085,3.184402,-0.647298,4.290535,-3.127666,-0.072118,0.431679,-0.003573,-19.999574,188.495645,1244.122013,-29.313863,0
0.086458,-90.413601,193.344948,-64.605424,-1.014329,2.783513,-4.664339,1.707541,-2.569038,4.609753,-1.615953,-0.006487,0.405015,-0.029590,-35.412221,188.571183,1244.950067,-29.742595,0
0.087500,-144.212546,163.747522,-3.032903,0.201676,3.829313,-3.908034,-0.090207,-3.693218,3.902297,0.131847,0.004452,0.402052,-0.033307,-48.787110,188.495759,1246.053825,-30.563710,0
0.088542,-184.089982,116.509092,57.907730,1.395162,4.706317,-2.816503,-1.926618,-4.517364,2.785032,1.921532,0.073729,0.398951,0.011294,-56.510321,188.495555,1246.238471,-31.081502,0
0.089583,-184.361180,41.035657,114.741099,2.487314,4.607241,-1.340687,-3.272030,-4.528758,1.219137,3.269508,0.073729,0.414798,-0.025873,-52.502357,188.495702,1247.606648,-31.635948,0
0.090625,-158.879849,-21.929342,164.392829,3.421836,4.199930,0.306830,-4.284955,-4.046424,-0.359700,4.236700,0.099252,0.406944,-0.018440,-37.708919,188.495682,1249.035172,-30.857076,0
0.091667,-99.137143,-78.070490,182.401607,3.849689,2.842225,2.138313,-4.547851,-2.626007,-2.210304,4.461363,0.095606,0.386756,-0.018440,-15.653861,188.570964,1249.681835,-31.146729,0
0.092708,-25.800628,-131.298876,185.682558,3.905986,1.356088,3.614129,-4.370010,-1.034684,-3.595021,4.229084,0.113837,0.367051,-0.014723,5.038940,188.571042,1251.414076,-31.460282,0
0.093750,38.755845,-165.911421,142.021602,3.039020,-0.482317,4.255966,-3.248833,0.742735,-4.328360,3.056269,0.040913,0.409080,-0.014723,20.293970,188.495758,1253.299525,-31.390598,0
0.094792,90.396504,-193.300784,65.393160,1.564051,-2.375765,4.713837,-1.733311,2.649284,-4.630324,1.555979,0.037267,0.409493,-0.007290,36.235757,188.495731,1253.780598,-30.989106,0
0.095833,144.489247,-163.820809,3.978611,0.393084,-3.388540,3.990237,-0.039948,3.746879,-3.944436,-0.184204,0.011744,0.409424,-0.022156,49.362964,188.571183,1254.753569,-31.004070,0
0.096875,184.174584,-117.099159,-57.399482,-0.789143,-4.261874,2.910970,1.808061,4.582418,-2.809916,-1.996737,-0.046595,0.406048,-0.025873,56.365642,188.571218,1254.941417,-31.477921,0
0.097917,184.479682,-42.483110,-114.585249,-1.915073,-4.217841,1.369744,3.180536,4.590014,-1.265590,-3.340905,-0.064826,0.385102,-0.029590,52.504036,188.495613,1255.822827,-31.413119,0
0.098958,159.213049,20.423164,-164.443558,-2.917150,-3.784843,-0.277773,4.263051,4.130467,0.395208,-4.319521,-0.042949,0.422446,-0.037023,35.965557,188.495785,1256.599958,-31.424801,0
0.100000,100.577737,77.562638,-182.002724,-3.288707,-2.445485,-2.039758,4.483420,2.706253,2.206988,-4.589877,-0.097641,0.422722,-0.003573,14.653549,188.571178,1256.810334,-31.665415,0
0.101042,27.489820,131.636665,-185.405192,-3.333744,-0.933663,-3.552367,4.321043,1.187090,3.583078,-4.300481,-0.053887,0.405290,-0.059323,-3.449837,188.571105,1257.038175,-31.298335,0
0.102083,-37.688149,165.650214,-142.376122,-2.523075,0.831354,-4.247349,3.199866,-0.613117,4.286221,-3.146705,-0.028364,0.420241,-0.044457,-20.213482,188.495826,1257.144668,-31.232139,0
0.103125,-90.368401,193.145283,-65.905653,-1.036847,2.761497,-4.668427,1.680478,-2.557645,4.605440,-1.593106,-0.050241,0.413972,0.007577,-35.029438,188.495743,1256.978290,-31.718400,0
0.104167,-144.924441,163.735777,-4.333132,0.156639,3.777941,-3.957092,0.018044,-3.662835,3.876414,0.116615,0.019036,0.412387,-0.011006,-48.742077,188.571123,1256.593591,-31.732762,0
0.105208,-184.677578,117.319498,57.336602,1.350125,4.662283,-2.865561,-1.857027,-4.502172,2.772091,1.891069,0.059144,0.406875,-0.022156,-56.397738,188.571129,1256.456305,-31.768200,0
0.106250,-184.451580,42.985329,114.874767,2.487314,4.618250,-1.340687,-3.217904,-4.460395,1.236392,3.269508,0.081021,0.412869,-0.007290,-50.228176,188.495638,1255.954421,-32.239329,0
0.107292,-159.184947,-20.332021,165.097626,3.478132,4.203599,0.298654,-4.265624,-4.000849,-0.394210,4.191006,0.091960,0.416865,0.000144,-36.538053,188.570316,1255.294356,-33.114522,0
0.108333,-100.820832,-77.835590,181.988450,3.849689,2.794522,2.072903,-4.513056,-2.637401,-2.162852,4.476594,0.095606,0.420724,-0.014723,-16.441944,188.495459,1255.431711,-32.992900,0
0.109375,-27.292218,-131.803912,185.670407,3.894726,1.330402,3.544631,-4.315884,-1.129632,-3.564825,4.171967,0.081021,0.422102,-0.003573,5.095231,188.570781,1254.981167,-32.258844,0
0.110417,38.055250,-165.653031,142.519820,3.039020,-0.408928,4.198732,-3.194707,0.731342,-4.216203,3.014383,0.066437,0.417830,-0.051890,20.721786,188.495296,1253.385388,-32.398986,0
0.111458,90.554703,-193.324274,65.381008,1.530273,-2.342740,4.640250,-1.729445,2.641688,-4.626010,1.510285,0.015390,0.409975,-0.025873,37.350331,188.570874,1253.091970,-32.762417,0
