1-Time,2-VGERA,3-VGERB,4-VGERC,5-VN,6-IGERAN,7-IGERBN,8-IGERCN,9-IGERAT,10-IGERBT,11-IGERCT,12-IN,13-IFD,14-IFAULT,15-VFAULT,16-Speed (rad/s),17-Active Power,18-Reactive Power,19-FAULT 
0.000000,177.417229,-128.562289,2.253074,0.381825,-5.304005,0.467886,5.364897,5.800788,-0.299504,-5.985666,-0.104934,0.190460,0.029877,157.870696,188.420638,1005.855480,-1296.476295,0
0.001042,191.881133,-73.572151,-56.998477,-0.789143,-3.733470,-2.178847,6.087863,4.177882,2.403448,-6.773889,-0.104934,0.194249,0.007577,166.697223,188.420714,1004.797824,-1297.311590,0
0.002083,169.213483,-27.766612,-142.108786,-2.433000,-2.034504,-4.151412,6.292767,2.588322,4.277436,-6.804352,-0.075764,0.204860,0.029877,164.929666,188.495911,1004.828467,-1297.547342,0
0.003125,116.623631,17.334227,-187.531735,-3.345004,0.229560,-5.220925,4.842970,0.153962,5.331279,-5.307870,-0.042949,0.216022,0.022444,129.060644,188.420689,1003.556866,-1298.603153,0
0.004167,61.943292,84.057629,-194.859193,-3.491375,2.790852,-6.394476,3.443432,-2.298925,6.389531,-3.883737,0.008098,0.202449,0.029877,73.478295,188.420616,1002.661380,-1299.099885,0
0.005208,18.359480,150.581366,-156.022450,-2.703224,4.665953,-5.940869,1.100559,-4.162674,5.935364,-1.530491,0.022683,0.202311,0.033594,11.321085,188.420737,1002.555103,-1300.129185,0
0.006250,-31.201992,201.155380,-91.412011,-1.464701,6.108056,-4.592534,-1.547737,-5.589201,4.537590,1.096920,0.081021,0.193354,0.055894,-57.669928,188.496089,1002.368067,-1300.842370,0
0.007292,-104.199510,176.032803,-45.029081,-0.597734,6.647468,-2.582515,-3.801689,-6.067181,2.469589,3.328315,0.161237,0.186808,0.037311,-112.002603,188.420698,1001.947023,-1301.164560,0
0.008333,-177.818523,128.442022,-1.331669,0.224195,6.240157,-0.435166,-5.340407,-5.689244,0.313400,4.798142,0.161237,0.191080,0.026161,-157.655109,188.345276,1002.237007,-1301.024732,0
0.009375,-191.593132,72.923359,57.689000,1.372643,4.607241,2.298959,-6.121365,-4.044105,-2.407190,5.586365,0.132068,0.189978,0.011294,-166.233953,188.420761,1001.684159,-1301.891940,0
0.010417,-169.230580,27.012115,142.398304,3.016501,2.937631,4.254877,-6.295341,-2.391556,-4.356137,5.567326,0.161237,0.195834,0.011294,-164.443879,188.496098,1001.078096,-1302.907402,0
0.011458,-115.589835,-17.560198,187.809101,3.872208,0.636872,5.324390,-4.826212,-0.027596,-5.326201,4.086076,0.113837,0.182261,0.022444,-128.360949,188.496139,1000.483382,-1303.779285,0
0.012500,-61.237194,-84.295346,194.759857,4.052357,-1.818006,6.435519,-3.411210,2.388238,-6.441776,2.669559,0.117483,0.165863,0.018727,-72.969992,188.346451,1000.582787,-1303.481161,0
0.013542,-17.935880,-150.960023,155.813749,3.297983,-3.729801,5.986074,-1.072204,4.274219,-5.881784,0.316312,0.062790,0.181365,0.022444,-10.767748,188.420191,1000.393991,-1303.757420,0
0.014583,31.602993,-201.275646,91.932411,2.115757,-5.153556,4.583638,1.487172,5.652578,-4.484009,-2.292059,-0.017425,0.191493,0.007577,58.133199,188.495685,999.500232,-1303.640776,0
0.015625,104.476211,-175.906424,45.841120,1.215013,-5.630588,2.656850,3.729526,6.160199,-2.464512,-4.470145,-0.042949,0.188600,0.037311,112.420840,188.495702,999.300643,-1303.292060,0
0.016666,177.801427,-128.256918,1.681945,0.348047,-5.270979,0.426270,5.372629,5.767441,-0.281867,-6.008513,-0.064826,0.188737,0.037311,158.028313,188.344988,999.160984,-1303.318138,0
0.017708,191.350037,-73.865777,-57.739729,-0.834180,-3.693106,-2.216301,6.122658,4.163061,2.363764,-6.770081,-0.064826,0.195834,0.022444,166.877356,188.420251,999.313945,-1302.829958,0
0.018750,169.337782,-27.895807,-142.558398,-2.489297,-2.034504,-4.176381,6.234775,2.525333,4.334758,-6.792928,-0.075764,0.204791,0.044744,165.030991,188.495613,998.603626,-1303.707479,0
0.019791,116.714030,17.498657,-187.568190,-3.390041,0.280933,-5.195956,4.804309,0.179899,5.291594,-5.273599,-0.039302,0.216849,0.029877,129.038127,188.495631,998.428590,-1302.996343,0
0.020833,62.496988,84.468704,-194.616159,-3.513893,2.772505,-6.361184,3.369976,-2.265577,6.420396,-3.834235,-0.028364,0.205273,0.033594,73.410745,188.344889,998.266109,-1303.096054,0
0.021875,18.766277,150.604856,-155.779416,-2.770779,4.651275,-5.870123,1.027103,-4.233074,5.855995,-1.484797,0.026329,0.205549,0.011294,11.377376,188.495644,996.908331,-1303.659468,0
0.022916,-31.563590,201.037929,-91.497073,-1.520997,6.049344,-4.500980,-1.559336,-5.566970,4.449402,1.154038,0.073729,0.192527,0.022444,-57.816287,188.495761,995.551719,-1303.698081,0
0.023958,-104.696707,175.692198,-44.944019,-0.608994,6.581418,-2.520092,-3.836484,-6.033834,2.385810,3.366394,0.099252,0.183157,0.011294,-112.070153,188.495658,994.443140,-1303.878694,0
0.025000,-178.078422,127.983967,-1.173697,0.224195,6.174106,-0.335289,-5.336541,-5.633665,0.242850,4.801950,0.161237,0.190253,-0.018440,-157.880276,188.344791,993.409913,-1303.918102,0
0.026041,-191.367134,72.676714,58.114309,1.395162,4.541191,2.290636,-6.102034,-4.007053,-2.446874,5.487362,0.157591,0.189426,0.015011,-166.076336,188.495680,992.401567,-1303.093243,0
0.027083,-168.902882,26.906410,142.920826,3.061538,2.834886,4.284008,-6.198687,-2.384146,-4.347318,5.525440,0.157591,0.199761,0.059611,-164.106129,188.495700,992.158559,-1302.628791,0
0.028125,-115.589835,-18.029999,187.663281,3.917245,0.534127,5.282775,-4.748890,-0.001659,-5.321792,4.017535,0.110191,0.213128,0.026161,-127.854324,188.495580,991.319789,-1302.424112,0
0.029166,-61.022495,-84.706421,194.577582,4.074875,-1.957446,6.418873,-3.314557,2.454933,-6.415319,2.578170,0.110191,0.207478,0.037311,-72.260717,188.420365,989.954605,-1302.787910,0
0.030208,-17.585582,-150.877808,155.437047,3.252946,-3.777504,5.927812,-0.987149,4.289040,-5.828871,0.243963,0.062790,0.208787,0.029877,-10.272382,188.495727,988.777155,-1302.761956,0
0.031250,31.998490,-201.310881,91.033187,2.070720,-5.168234,4.508731,1.610888,5.685925,-4.444325,-2.337753,0.029975,0.199210,0.044744,58.684856,188.495732,988.376320,-1303.042405,0
0.032291,104.713509,-175.800719,44.796077,1.192494,-5.615910,2.606912,3.802982,6.145378,-2.376324,-4.572957,-0.042949,0.183983,0.029877,112.533423,188.495732,987.302849,-1303.871452,0
0.033333,178.117824,-127.751883,1.329547,0.348047,-5.248963,0.442917,5.415157,5.767441,-0.290685,-5.966627,-0.072118,0.190460,0.037311,158.185930,188.420245,987.569453,-1303.129843,0
0.034375,191.282237,-72.421140,-58.031369,-0.834180,-3.641734,-2.220462,6.095595,4.140829,2.429904,-6.751042,-0.112226,0.195490,-0.003573,166.573381,188.495707,987.139786,-1302.979183,0
0.035416,168.840586,-26.486406,-142.801431,-2.478038,-2.016157,-4.193027,6.188382,2.488280,4.255389,-6.724387,-0.130457,0.200795,0.048461,164.738274,188.495622,986.706572,-1301.215810,0
0.036458,115.550138,18.403023,-187.762616,-3.356263,0.339644,-5.266702,4.812041,0.165078,5.282775,-5.300254,-0.064826,0.199624,0.033594,128.587794,188.495662,987.225900,-1300.784827,0
0.037500,61.389596,85.173405,-194.397429,-3.480115,2.827547,-6.369507,3.358377,-2.321156,6.411578,-3.860890,-0.021072,0.192320,0.007577,73.129287,188.420359,987.585949,-1300.760764,0
0.038541,17.975283,151.203852,-155.123226,-2.703224,4.684300,-5.899254,1.058032,-4.203432,5.860405,-1.446718,0.037267,0.200106,0.033594,10.927043,188.495694,987.666489,-1300.274385,0
0.039583,-32.072087,201.108399,-91.387708,-1.509738,6.089708,-4.496819,-1.590265,-5.574380,4.436174,1.154038,0.113837,0.198108,0.037311,-58.086487,188.495734,987.759462,-1300.231409,0
0.040625,-105.284303,175.257632,-45.150597,-0.620253,6.596096,-2.553385,-3.840350,-6.030128,2.425495,3.347354,0.121129,0.187635,0.033594,-112.565519,188.495703,988.325399,-1299.809612,0
0.041666,-178.553019,128.218867,-0.967119,0.212935,6.199793,-0.360259,-5.340407,-5.633665,0.211984,4.805758,0.143006,0.193560,0.026161,-158.037893,188.420216,988.293029,-1300.167175,0
0.042708,-191.152435,73.216985,59.013533,1.395162,4.588894,2.269828,-6.125231,-4.021874,-2.411599,5.517824,0.183114,0.197212,0.015011,-166.504153,188.495680,989.031923,-1300.251909,0
0.043750,-169.309680,27.164800,143.431196,3.061538,2.911945,4.246554,-6.218018,-2.398967,-4.298815,5.555903,0.150299,0.208236,0.033594,-164.533946,188.495772,989.718897,-1300.167451,0
0.044791,-115.725434,-18.382349,188.052134,3.905986,0.556143,5.282775,-4.810748,-0.001659,-5.361477,4.108923,0.143006,0.219536,0.022444,-127.888099,188.495749,991.038024,-1300.991552,0
0.045833,-61.508392,-85.528572,194.383155,4.074875,-1.887726,6.427196,-3.360951,2.421585,-6.424138,2.623864,0.139360,0.206445,0.018727,-72.091842,188.420363,991.979645,-1300.795017,0
0.046875,-17.777681,-151.605999,154.950981,3.286724,-3.781174,5.981912,-1.049007,4.314976,-5.890603,0.278234,0.073729,0.205411,0.015011,-9.664432,188.495642,993.060793,-1301.226763,0
0.047916,32.699085,-201.451821,91.203311,2.070720,-5.120531,4.583638,1.529700,5.634051,-4.488419,-2.326330,-0.021072,0.195972,0.018727,59.033865,188.495711,993.703643,-1300.666034,0
0.048958,105.459305,-175.448369,44.771773,1.147457,-5.645266,2.623558,3.837777,6.134262,-2.429236,-4.561533,-0.021072,0.188393,0.026161,113.253956,188.495655,994.458624,-1300.189161,0
0.050000,178.434222,-127.681413,0.770570,0.303010,-5.252632,0.401301,5.353299,5.745209,-0.251001,-6.016129,-0.068472,0.190460,0.022444,158.366063,188.495758,994.233215,-1300.795877,0
0.051041,190.977139,-72.256710,-58.517436,-0.845439,-3.619717,-2.228785,6.145855,4.174176,2.399039,-6.739619,-0.072118,0.194870,0.033594,166.505831,188.495667,994.849829,-1300.257365,0
0.052083,168.942285,-26.333721,-143.093071,-2.489297,-2.012488,-4.172219,6.207713,2.503101,4.277436,-6.720579,-0.072118,0.205205,0.015011,164.434300,188.495709,995.097603,-1300.438195,0
0.053125,115.267640,18.708393,-187.859830,-3.356263,0.332306,-5.237571,4.796576,0.105793,5.326869,-5.258368,-0.064826,0.204102,0.033594,127.957328,188.495618,994.401480,-1301.062876,0
0.054166,60.756800,85.701930,-194.531097,-3.491375,2.794522,-6.307084,3.346779,-2.287809,6.376303,-3.849467,-0.032010,0.194663,0.011294,72.138554,188.495693,994.535744,-1300.249424,0
0.055208,17.161688,151.321302,-154.722221,-2.759520,4.680631,-5.836831,1.015505,-4.140442,5.833948,-1.442911,0.019036,0.194456,0.033594,9.947569,188.495613,994.540708,-1299.065068,0
0.056250,-32.569283,201.425515,-90.427726,-1.498478,6.078700,-4.517626,-1.594131,-5.548444,4.440583,1.161653,0.066437,0.202655,0.033594,-58.761986,188.495736,994.804569,-1298.518384,0
0.057291,-105.578101,175.222397,-43.813913,-0.597734,6.533715,-2.553385,-3.817153,-6.015307,2.394629,3.320700,0.121129,0.187359,0.033594,-113.060886,188.495734,994.885985,-1297.761271,0
0.058333,-178.677318,127.150071,-0.213715,0.235454,6.174106,-0.335289,-5.355872,-5.626254,0.203166,4.779103,0.161237,0.191287,0.018727,-158.195509,188.495638,994.998470,-1296.941709,0
0.059375,-190.982936,71.831073,59.256566,1.406421,4.541191,2.294797,-6.063373,-4.014463,-2.407190,5.529248,0.153945,0.193423,0.037311,-166.278986,188.495667,995.244544,-1296.451984,0
0.060416,-168.812483,26.272179,143.771443,3.061538,2.816539,4.259039,-6.210286,-2.354504,-4.294406,5.506401,0.161237,0.213886,0.037311,-164.353813,188.495669,994.656129,-1295.816085,0
0.061458,-115.047438,-18.805169,187.906314,3.939764,0.548804,5.303583,-4.714095,-0.012775,-5.299745,4.036574,0.143006,0.216918,0.044744,-127.764258,188.495569,993.925070,-1294.477720,0
0.062500,-60.852996,-86.021862,194.213032,4.041097,-1.924420,6.385580,-3.291360,2.443817,-6.362407,2.589594,0.117483,0.205480,0.011294,-71.877934,188.495655,993.293448,-1293.891944,0
0.063541,-17.336984,-151.676469,154.902374,3.252946,-3.740809,5.873712,-0.987149,4.277924,-5.780368,0.243963,0.062790,0.197419,0.037311,-9.596882,188.495622,992.098470,-1292.899615,0
0.064583,33.026783,-201.393096,91.179008,2.104498,-5.124201,4.546184,1.587691,5.652578,-4.453144,-2.352985,0.037267,0.193767,0.033594,59.259031,188.495615,991.692499,-1293.186989,0
0.065625,105.933901,-175.189979,44.832532,1.203754,-5.593893,2.544489,3.779785,6.126852,-2.385143,-4.557725,-0.061180,0.188117,0.026161,113.456606,188.495613,991.307779,-1293.120772,0
0.066666,178.942719,-127.622688,0.709812,0.348047,-5.208598,0.397140,5.361031,5.689630,-0.251001,-5.886662,-0.068472,0.194870,0.018727,158.816396,188.571011,990.828904,-1291.440099,0
0.067708,190.875440,-71.822145,-59.149323,-0.856698,-3.542658,-2.274562,6.076264,4.070429,2.473998,-6.716772,-0.075764,0.190391,-0.003573,166.427023,188.495658,989.414229,-1291.619568,0
0.068750,168.614587,-26.709561,-143.737110,-2.500556,-1.964784,-4.234642,6.172917,2.451227,4.303892,-6.678693,-0.075764,0.202449,0.048461,164.490591,188.495546,988.557888,-1291.843484,0
0.069791,115.459738,18.919803,-187.944891,-3.378782,0.354322,-5.245894,4.734718,0.053920,5.348916,-5.220290,-0.042949,0.211612,0.037311,127.844745,188.495738,987.874954,-1292.386753,0
0.070833,61.140997,86.206966,-194.142244,-3.502634,2.805530,-6.315407,3.323582,-2.335977,6.371893,-3.746655,-0.002841,0.203138,0.007577,71.958421,188.571006,986.526562,-1292.924505,0
0.071875,17.478086,151.802847,-154.357671,-2.691964,4.687970,-5.799377,0.980710,-4.225663,5.807492,-1.366754,0.037267,0.199899,0.022444,9.564786,188.495727,985.532989,-1294.117429,0
0.072916,-32.942181,201.284575,-90.439878,-1.498478,6.089708,-4.434396,-1.675319,-5.578086,4.374442,1.222579,0.037267,0.189978,0.037311,-58.975894,188.495568,984.576481,-1294.747719,0
0.073958,-106.086597,174.858302,-43.619487,-0.608994,6.559401,-2.495123,-3.848082,-6.030128,2.350535,3.393049,0.139360,0.183708,0.011294,-113.488702,188.495660,984.155415,-1295.568400,0
0.075000,-178.903316,127.126581,0.308807,0.246713,6.163098,-0.289513,-5.344273,-5.596612,0.185528,4.771487,0.150299,0.190047,0.022444,-158.251801,188.571026,983.953933,-1295.376308,0
0.076041,-190.790838,71.419998,59.961363,1.440199,4.522844,2.378028,-6.136829,-4.029284,-2.455693,5.517824,0.164883,0.193285,0.033594,-166.121370,188.495589,984.056967,-1295.492678,0
0.077083,-168.812483,25.473519,143.820049,3.061538,2.812869,4.279847,-6.163892,-2.317451,-4.325271,5.494977,0.161237,0.206169,0.018727,-163.824671,188.495709,983.749244,-1295.658315,0
0.078125,-114.211244,-19.498125,188.295168,3.962282,0.504771,5.307744,-4.717961,0.031688,-5.357067,4.025150,0.113837,0.222223,0.033594,-126.751008,188.495703,983.765880,-1296.224009,0
0.079166,-59.937702,-86.503408,194.200880,4.074875,-1.935429,6.439680,-3.326155,2.417880,-6.406500,2.547708,0.124775,0.211750,0.026161,-70.966010,188.571011,984.021492,-1296.074337,0
0.080208,-16.534689,-152.134524,153.954543,3.252946,-3.770165,5.911166,-0.963952,4.274219,-5.811234,0.228732,0.040913,0.203069,0.022444,-8.538600,188.495631,984.497000,-1295.777418,0
0.081250,33.614379,-201.604506,90.243329,2.059460,-5.175573,4.525377,1.603156,5.678515,-4.444325,-2.333946,0.000805,0.188669,0.044744,59.709364,188.495645,984.995462,-1295.492818,0
0.082291,106.261599,-174.755413,43.787488,1.169976,-5.619579,2.556973,3.830045,6.126852,-2.393961,-4.546302,-0.042949,0.187842,0.003860,113.951972,188.495747,985.436427,-1294.878001,0
0.083333,179.055718,-127.152888,-0.177260,0.336788,-5.252632,0.413786,5.318504,5.700746,-0.224545,-5.985666,-0.068472,0.194112,0.044744,158.715071,188.495756,985.750913,-1295.875756,0
0.084375,190.638142,-71.645970,-59.769058,-0.822920,-3.590361,-2.220462,6.107193,4.129713,2.407857,-6.743426,-0.032010,0.198177,0.015011,166.854839,188.495761,987.122934,-1295.414081,0
0.085416,168.614587,-25.922646,-143.931536,-2.455519,-1.957446,-4.151412,6.199980,2.443817,4.264208,-6.686309,-0.086703,0.200519,0.044744,164.591916,188.495667,987.464577,-1294.870561,0
0.086458,114.804343,19.401348,-188.163621,-3.299967,0.332306,-5.216763,4.792710,0.124320,5.318051,-5.231713,-0.075764,0.218227,0.037311,127.844745,188.495673,988.329335,-1293.798871,0
0.087500,60.892399,86.888176,-194.008576,-3.513893,2.809200,-6.336215,3.315850,-2.332272,6.389531,-3.792349,-0.017425,0.202173,0.022444,71.879613,188.646567,989.244704,-1293.734460,0
0.088541,17.331187,152.037747,-154.114637,-2.691964,4.651275,-5.845154,0.976843,-4.166379,5.820720,-1.401024,0.029975,0.201760,0.015011,9.350878,188.495642,989.861729,-1292.879189,0
0.089583,-33.416778,201.214105,-90.743669,-1.509738,6.067692,-4.459365,-1.613461,-5.559559,4.383261,1.154038,0.091960,0.190667,0.037311,-59.133511,188.495664,990.496276,-1292.135656,0
0.090625,-106.708093,174.552932,-43.923278,-0.620253,6.533715,-2.524254,-3.817153,-6.033834,2.385810,3.351162,0.117483,0.189358,0.022444,-113.736385,188.495615,991.151798,-1291.612894,0
0.091666,-179.377913,126.750741,0.454627,0.257972,6.133742,-0.289513,-5.371336,-5.604023,0.247259,4.744832,0.150299,0.189840,0.041027,-158.499484,188.646509,991.955875,-1290.852471,0
0.092708,-190.643939,71.972014,60.483885,1.428940,4.464132,2.269828,-6.044042,-3.999642,-2.429236,5.460707,0.121129,0.197143,0.029877,-166.290244,188.495752,991.566421,-1290.154574,0
0.093750,-168.654284,26.002044,144.573453,3.084057,2.842225,4.234070,-6.140695,-2.376735,-4.307634,5.453091,0.164883,0.209201,0.022444,-163.959771,188.495674,991.969746,-1289.622785,0
0.094791,-114.640641,-19.662555,188.185803,3.917245,0.526788,5.253644,-4.694764,0.031688,-5.339430,4.017535,0.153945,0.220845,0.026161,-126.728492,188.495716,991.868453,-1289.520806,0
0.095833,-60.208901,-87.231598,194.103667,4.018579,-1.909742,6.364773,-3.337754,2.432701,-6.397682,2.574363,0.110191,0.208581,0.007577,-70.673293,188.646464,992.261762,-1289.618221,0
0.096875,-16.444290,-152.451639,153.905937,3.219168,-3.748148,5.861228,-0.991015,4.274219,-5.820052,0.228732,0.062790,0.205205,0.018727,-8.122042,188.495575,992.479604,-1289.670476,0
0.097916,34.145476,-201.792427,90.109660,2.036942,-5.131540,4.571154,1.630219,5.656283,-4.417868,-2.402487,-0.010133,0.193698,0.000144,60.317314,188.495647,991.874782,-1289.909026,0
0.098958,106.724896,-174.579238,43.410786,1.192494,-5.604902,2.577781,3.818446,6.100915,-2.376324,-4.565341,-0.057533,0.187566,0.041027,114.323497,188.495586,991.673131,-1289.767003,0
0.100000,179.654614,-126.600872,-0.505355,0.314269,-5.223276,0.422109,5.337834,5.726683,-0.281867,-5.951395,-0.079410,0.195696,0.033594,158.962754,188.571022,992.717332,-1288.954697,0
0.101041,190.626842,-71.129189,-60.230822,-0.879217,-3.579352,-2.270401,6.080130,4.148239,2.399039,-6.728195,-0.075764,0.197901,0.033594,166.494573,188.571040,993.139013,-1288.524667,0
0.102083,168.354689,-25.253180,-144.247480,-2.489297,-1.946437,-4.176381,6.192248,2.499396,4.299483,-6.735811,-0.083057,0.187911,-0.003573,164.017742,188.495631,994.345295,-1288.816379,0
0.103125,114.002048,20.106049,-188.394503,-3.401300,0.357992,-5.250056,4.769514,0.120615,5.353326,-5.288831,-0.024718,0.199968,0.026161,126.831495,188.495528,995.336612,-1289.050229,0
0.104166,59.818906,87.416702,-194.069334,-3.468856,2.853233,-6.365345,3.339047,-2.254461,6.389531,-3.807580,-0.039302,0.204309,0.037311,70.967689,188.571154,996.252804,-1287.904339,0
0.105208,16.359393,152.730703,-153.276172,-2.703224,4.673292,-5.865962,1.027103,-4.207137,5.864814,-1.442911,-0.013779,0.209201,0.029877,8.427695,188.495680,997.522660,-1287.898946,0
0.106250,-34.117373,201.636925,-89.698626,-1.475960,6.097047,-4.542596,-1.605729,-5.589201,4.440583,1.165461,0.066437,0.200726,0.026161,-59.696427,188.495649,998.638632,-1288.026030,0
0.107291,-107.284390,174.329776,-42.999751,-0.597734,6.563070,-2.507608,-3.809421,-6.059770,2.447542,3.366394,0.117483,0.191149,0.055894,-114.479435,188.495712,999.839250,-1287.885523,0
0.108333,-179.750811,126.680271,1.013604,0.257972,6.170437,-0.389389,-5.332675,-5.618844,0.269306,4.725793,0.143006,0.199141,0.007577,-158.758425,188.571165,1000.479984,-1287.523277,0
0.109375,-190.485740,71.255568,61.322350,1.451458,4.570547,2.298959,-6.129097,-4.055221,-2.402780,5.578750,0.161237,0.197212,0.022444,-166.684286,188.495714,1002.246063,-1288.144544,0
0.110416,-168.789883,25.497009,144.877245,3.072797,2.915614,4.242393,-6.245081,-2.450841,-4.263540,5.506401,0.157591,0.203964,0.026161,-164.196196,188.495656,1003.823818,-1287.720082,0
