1-Time,2-VGERA,3-VGERB,4-VGERC,5-VN,6-IGERAN,7-IGERBN,8-IGERCN,9-IGERAT,10-IGERBT,11-IGERCT,12-IN,13-IFD,14-IFAULT,15-VFAULT,16-Speed (rad/s),17-Active Power,18-Reactive Power,19-FAULT 
0.000000,-109.171477,-91.835642,180.967710,3.815911,5.755786,-0.143859,-5.595572,-5.681833,-0.004075,5.072307,0.172176,0.613644,0.022444,-101.172095,188.495995,1596.730325,906.577136,0
0.001042,-24.987033,-139.543873,186.800512,3.939764,4.280658,2.419643,-6.438387,-4.281242,-2.517424,5.913840,0.194053,0.617847,0.059611,-19.436658,188.420670,1596.914993,906.855993,0
0.002083,51.795959,-167.038942,153.978847,3.275465,2.324829,4.487923,-6.268278,-2.243346,-4.492828,5.590173,0.150299,0.620327,0.022444,54.440468,188.420627,1595.841640,906.148422,0
0.003125,107.131694,-190.446747,73.741359,1.732941,-0.331869,6.152535,-5.085243,0.398510,-6.194850,4.493515,0.135714,0.623703,0.007577,106.881744,188.420611,1596.193498,905.721370,0
0.004167,151.630799,-173.428227,-0.104350,0.370565,-2.478511,6.631111,-3.399612,2.532743,-6.507916,2.604825,0.106545,0.622325,0.015011,150.969343,188.496065,1595.529745,904.522964,0
0.005209,182.897693,-125.285431,-70.037221,-1.014329,-4.570110,6.110919,-0.793843,4.637335,-6.044931,0.068803,0.040913,0.609234,0.029877,181.062845,188.420683,1595.236988,904.407757,0
0.006250,191.790734,-45.090502,-124.002795,-2.038925,-5.872773,4.812522,1.549030,5.930473,-4.678022,-2.288251,0.044560,0.600966,0.044744,184.372793,188.420661,1594.812930,903.949574,0
0.007292,159.823245,24.099352,-171.114826,-2.984706,-6.276415,2.860765,3.864840,6.393631,-2.632068,-4.557725,-0.053887,0.582432,0.015011,155.202473,188.420663,1594.261337,903.963553,0
0.008333,109.086581,91.903296,-181.030590,-3.198633,-5.770028,0.176579,5.569802,5.767441,-0.026122,-6.153211,-0.083057,0.617709,0.018727,101.680398,188.496141,1592.939764,904.402751,0
0.009375,24.958637,139.541057,-186.693269,-3.367522,-4.316917,-2.299531,6.447412,4.352029,2.504864,-7.009975,-0.083057,0.610130,0.022444,19.866153,188.495975,1592.487570,904.162036,0
0.010417,-51.575758,167.000890,-153.883756,-2.635668,-2.379435,-4.388619,6.277303,2.340069,4.564046,-6.701540,-0.068472,0.617089,0.022444,-53.977198,188.496139,1592.172049,903.856202,0
0.011458,-107.171390,190.068090,-73.220959,-1.081884,0.284602,-6.065715,5.152260,-0.261028,6.213155,-5.616305,-0.017425,0.625012,0.048461,-106.789999,188.420576,1591.963945,904.481301,0
0.012500,-151.704396,173.507626,0.709812,0.269232,2.460600,-6.544291,3.416369,-2.398967,6.543859,-3.773310,-0.017425,0.623703,0.018727,-150.776273,188.496042,1591.375408,904.475062,0
0.013542,-182.564492,124.988989,70.375346,1.564051,4.563208,-6.049069,0.853127,-4.551727,6.111740,-1.153515,0.022683,0.606823,0.022444,-180.565800,188.496045,1591.361591,903.880886,0
0.014583,-191.875631,44.817550,124.110038,2.667463,5.917243,-4.804772,-1.547737,-5.807812,4.696327,1.146422,0.099252,0.612197,0.052178,-183.988331,188.496016,1590.690724,903.634947,0
0.015625,-159.546544,-24.466264,171.173462,3.579466,6.357580,-2.836369,-3.817153,-6.270971,2.698877,3.446358,0.124775,0.607512,0.029877,-154.514037,188.420604,1589.742627,903.878772,0
0.016667,-108.922879,-92.000072,181.295805,3.759615,5.766795,-0.160505,-5.591706,-5.692949,0.066475,5.064691,0.157591,0.595592,0.026161,-101.183353,188.496096,1589.357552,904.892197,0
0.017708,-24.715835,-139.637833,186.812664,3.905986,4.350378,2.378028,-6.364931,-4.207137,-2.482149,5.871954,0.197699,0.591389,0.022444,-19.414141,188.496073,1588.364249,904.225071,0
0.018750,51.682960,-167.297332,154.076060,3.252946,2.343177,4.442146,-6.252813,-2.272988,-4.497237,5.582558,0.190407,0.628044,0.015011,54.451726,188.496047,1588.397535,904.516379,0
0.019792,107.572391,-190.223592,73.644145,1.699163,-0.287835,6.135889,-5.104574,0.379983,-6.190441,4.451629,0.146652,0.626873,0.059611,107.354594,188.420690,1587.900143,904.398756,0
0.020833,151.653399,-173.651382,-0.298777,0.336788,-2.460163,6.610303,-3.337754,2.521627,-6.521144,2.650519,0.102898,0.619500,0.044744,151.205768,188.495986,1588.003420,905.165276,0
0.021875,182.592595,-124.850866,-70.511136,-1.014329,-4.522407,6.094273,-0.801575,4.666977,-6.031703,0.072610,0.026329,0.604480,0.026161,180.984037,188.420598,1587.962351,905.201689,0
0.022917,191.926333,-44.867347,-124.039250,-2.061443,-5.883781,4.870784,1.549030,5.908241,-4.673613,-2.276828,0.037267,0.605100,0.033594,184.429084,188.496082,1587.585013,905.291812,0
0.023958,159.371248,24.510428,-171.078371,-2.984706,-6.320449,2.827473,3.837777,6.386221,-2.667343,-4.542494,-0.046595,0.596350,0.018727,154.887240,188.420540,1587.052812,905.876853,0
0.025000,108.781483,92.114706,-181.042742,-3.232411,-5.703977,0.234840,5.616195,5.785967,-0.048169,-6.198905,-0.090349,0.568583,0.011294,101.466490,188.496098,1587.487392,906.407595,0
0.026042,24.789138,139.775957,-186.559601,-3.333744,-4.305908,-2.278724,6.401019,4.344619,2.544548,-6.987128,-0.083057,0.604204,-0.014723,19.764828,188.495995,1587.513230,906.065293,0
0.027083,-51.496658,167.153575,-153.713632,-2.658186,-2.324393,-4.392781,6.246374,2.343775,4.555227,-6.682501,-0.090349,0.627493,0.011294,-53.920906,188.420737,1587.227316,906.018155,0
0.028125,-107.363489,190.185540,-73.087290,-1.104403,0.313958,-6.032423,5.132929,-0.264733,6.199927,-5.589650,-0.013779,0.622256,0.033594,-106.857549,188.420611,1586.970574,905.805259,0
0.029167,-151.885195,173.178766,0.831328,0.269232,2.445922,-6.560937,3.373842,-2.413788,6.521812,-3.727616,0.029975,0.622394,0.007577,-151.035215,188.495962,1586.741838,905.149740,0
0.030208,-182.914790,124.754089,70.630531,1.597829,4.566877,-6.069877,0.826064,-4.544316,6.050008,-1.206824,0.044560,0.609854,0.018727,-180.644608,188.420618,1585.977276,905.434187,0
0.031250,-191.559233,44.406475,124.438133,2.667463,5.917243,-4.771480,-1.567068,-5.796696,4.696327,1.161653,0.110191,0.600484,0.022444,-183.695614,188.420620,1585.771079,905.472712,0
0.032292,-159.591744,-24.889085,171.222069,3.568207,6.298868,-2.769784,-3.828752,-6.270971,2.681239,3.419703,0.102898,0.593801,0.041027,-154.660395,188.496035,1585.464757,905.575208,0
0.033333,-108.482182,-92.458128,180.919103,3.737096,5.752117,-0.156344,-5.576241,-5.626254,0.048837,5.022805,0.179468,0.586979,0.037311,-100.800570,188.496056,1584.347204,904.928102,0
0.034375,-24.523736,-139.896223,186.654692,3.905986,4.295336,2.382189,-6.391994,-4.251600,-2.464512,5.830067,0.175822,0.609648,0.022444,-19.256525,188.495913,1583.733356,905.551925,0
0.035417,52.067157,-167.097667,153.650752,3.241687,2.317490,4.425500,-6.198687,-2.265577,-4.466372,5.563518,0.172176,0.627837,-0.029590,54.710668,188.420562,1582.965211,905.543855,0
0.036458,107.493291,-190.528962,73.352505,1.732941,-0.284166,6.090112,-5.108440,0.372573,-6.150756,4.444013,0.143006,0.621223,0.018727,107.377110,188.496065,1582.437821,905.576446,0
0.037500,151.721199,-172.970172,-0.408142,0.291750,-2.493189,6.577011,-3.391880,2.514217,-6.547601,2.635288,0.102898,0.621361,0.033594,151.273318,188.496033,1582.338289,905.648757,0
0.038542,182.897693,-124.615965,-70.729866,-1.025588,-4.529746,6.065143,-0.797709,4.644745,-6.014065,0.095458,0.044560,0.604687,0.026161,181.017812,188.496027,1581.840419,905.994515,0
0.039583,191.542136,-44.561977,-124.306587,-2.095221,-5.821400,4.825007,1.599290,5.897125,-4.651566,-2.227326,0.022683,0.576851,0.022444,184.125109,188.420741,1581.034854,906.288503,0
0.040625,159.619847,24.839288,-171.054068,-3.018484,-6.258068,2.839957,3.833911,6.363989,-2.654115,-4.542494,-0.010133,0.568721,0.022444,155.033599,188.495987,1580.873358,906.095983,0
0.041667,108.600684,92.514036,-180.860467,-3.187373,-5.670952,0.218194,5.562069,5.756325,0.009153,-6.145595,-0.046595,0.581054,0.018727,101.297615,188.496096,1580.238594,905.389851,0
0.042708,24.540539,139.975622,-186.438084,-3.311226,-4.302239,-2.320339,6.412617,4.370555,2.482817,-6.979513,-0.093995,0.614333,0.037311,19.528403,188.496060,1579.560644,906.258201,0
0.043750,-51.858256,166.883440,-153.300475,-2.669446,-2.368426,-4.384457,6.246374,2.358596,4.506724,-6.682501,-0.057533,0.624048,0.003860,-54.236139,188.496109,1578.690993,906.690169,0
0.044792,-107.612087,190.056345,-72.710589,-1.115662,0.247908,-6.044908,5.148394,-0.261028,6.155833,-5.585842,-0.050241,0.621912,0.026161,-107.116490,188.496112,1577.969824,906.801653,0
0.045833,-151.964294,172.920375,1.208030,0.280491,2.475278,-6.531807,3.400905,-2.406377,6.535040,-3.750463,-0.013779,0.617089,0.018727,-151.023956,188.496100,1577.874421,907.353563,0
0.046875,-182.824390,124.448719,71.019384,1.609088,4.530182,-6.019938,0.872458,-4.533200,6.032371,-1.180169,0.051852,0.609510,0.015011,-180.655867,188.496094,1577.565198,907.094828,0
0.047917,-191.547933,44.030635,124.450285,2.678722,5.895226,-4.779803,-1.555469,-5.744823,4.718374,1.161653,0.091960,0.597314,0.018727,-183.706873,188.495987,1576.923584,907.316361,0
0.048958,-159.297946,-25.288415,171.222069,3.590725,6.342902,-2.740653,-3.809421,-6.270971,2.668011,3.412088,0.117483,0.586222,0.041027,-154.412712,188.496074,1576.677703,907.354230,0
0.050000,-108.346583,-92.599068,180.919103,3.827171,5.766795,-0.064790,-5.553044,-5.641075,0.075293,5.049460,0.117483,0.604549,0.037311,-100.789312,188.496042,1576.892770,907.842989,0
0.051042,-24.297738,-140.037164,186.484569,3.894726,4.254972,2.415481,-6.388128,-4.214548,-2.508605,5.856722,0.190407,0.615780,0.007577,-18.963808,188.496054,1577.409726,907.305492,0
0.052083,52.033258,-167.250352,153.480628,3.230428,2.324829,4.442146,-6.214152,-2.221114,-4.492828,5.559711,0.186760,0.624530,0.041027,54.823251,188.496054,1577.772910,906.722038,0
0.053125,107.832289,-190.540707,72.842135,1.687904,-0.280496,6.085950,-5.058180,0.387394,-6.177213,4.474476,0.139360,0.626459,0.044744,107.602277,188.495993,1578.181186,907.202500,0
0.054167,152.060197,-172.958427,-0.796996,0.314269,-2.485850,6.597818,-3.384147,2.469754,-6.485869,2.623864,0.117483,0.622187,0.029877,151.464710,188.496033,1577.068429,907.261161,0
0.055208,183.157591,-124.228380,-71.070113,-1.025588,-4.581119,6.123404,-0.789976,4.637335,-5.974381,0.045956,0.088314,0.605996,0.052178,181.209203,188.496118,1576.807135,906.627199,0
0.056250,191.530836,-43.927746,-124.610378,-2.072703,-5.836078,4.870784,1.610888,5.900831,-4.678022,-2.273020,0.000805,0.602620,0.003860,184.068818,188.496015,1577.152976,906.832208,0
0.057292,159.280849,25.426539,-171.345708,-3.029743,-6.272746,2.827473,3.884171,6.401042,-2.543880,-4.580572,-0.024718,0.609234,0.026161,154.898499,188.496069,1577.907935,905.934522,0
0.058333,108.284286,92.819406,-180.957680,-3.187373,-5.733333,0.189063,5.650990,5.763736,-0.004075,-6.225560,-0.072118,0.606547,0.018727,100.993640,188.496054,1578.754238,906.306024,0
0.059375,24.258041,140.257502,-186.498842,-3.288707,-4.247197,-2.345308,6.431948,4.370555,2.544548,-7.044246,-0.072118,0.619362,0.011294,19.325754,188.496000,1580.030525,906.313371,0
0.060417,-51.858256,167.212300,-153.118200,-2.624408,-2.295037,-4.401104,6.219311,2.340069,4.577274,-6.705348,-0.072118,0.628113,0.044744,-54.269914,188.496035,1581.094044,906.167583,0
0.061458,-107.555588,190.843261,-72.139460,-1.048106,0.354322,-6.069877,5.113599,-0.290670,6.208746,-5.524917,-0.024718,0.625081,0.037311,-107.127749,188.496027,1581.729119,905.530668,0
0.062500,-152.371092,172.403595,1.329547,0.257972,2.526650,-6.531807,3.393172,-2.443430,6.539450,-3.723808,-0.013779,0.614677,0.037311,-151.519323,188.495951,1581.966134,905.189809,0
0.063542,-183.626685,123.673548,71.396086,1.642866,4.632928,-6.028262,0.771939,-4.614716,6.019143,-1.134475,0.073729,0.602137,0.018727,-180.881033,188.495986,1582.934281,904.882175,0
0.064583,-191.095936,43.361169,124.984958,2.633685,5.968616,-4.738187,-1.644390,-5.826339,4.647824,1.199732,0.106545,0.595868,0.003860,-183.256540,188.495998,1583.656563,904.311369,0
0.065625,-159.546544,-26.122311,171.501557,3.534429,6.386936,-2.769784,-3.913807,-6.296907,2.663602,3.499668,0.153945,0.595868,0.011294,-154.874303,188.496051,1584.900801,904.405893,0
0.066667,-107.860686,-93.209808,180.821890,3.748356,5.748447,-0.093921,-5.599438,-5.659602,-0.043760,5.053268,0.146652,0.594972,0.052178,-100.147587,188.496036,1585.522169,903.680567,0
0.067708,-24.003940,-140.413004,186.922029,3.872208,4.284328,2.461258,-6.457718,-4.203432,-2.539471,5.910032,0.179468,0.620327,0.026161,-18.693609,188.496060,1586.531583,903.793130,0
0.068750,52.473955,-167.179882,152.909500,3.241687,2.299143,4.500408,-6.190955,-2.213703,-4.554559,5.571134,0.175822,0.630042,0.041027,55.059676,188.496024,1587.041197,903.803925,0
0.069792,107.719290,-191.586013,72.100883,1.676644,-0.386911,6.169181,-5.100707,0.431857,-6.190441,4.436397,0.153945,0.629766,0.033594,107.579760,188.496073,1587.475657,903.282863,0
0.070833,152.297495,-172.288961,-1.088636,0.303010,-2.515205,6.614465,-3.260431,2.580912,-6.494688,2.570555,0.091960,0.616331,0.026161,151.813718,188.496121,1588.372783,902.181053,0
0.071875,183.869486,-123.899520,-71.118720,-1.059366,-4.599466,6.069304,-0.731984,4.744787,-6.058159,-0.041625,0.073729,0.606134,0.037311,181.400595,188.495969,1590.693421,902.015132,0
0.072917,190.954540,-43.328750,-124.829109,-2.061443,-5.905798,4.783392,1.618620,5.945294,-4.638338,-2.364408,0.011744,0.603447,0.007577,183.584710,188.496007,1591.462015,901.070613,0
0.073958,159.585947,26.131239,-171.467225,-2.973447,-6.324118,2.802504,3.973091,6.423273,-2.614431,-4.645306,-0.046595,0.597728,0.022444,155.236248,188.496083,1592.331083,902.025849,0
0.075000,107.843589,93.312697,-180.702495,-3.153596,-5.692969,0.101671,5.635526,5.745209,0.075293,-6.221752,-0.083057,0.595523,0.029877,100.532049,188.496000,1592.366348,901.253473,0
0.076042,24.043343,140.457167,-186.863393,-3.299967,-4.283891,-2.424377,6.509270,4.344619,2.637145,-7.044246,-0.050241,0.618191,0.022444,19.044295,188.496085,1593.279752,900.424815,0
0.077083,-52.276353,167.059615,-152.802257,-2.635668,-2.269351,-4.451042,6.300500,2.269669,4.581683,-6.701540,-0.057533,0.628664,0.018727,-54.551373,188.496065,1593.259628,899.709170,0
0.078125,-107.623387,191.418766,-71.386056,-1.104403,0.391017,-6.103169,5.117465,-0.327723,6.266068,-5.540148,-0.039302,0.623634,0.011294,-107.195299,188.496065,1594.241292,899.897313,0
0.079167,-152.597090,172.098225,1.742704,0.280491,2.533989,-6.556776,3.311984,-2.491598,6.561497,-3.712384,-0.013779,0.614746,0.015011,-151.575614,188.496047,1594.781188,899.808328,0
0.080208,-184.022182,123.426903,71.541906,1.620348,4.640267,-6.069877,0.744876,-4.636948,6.023552,-1.134475,0.022683,0.608132,0.029877,-181.207525,188.495948,1595.089260,900.007817,0
0.081250,-191.016836,43.008819,124.851290,2.667463,5.946599,-4.729864,-1.679185,-5.878212,4.661052,1.256849,0.066437,0.600139,0.037311,-183.211506,188.496069,1596.053106,899.837980,0
0.082292,-159.354445,-26.662581,171.635226,3.556947,6.383266,-2.694877,-3.975665,-6.371013,2.619508,3.568209,0.117483,0.616055,0.037311,-154.739203,188.495977,1597.447033,899.750554,0
0.083333,-107.532988,-93.421219,180.919103,3.748356,5.752117,-0.010690,-5.645831,-5.667012,-0.079035,5.156079,0.197699,0.614884,0.041027,-99.843613,188.496159,1598.835777,899.584430,0
0.084375,-23.721442,-140.624414,187.031394,3.849689,4.265980,2.507035,-6.461584,-4.181200,-2.587974,5.948110,0.219576,0.615228,0.026161,-18.333342,188.496065,1599.661811,899.296196,0
0.085417,52.473955,-167.403037,152.751528,3.196650,2.240431,4.533700,-6.276010,-2.150714,-4.581016,5.590173,0.164883,0.626597,-0.011006,55.104709,188.496054,1600.297034,898.717908,0
0.086458,107.741889,-192.079303,71.323176,1.676644,-0.434614,6.235765,-5.058180,0.494846,-6.265400,4.417358,0.168530,0.629008,0.044744,107.557244,188.495982,1601.455554,898.282389,0
0.087500,152.636493,-172.077551,-1.404579,0.314269,-2.614281,6.647757,-3.272030,2.632785,-6.516735,2.532476,0.088314,0.616055,0.026161,152.083918,188.496098,1602.099738,897.859715,0
0.088542,184.468382,-123.194819,-71.361753,-1.070625,-4.676525,6.081789,-0.685591,4.789251,-6.040522,-0.072088,0.081021,0.608821,0.011294,181.805895,188.496071,1602.518274,897.641120,0
0.089583,190.954540,-42.800225,-124.889867,-2.095221,-5.964510,4.820845,1.750069,6.000873,-4.669203,-2.398679,0.059144,0.597935,0.029877,183.573452,188.496038,1603.396928,898.017050,0
0.090625,159.687646,26.695000,-171.564438,-2.995965,-6.382830,2.735919,4.065879,6.464031,-2.530652,-4.713847,-0.032010,0.623841,0.026161,155.506448,188.496114,1604.623947,897.232539,0
0.091667,107.481991,93.512362,-180.860467,-3.198633,-5.748011,0.068379,5.732179,5.767441,0.141434,-6.313140,-0.050241,0.631902,0.022444,99.969133,188.496096,1606.155246,896.918865,0
0.092708,23.580046,140.762538,-187.130729,-3.288707,-4.239858,-2.511769,6.544066,4.303861,2.694467,-7.131826,-0.108580,0.620947,0.007577,18.661512,188.496040,1607.609793,896.653423,0
0.093750,-52.321553,167.435456,-152.109612,-2.579371,-2.210639,-4.567565,6.254106,2.221501,4.674281,-6.709156,-0.075764,0.628871,0.037311,-54.495081,188.496076,1608.682007,896.064756,0
0.094792,-107.374789,192.393602,-70.426074,-1.036847,0.497432,-6.240500,5.098134,-0.431470,6.385121,-5.505878,-0.064826,0.622118,0.011294,-106.992649,188.496040,1610.685516,895.142702,0
0.095833,-153.015187,171.405269,2.034344,0.291750,2.710124,-6.581745,3.223063,-2.602757,6.557087,-3.601957,0.019036,0.616744,0.018727,-152.070980,188.497383,1611.451391,893.356881,0
0.096876,-185.050476,122.804417,71.809243,1.597829,4.820071,-6.032423,0.632758,-4.744401,6.107330,-1.020240,0.033621,0.606754,0.029877,-181.556533,188.495709,1613.863888,893.121068,0
0.097916,-190.553539,42.033983,125.252295,2.712500,5.983294,-4.642472,-1.787437,-5.922675,4.608140,1.382508,0.095606,0.609785,0.018727,-182.828723,188.571073,1614.828310,891.936370,0
0.098958,-159.908142,-27.202852,171.683832,3.534429,6.460325,-2.590838,-4.076184,-6.400655,2.500454,3.705292,0.117483,0.609027,-0.003573,-155.516028,188.495640,1616.914069,890.298208,0
0.100000,-107.137491,-93.785314,180.773283,3.849689,5.697075,0.072540,-5.727020,-5.652191,-0.140766,5.220813,0.186760,0.617227,0.044744,-99.033013,188.495680,1617.749879,889.684823,0
0.101041,-23.280745,-140.953274,187.493157,3.894726,4.221947,2.623558,-6.523442,-4.199726,-2.707028,6.028075,0.179468,0.626459,0.033594,-18.018109,188.495582,1619.892818,889.645838,0
0.102083,52.677353,-167.496997,151.949518,3.219168,2.163372,4.637738,-6.245081,-2.095135,-4.642747,5.571134,0.194053,0.629353,0.003860,55.183518,188.571189,1620.261113,888.848065,0
0.103125,107.222093,-193.136354,70.338891,1.687904,-0.548368,6.318996,-5.042716,0.572657,-6.331541,4.409742,0.157591,0.627010,0.015011,107.242011,188.495696,1621.622632,888.311634,0
0.104166,152.930291,-171.114460,-1.732674,0.291750,-2.713357,6.610303,-3.190841,2.721712,-6.565238,2.437280,0.095606,0.619087,0.029877,152.376634,188.495644,1622.574025,887.122035,0
0.105208,185.214178,-122.678039,-71.507573,-1.048106,-4.771931,6.094273,-0.600536,4.889293,-6.031703,-0.106358,0.044560,0.609648,-0.007290,181.850928,188.495656,1623.851050,886.805366,0
0.106250,190.310444,-41.931094,-125.193659,-2.140259,-5.953501,4.733453,1.804195,6.023104,-4.576606,-2.478644,0.029975,0.574371,0.007577,183.123119,188.571096,1624.010649,885.422620,0
0.107291,159.958844,27.352720,-171.527983,-3.063521,-6.371821,2.690142,4.158666,6.493673,-2.468921,-4.793811,-0.032010,0.580089,-0.003573,155.720356,188.495698,1625.249938,884.756962,0
0.108333,107.109094,93.747262,-180.763253,-3.243670,-5.751680,0.001794,5.743777,5.752620,0.216394,-6.335987,-0.083057,0.621292,0.003860,99.575092,188.495642,1625.688387,883.977118,0
0.109375,23.399247,140.926968,-187.385914,-3.390041,-4.217841,-2.557546,6.578861,4.289040,2.734152,-7.112787,-0.101287,0.632385,0.011294,18.481379,188.495653,1625.894448,883.558515,0
0.110416,-52.457152,167.329750,-151.684303,-2.646927,-2.140919,-4.584211,6.234775,2.147395,4.709556,-6.667270,-0.075764,0.628457,0.026161,-54.596406,188.570930,1625.913548,882.316132,0
