1-Time,2-VGERA,3-VGERB,4-VGERC,5-VN,6-IGERAN,7-IGERBN,8-IGERCN,9-IGERAT,10-IGERBT,11-IGERCT,12-IN,13-IFD,14-IFAULT,15-VFAULT,16-Speed (rad/s),17-Active Power,18-Reactive Power,19-FAULT 
0.000000,87.555213,60.612788,-208.209660,-1.041762,-0.520876,-5.363050,5.267025,0.985231,5.326836,-5.206584,-0.000585,0.335204,-0.031958,16.899478,188.419401,1540.502408,-930.223888,0
0.001042,33.360746,141.881029,-180.855493,-0.510192,2.053076,-6.470285,3.770745,-1.628228,6.447353,-3.726520,-0.029809,0.324491,-0.020755,4.865638,188.494851,1539.758720,-930.069941,0
0.002083,-17.805274,192.016780,-127.021213,0.462468,4.069634,-6.021835,1.461027,-3.609457,6.262698,-1.552675,-0.051727,0.302476,-0.024490,-12.642241,188.493574,1539.827202,-929.501386,0
0.003125,-79.894122,202.551329,-63.203030,1.650018,6.139446,-5.081281,-1.412127,-5.638471,5.192542,1.275813,-0.132093,0.297773,-0.017021,-35.533681,188.495463,1539.242370,-929.030832,0
0.004167,-151.193080,167.746244,-9.282576,2.769708,6.714592,-3.295418,-3.565128,-6.417730,3.518061,3.378500,-0.197847,0.313255,-0.054364,-50.485500,188.420195,1538.997338,-928.943128,0
0.005208,-198.389224,101.482486,40.735417,3.708438,6.277907,-0.751556,-5.423350,-5.903125,1.092373,5.168097,-0.234377,0.321551,-0.028224,-58.651320,188.495383,1539.896719,-929.190469,0
0.006250,-190.426789,47.166741,114.660606,5.054328,5.173771,1.677217,-6.404700,-4.921700,-1.434036,6.231893,-0.267254,0.326973,-0.017021,-47.510971,188.495443,1540.220569,-929.945250,0
0.007292,-144.160730,-5.844265,183.563069,6.366288,3.437685,3.772629,-6.609926,-3.138961,-3.536579,6.391996,-0.230724,0.342129,-0.050629,-26.542231,188.495405,1540.696931,-930.468586,0
0.008333,-87.028555,-60.160010,208.208902,6.863928,0.661367,5.494995,-5.445738,-0.451988,-5.328567,5.335316,-0.238030,0.333114,-0.058098,-10.889191,188.344643,1541.183900,-931.093303,0
0.009375,-32.936170,-141.404089,181.027084,6.388908,-1.884182,6.649853,-3.941996,2.143092,-6.436494,3.862367,-0.208806,0.328280,-0.020755,0.171988,188.495423,1540.708552,-930.195408,0
0.010417,17.674068,-191.612326,127.328220,5.337078,-3.858137,6.245057,-1.568845,4.249297,-6.209873,1.731217,-0.157664,0.310054,-0.043161,17.091748,188.495542,1540.479129,-929.843756,0
0.011458,79.116393,-202.533464,64.581061,4.206078,-5.952801,5.225131,1.296847,6.226850,-5.135519,-1.122176,-0.073645,0.305089,-0.031958,40.593928,188.495541,1540.415662,-930.048110,0
0.012500,151.073216,-168.006240,10.340530,3.120318,-6.574100,3.459111,3.449848,6.984055,-3.482022,-3.224863,-0.029809,0.311622,-0.028224,54.007587,188.344594,1540.381800,-930.429832,0
0.013542,197.634180,-101.573349,-40.280682,2.113728,-6.087712,0.954935,5.278219,6.381232,-1.043744,-4.943303,-0.000585,0.320637,-0.065566,64.084797,188.495369,1539.822963,-930.707796,0
0.014583,190.204843,-46.206566,-114.045834,0.756528,-4.980025,-1.481775,6.244644,5.429212,1.470075,-6.053352,0.010374,0.322923,-0.058098,51.055677,188.495437,1539.611042,-931.243768,0
0.015625,143.961468,6.490338,-182.800569,-0.521502,-3.211986,-3.521628,6.438675,3.580310,3.513864,-6.213455,0.046904,0.344938,-0.024490,30.154798,188.495495,1538.950301,-931.091066,0
0.016667,86.568416,60.310765,-208.332766,-1.019142,-0.531526,-5.275742,5.293144,0.959500,5.360409,-5.227931,-0.007891,0.341345,-0.031958,16.119088,188.344663,1539.104567,-931.380245,0
0.017708,33.213293,141.023285,-181.089394,-0.498882,2.035325,-6.438537,3.804328,-1.639255,6.434763,-3.690941,-0.062686,0.340104,-0.028224,5.114458,188.420092,1538.302885,-931.622977,0
0.018750,-17.340231,191.968457,-128.129167,0.439848,4.016380,-6.037710,1.498341,-3.653566,6.254305,-1.602485,-0.080951,0.326843,-0.028224,-11.850541,188.495499,1538.698467,-932.265476,0
0.019792,-79.088804,202.261387,-64.729546,1.627398,6.089743,-4.986035,-1.397202,-5.579659,5.196738,1.297160,-0.175929,0.306461,-0.050629,-35.782501,188.495437,1537.798481,-932.616594,0
0.020833,-151.578725,168.483179,-9.639583,2.690538,6.679089,-3.235890,-3.557665,-6.421406,3.530651,3.371384,-0.186888,0.309401,-0.031958,-49.207470,188.269185,1538.212024,-932.840474,0
0.021875,-197.425112,101.228787,40.378409,3.708438,6.238854,-0.771399,-5.371111,-5.818583,1.033619,5.064920,-0.241683,0.317109,-0.035692,-58.888830,188.420041,1535.903457,-931.875427,0
0.022917,-190.835119,46.127784,113.798864,5.043018,5.141818,1.669280,-6.374849,-4.870239,-1.417250,6.210546,-0.245336,0.309205,-0.050629,-46.153771,188.495459,1535.110571,-931.381787,0
0.023958,-144.353552,-6.194612,182.196591,6.354978,3.416383,3.752787,-6.546492,-3.039716,-3.477826,6.349302,-0.234377,0.302346,-0.009553,-26.677951,188.495665,1533.236710,-930.955161,0
0.025000,-87.572995,-59.713016,208.442804,6.886548,0.728822,5.455309,-5.371111,-0.440961,-5.294994,5.317527,-0.241683,0.312145,-0.009553,-11.477311,188.269198,1532.730751,-931.062660,0
0.026042,-34.592175,-140.413455,181.076326,6.354978,-1.884182,6.558575,-3.878563,2.165146,-6.381937,3.851694,-0.212459,0.323184,-0.028224,0.409498,188.419970,1531.505844,-931.673779,0
0.027083,16.743983,-191.926430,128.177652,5.348388,-3.854587,6.193466,-1.591233,4.168430,-6.218266,1.763238,-0.132093,0.324426,-0.031958,16.910788,188.419974,1531.685211,-931.196656,0
0.028125,78.299733,-202.062308,64.519508,4.138218,-5.899547,5.197351,1.315504,6.186417,-5.097749,-1.079482,-0.073645,0.308290,-0.017021,40.367728,188.495470,1530.772526,-930.417060,0
0.029167,151.016503,-168.368667,9.688068,3.097698,-6.510195,3.451174,3.438653,6.954649,-3.452646,-3.224863,-0.044421,0.308029,-0.054364,54.901077,188.269279,1530.380342,-930.283746,0
0.030208,196.726780,-100.908899,-40.145265,2.136348,-6.045108,0.950966,5.218517,6.403286,-1.026957,-4.907725,-0.004238,0.320571,-0.035692,63.338337,188.419945,1529.909709,-929.758623,0
0.031250,190.828680,-46.254889,-113.651894,0.790458,-4.948072,-1.485744,6.237181,5.388779,1.444895,-6.049794,-0.037115,0.326451,-0.046895,52.661697,188.420066,1529.566082,-929.741230,0
0.032292,144.846183,5.668836,-182.000379,-0.521502,-3.236838,-3.509722,6.416287,3.617068,3.471898,-6.199223,0.021333,0.338732,-0.024490,31.749508,188.420070,1529.409011,-929.493286,0
0.033333,88.349188,59.791286,-208.665152,-1.053072,-0.510225,-5.255899,5.308070,0.981555,5.301656,-5.167448,0.010374,0.332003,-0.043161,17.091748,188.268453,1528.551201,-929.542084,0
0.034375,34.234118,140.431320,-181.027841,-0.544122,2.063727,-6.363134,3.767014,-1.609849,6.396992,-3.676710,-0.048074,0.322401,-0.031958,5.012668,188.418145,1527.770444,-929.408090,0
0.035417,-17.249491,192.125509,-127.796781,0.462468,4.027031,-6.049615,1.461027,-3.649890,6.245911,-1.559791,-0.077298,0.324752,-0.039427,-12.348181,188.419972,1527.301149,-929.587990,0
0.036458,-78.249459,202.080173,-64.003220,1.661328,6.075541,-5.025721,-1.408396,-5.583335,5.129591,1.247350,-0.168623,0.298296,-0.013287,-34.945561,188.419817,1526.478412,-928.995173,0
0.037500,-150.932202,168.591908,-9.553409,2.735778,6.707491,-3.287481,-3.539008,-6.414054,3.484488,3.378500,-0.197847,0.308944,-0.035692,-50.451570,188.271247,1525.699981,-929.311195,0
0.038542,-197.016782,102.171097,40.193750,3.719748,6.238854,-0.767430,-5.322603,-5.859016,1.071389,5.032899,-0.216112,0.319853,-0.031958,-58.492980,188.344030,1526.157244,-929.086671,0
0.039583,-191.345532,47.782867,113.638826,5.076948,5.109866,1.653406,-6.348730,-4.929051,-1.400463,6.164294,-0.252642,0.325471,-0.046895,-47.827651,188.471247,1526.477331,-929.167590,0
0.040625,-145.408405,-5.481838,181.839584,6.354978,3.402182,3.768661,-6.557687,-3.102204,-3.419072,6.374207,-0.223418,0.337295,-0.039427,-26.915461,188.401439,1527.207163,-928.820616,0
0.041667,-87.845215,-59.374751,208.738258,6.807378,0.672018,5.467215,-5.363648,-0.455664,-5.282404,5.313969,-0.234377,0.332722,-0.009553,-11.081461,188.290464,1527.195524,-928.794144,0
0.042708,-33.877597,-139.809410,181.347160,6.354978,-1.866431,6.554607,-3.915877,2.168822,-6.352560,3.805442,-0.223418,0.312863,-0.017021,0.183298,188.289204,1526.318462,-928.635675,0
0.043750,17.038888,-191.672731,128.017614,5.359698,-3.879439,6.213309,-1.621084,4.219891,-6.218266,1.752564,-0.183235,0.310119,-0.039427,16.842928,188.420211,1526.285307,-929.120128,0
0.044792,77.528443,-202.146875,65.036553,4.172148,-5.856944,5.217194,1.259533,6.131281,-5.089356,-1.040345,-0.066339,0.305481,-0.073035,40.073668,188.420083,1525.771827,-928.552807,0
0.045833,150.812338,-168.948550,10.832955,3.131628,-6.503094,3.455143,3.405071,6.962000,-3.461039,-3.164380,-0.066339,0.309401,-0.035692,54.018897,188.269236,1525.774639,-928.430675,0
0.046875,196.284423,-102.793520,-39.899053,2.136348,-6.034458,0.974778,5.166278,6.351826,-1.060531,-4.854357,-0.000585,0.321943,-0.039427,63.790737,188.269472,1525.131601,-928.149637,0
0.047917,191.248353,-47.040148,-113.171781,0.767838,-4.944522,-1.453995,6.229718,5.436564,1.419715,-6.003542,-0.000585,0.326777,-0.046895,51.564627,188.419998,1525.284554,-927.827356,0
0.048958,145.243171,6.405771,-180.990910,-0.498882,-3.201336,-3.509722,6.393898,3.613392,3.484488,-6.124509,-0.000585,0.327561,-0.043161,30.595888,188.420007,1524.320269,-927.456400,0
0.050000,87.124198,59.670477,-208.948296,-1.098312,-0.478272,-5.263836,5.199860,1.040367,5.268082,-5.185237,-0.033462,0.319396,-0.020755,16.062538,188.269236,1524.737975,-926.152120,0
0.051042,33.666993,139.307796,-181.360228,-0.544122,2.010473,-6.323448,3.733432,-1.547361,6.296272,-3.655363,-0.022503,0.314366,-0.028224,5.103148,188.269109,1523.471092,-924.726820,0
0.052083,-16.841161,192.125509,-128.744697,0.439848,3.970226,-5.990087,1.453565,-3.602106,6.224928,-1.623832,-0.084604,0.315541,-0.035692,-11.556481,188.420008,1523.695774,-924.101176,0
0.053125,-77.285347,201.584856,-65.578977,1.650018,6.004536,-5.001909,-1.412127,-5.535550,5.104411,1.261581,-0.132093,0.304697,-0.050629,-35.205691,188.420061,1522.439224,-924.504753,0
0.054167,-151.567382,169.413409,-10.255114,2.724468,6.682639,-3.239858,-3.516620,-6.311133,3.543241,3.325132,-0.183235,0.306723,-0.024490,-49.275330,188.269241,1522.428933,-923.366157,0
0.055208,-195.791792,102.461039,39.984470,3.674508,6.135896,-0.763462,-5.303946,-5.781825,1.042012,4.993763,-0.252642,0.315999,-0.046895,-58.583460,188.193854,1520.665519,-923.018316,0
0.056250,-191.844602,46.647263,112.949432,5.020398,5.106315,1.609751,-6.300222,-4.848185,-1.337512,6.160736,-0.259948,0.315019,-0.035692,-46.606171,188.419929,1519.958030,-922.194433,0
0.057292,-145.589885,-6.436230,180.202273,6.343668,3.377330,3.669446,-6.471865,-3.028689,-3.427465,6.242567,-0.267254,0.338666,0.005384,-27.051181,188.419779,1517.476407,-921.716806,0
0.058333,-87.731790,-59.145214,209.144508,6.863928,0.721722,5.423560,-5.397231,-0.470367,-5.219453,5.306853,-0.219765,0.327235,-0.039427,-11.432071,188.269275,1517.214034,-921.001018,0
0.059376,-35.181985,-138.613400,181.507198,6.343668,-1.855780,6.479204,-3.822592,2.132065,-6.243446,3.787653,-0.208806,0.323119,-0.020755,0.443428,188.193857,1515.573211,-920.473489,0
0.060417,16.267598,-192.168048,129.051705,5.416248,-3.822634,6.149811,-1.609890,4.146376,-6.142726,1.741891,-0.157664,0.320833,-0.054364,16.628038,188.419980,1514.593249,-920.131551,0
0.061458,76.700440,-201.361616,65.393561,4.149528,-5.778838,5.125917,1.255802,6.079820,-5.030602,-1.054577,-0.099216,0.303522,-0.058098,39.632578,188.344637,1512.953459,-919.962302,0
0.062500,150.789653,-169.347220,10.254356,3.109008,-6.481793,3.407520,3.375220,6.917891,-3.465236,-3.189285,-0.040768,0.305155,-0.046895,55.014177,188.269312,1512.763486,-919.882519,0
0.063542,194.923323,-102.165313,-39.677462,2.147658,-5.967002,0.986684,5.136427,6.333447,-1.018564,-4.857915,-0.007891,0.314823,-0.046895,62.919867,188.193790,1511.602844,-919.904539,0
0.064583,191.713395,-46.472346,-112.507008,0.824388,-4.912570,-1.430184,6.196136,5.414509,1.377748,-6.010657,0.010374,0.325601,-0.031958,53.091477,188.419940,1511.511169,-919.504224,0
0.065625,146.003118,5.995021,-179.895266,-0.476262,-3.219087,-3.462099,6.341659,3.602365,3.438324,-6.103161,0.006721,0.314627,-0.046895,32.269768,188.344554,1510.778237,-919.259763,0
0.066667,88.961683,59.126836,-209.292993,-1.019142,-0.549278,-5.220181,5.270756,1.021988,5.226115,-5.217258,-0.055380,0.324426,-0.061832,17.193538,188.269378,1510.839595,-919.943424,0
0.067708,35.152861,138.534618,-181.421781,-0.532812,1.996272,-6.291699,3.725969,-1.532658,6.275288,-3.626900,-0.051727,0.319004,-0.061832,5.057908,188.195951,1509.926930,-920.386499,0
0.068750,-16.773106,192.282560,-128.880114,0.462468,3.959576,-5.994055,1.498341,-3.591078,6.182961,-1.606043,-0.080951,0.313124,-0.054364,-12.099361,188.344646,1509.339530,-920.332117,0
0.069792,-76.808962,201.500290,-64.815720,1.627398,5.965483,-4.930475,-1.400933,-5.476738,5.075034,1.258024,-0.139399,0.299863,-0.009553,-34.300891,188.344536,1508.510679,-919.531774,0
0.070833,-150.784750,169.824160,-9.971970,2.713158,6.604533,-3.235890,-3.516620,-6.325836,3.513864,3.325132,-0.190541,0.303522,-0.017021,-50.462880,188.269171,1508.167269,-919.861396,0
0.071875,-195.326749,103.185893,39.676705,3.697128,6.171399,-0.791242,-5.255438,-5.792853,1.071389,4.979531,-0.234377,0.318089,-0.017021,-58.300710,188.193823,1508.232002,-919.770793,0
0.072917,-192.207562,48.109052,112.690909,5.043018,5.109866,1.581971,-6.303953,-4.829806,-1.425643,6.157179,-0.267254,0.322792,-0.002084,-48.234810,188.344552,1507.567801,-921.425193,0
0.073958,-146.905615,-5.300625,179.648296,6.309738,3.345377,3.661509,-6.445745,-3.025013,-3.393892,6.242567,-0.274560,0.335988,-0.050629,-27.492271,188.344668,1507.302050,-921.855299,0
0.075000,-88.605162,-58.661978,209.255304,6.852618,0.686219,5.356094,-5.359917,-0.451988,-5.211060,5.303295,-0.256295,0.331285,-0.017021,-11.251111,188.269228,1507.014674,-922.412975,0
0.076042,-34.762312,-137.864384,181.728788,6.388908,-1.894833,6.435549,-3.807667,2.106334,-6.247643,3.762748,-0.201500,0.308813,-0.043161,0.307708,188.193747,1506.649662,-922.213220,0
0.077083,16.755325,-191.878106,128.743940,5.359698,-3.765830,6.118063,-1.617353,4.197836,-6.100759,1.770353,-0.154011,0.292024,-0.031958,16.650658,188.269359,1506.514420,-922.115638,0
0.078125,75.895123,-201.434101,65.528977,4.183458,-5.793039,5.110042,1.222220,6.028360,-5.026405,-1.061693,-0.110175,0.301105,-0.002084,39.462928,188.420074,1505.849084,-921.925002,0
0.079167,150.687571,-169.902942,11.214583,3.142938,-6.453390,3.391645,3.378952,6.873782,-3.477826,-3.153706,-0.069992,0.307049,-0.050629,54.052827,188.269147,1505.481410,-921.654428,0
0.080208,194.356198,-104.194905,-39.394318,2.136348,-5.903097,0.974778,5.132695,6.304041,-1.064727,-4.736948,0.024986,0.316456,-0.054364,63.360957,188.269324,1504.878688,-920.605002,0
0.081250,192.189780,-47.644193,-112.063826,0.801768,-4.912570,-1.453995,6.140165,5.392455,1.352568,-5.953732,-0.004238,0.322466,-0.061832,52.017027,188.269232,1504.169843,-920.471998,0
0.082301,145.855666,6.997736,-180.486175,-0.498882,-3.158732,-3.474005,6.293151,3.547228,3.442521,-6.056909,0.039598,0.320637,-0.043161,30.584578,188.419938,1503.568568,-920.271343,0
0.083343,87.158226,60.032904,-208.739016,-1.030452,-0.488923,-5.192401,5.140158,1.007285,5.205132,-5.110522,-0.029809,0.283140,-0.017021,15.949438,188.269290,1502.132235,-919.078198,0
0.084375,34.460968,137.229881,-181.778788,-0.532812,1.943018,-6.184547,3.707312,-1.503252,6.208141,-3.598437,-0.073645,0.316652,-0.046895,5.069218,188.193765,1500.956180,-918.276513,0
0.085417,-16.580284,192.439612,-129.421781,0.439848,3.924073,-5.942464,1.539386,-3.528591,6.145191,-1.627390,-0.117481,0.300059,-0.039427,-11.296351,188.269261,1500.672378,-917.543943,0
0.086458,-75.822164,200.847921,-66.379167,1.616088,5.908678,-4.914600,-1.330037,-5.392196,5.028871,1.204656,-0.168623,0.302411,-0.031958,-34.459231,188.420142,1499.253639,-916.846090,0
0.087500,-151.612752,170.549014,-11.030682,2.656608,6.593882,-3.263670,-3.483038,-6.252321,3.501274,3.300228,-0.172276,0.307310,-0.028224,-49.433670,188.269312,1498.735424,-916.677496,0
0.088542,-193.942964,104.031557,39.652083,3.663198,6.015187,-0.791242,-5.229319,-5.649498,1.075586,4.908374,-0.216112,0.315476,-0.073035,-58.074510,188.193783,1496.421380,-915.652619,0
0.089583,-192.888112,47.347955,111.989205,5.031708,5.067262,1.625626,-6.255446,-4.782021,-1.366889,6.093137,-0.208806,0.313516,-0.031958,-47.137741,188.269234,1495.621700,-914.466434,0
0.090625,-147.382000,-6.484553,177.604735,6.321048,3.324076,3.558326,-6.382312,-2.977228,-3.339335,6.164294,-0.281866,0.316783,-0.031958,-27.639301,188.420028,1493.864797,-913.378663,0
0.091667,-88.151462,-58.432441,209.796970,6.886548,0.743024,5.348157,-5.303946,-0.521827,-5.093552,5.292622,-0.245336,0.342325,-0.069301,-11.375521,188.269165,1493.675368,-911.466446,0
0.092708,-35.658370,-136.342190,181.913448,6.388908,-1.781224,6.364115,-3.792741,2.010765,-6.125939,3.730727,-0.223418,0.322270,-0.017021,0.567838,188.271142,1491.858988,-910.104856,0
0.093751,15.802555,-192.433828,129.999622,5.382318,-3.733877,6.126000,-1.632278,4.065509,-6.079775,1.759680,-0.183235,0.318938,-0.031958,16.548868,188.269051,1491.380268,-909.439348,0
0.094792,75.067120,-200.576357,66.415341,4.160838,-5.693631,5.078294,1.233414,5.962196,-4.959258,-0.997651,-0.139399,0.301105,-0.073035,38.829568,188.419947,1489.920377,-908.486683,0
0.095833,150.971133,-170.519068,10.845265,3.109008,-6.364633,3.395614,3.322981,6.829673,-3.490416,-3.178611,-0.055380,0.303130,-0.039427,55.285617,188.269021,1489.942721,-908.485608,0
0.096875,192.893015,-103.747911,-39.542046,2.147658,-5.846293,0.974778,5.020754,6.204796,-1.043744,-4.694254,-0.000585,0.313843,-0.046895,62.376987,188.269669,1487.968445,-907.573646,0
0.097917,192.836303,-46.738125,-111.522159,0.813078,-4.869966,-1.398435,6.084195,5.374076,1.373551,-5.911038,-0.011544,0.295617,-0.058098,53.521257,188.194481,1487.426065,-907.327040,0
0.098958,147.591068,6.550742,-177.654735,-0.464952,-3.172933,-3.386696,6.252106,3.532525,3.308226,-5.982195,-0.011544,0.335139,-0.013287,32.903128,188.420408,1485.559128,-906.044098,0
0.100000,89.279273,58.546953,-209.834660,-1.075692,-0.613183,-5.089218,5.222248,1.021988,5.158968,-5.124754,-0.015197,0.325144,-0.020755,17.261398,188.269257,1485.570155,-906.809979,0
0.101042,36.298453,136.396298,-181.815720,-0.566742,1.886213,-6.144861,3.673730,-1.481198,6.145191,-3.605553,-0.029809,0.323772,-0.058098,5.125768,188.269792,1484.651483,-906.834289,0
0.102087,-16.489544,192.379208,-129.594129,0.417228,3.860168,-5.954369,1.494610,-3.539618,6.132601,-1.588254,-0.084604,0.316391,-0.024490,-11.929711,188.194163,1484.155389,-907.303216,0
0.103125,-75.039531,200.678789,-65.862121,1.638708,5.876726,-4.898726,-1.333769,-5.406899,4.991100,1.190424,-0.150358,0.298622,-0.028224,-33.758011,188.427912,1483.579686,-907.245872,0
0.104167,-150.807435,170.826875,-10.378220,2.769708,6.544178,-3.188267,-3.441993,-6.259673,3.476094,3.310901,-0.161317,0.301627,-0.020755,-50.587290,188.345388,1483.242462,-907.465438,0
0.105209,-193.183017,104.490631,39.492046,3.685818,6.040039,-0.779336,-5.124841,-5.653174,1.121750,4.805197,-0.212459,0.313843,-0.028224,-57.938790,188.269962,1482.937988,-906.046813,0
0.106250,-193.364497,48.362751,111.619887,5.009088,5.085014,1.554191,-6.177087,-4.804076,-1.282955,6.068232,-0.252642,0.321551,-0.039427,-48.732450,188.195807,1483.242658,-905.392645,0
0.107291,-148.765785,-5.638890,176.878410,6.241878,3.334727,3.566263,-6.303953,-3.039716,-3.309958,6.132274,-0.285519,0.335139,-0.024490,-28.216111,188.420180,1483.305552,-905.222508,0
0.108333,-89.512562,-58.070013,209.969319,6.841308,0.725272,5.292597,-5.289021,-0.540206,-5.110339,5.235696,-0.238030,0.331154,-0.046895,-11.398141,188.269257,1482.853712,-905.837759,0
0.109375,-35.839850,-135.641498,182.221213,6.377598,-1.759923,6.292680,-3.770353,2.029144,-6.079775,3.723611,-0.197847,0.335008,-0.028224,0.522598,188.269440,1482.105953,-905.927041,0
0.110416,16.358338,-192.192210,129.938069,5.393628,-3.733877,6.086314,-1.662129,4.069185,-6.075579,1.759680,-0.154011,0.319788,-0.013287,16.413148,188.193957,1482.106180,-905.734704,0
