1-Time,2-VGERA,3-VGERB,4-VGERC,5-VN,6-IGERAN,7-IGERBN,8-IGERCN,9-IGERAT,10-IGERBT,11-IGERCT,12-IN,13-IFD,14-IFAULT,15-VFAULT,16-Speed (rad/s),17-Active Power,18-Reactive Power,19-FAULT 
0.000000,78.079585,108.334565,-192.854167,-3.401300,-5.491204,-1.008446,6.229980,5.330347,0.810356,-6.125508,-0.039809,0.614608,-0.082290,-138.459666,188.571156,1575.717608,913.955531,0
0.001042,5.387166,152.707213,-175.793220,-3.086040,-3.836272,-3.076126,6.438151,3.694570,2.970602,-6.458588,-0.028871,0.645544,-0.100873,-129.464265,188.495765,1576.164241,913.329263,0
0.002083,-65.180868,184.230820,-127.235140,-2.196555,-1.319013,-5.131737,5.877981,1.329766,4.982885,-5.883269,-0.032517,0.629215,-0.097156,-103.254885,188.495752,1576.295188,913.540592,0
0.003125,-120.222804,190.772791,-45.272114,-0.642772,1.146873,-6.165576,4.428349,-1.093070,6.153899,-4.479036,-0.072625,0.624392,-0.115740,-47.650020,188.495718,1576.514055,914.210063,0
0.004167,-169.275780,159.073008,25.997441,0.787160,3.583403,-6.406940,2.369343,-3.316421,6.394866,-2.412428,-0.065333,0.616538,-0.093440,6.243580,188.495716,1576.563338,915.025902,0
0.005208,-180.722604,104.458711,94.496414,2.115757,5.319063,-5.521941,-0.151425,-5.097278,5.587416,0.157583,-0.152841,0.605789,-0.100873,57.164983,188.495716,1575.446264,914.916754,0
0.006250,-185.265174,19.436583,142.240332,3.084057,6.394219,-4.009397,-2.535936,-6.036671,4.150070,2.576195,-0.182010,0.608959,-0.086006,94.576395,188.495741,1574.932846,915.575767,0
0.007292,-154.800576,-54.545235,169.921840,3.556947,6.361193,-1.849195,-4.364061,-6.174497,2.036327,4.483832,-0.243995,0.615573,-0.115740,117.048011,188.495676,1573.077311,916.132306,0
0.008333,-77.158789,-108.595772,193.082926,4.063616,5.539232,0.966710,-6.105133,-5.271374,-0.749586,6.202220,-0.262226,0.625357,-0.115740,139.452077,188.571056,1571.949321,916.257877,0
0.009375,-4.760167,-152.768755,175.718187,3.714578,3.847605,3.030367,-6.279240,-3.758915,-2.829510,6.550440,-0.269518,0.636519,-0.115740,129.646077,188.495653,1571.232124,916.153366,0
0.010417,65.570568,-184.445047,127.500354,2.757537,1.352363,5.114137,-5.715284,-1.408619,-4.884068,5.978905,-0.262226,0.633694,-0.052556,103.324114,188.495774,1570.971840,916.744060,0
0.011458,120.375206,-190.599432,45.889727,1.124939,-1.139209,6.160045,-4.258083,1.021471,-6.071992,4.567102,-0.222118,0.626184,-0.097156,49.362964,188.495647,1570.422470,916.504751,0
0.012500,169.349082,-159.134550,-25.477041,-0.181140,-3.484002,6.429567,-2.225571,3.226687,-6.342551,2.500495,-0.178364,0.624874,-0.108307,-7.806809,188.571132,1569.651106,916.717852,0
0.013542,180.490809,-104.708173,-94.632204,-1.532256,-5.318739,5.556637,0.253563,5.029306,-5.590058,-0.001387,-0.174718,0.623083,-0.108307,-57.546087,188.495669,1568.134000,917.911674,0
0.014583,185.168978,-19.181010,-142.108786,-2.421741,-6.397564,4.060184,2.604009,6.070255,-4.093528,-2.435138,-0.105440,0.577678,-0.119457,-93.887959,188.495693,1567.374197,917.678842,0
0.015625,154.726979,55.106179,-169.522957,-2.973447,-6.397564,1.912050,4.553252,6.164557,-2.000922,-4.403336,-0.050748,0.613919,-0.093440,-117.384082,188.495772,1566.269679,918.066513,0
0.016667,77.073892,108.910070,-192.465313,-3.468856,-5.520560,-0.887765,6.211055,5.301331,0.725807,-6.042238,-0.017932,0.613713,-0.130607,-137.581517,188.571064,1564.082232,918.841348,0
0.017708,4.234573,152.671978,-175.538035,-3.086040,-3.909661,-2.951421,6.464646,3.748975,2.886052,-6.454803,0.011237,0.642857,-0.086006,-130.218572,188.495758,1562.850281,920.338086,0
0.018750,-65.542465,183.843235,-127.247291,-2.174036,-1.436436,-5.051282,5.904475,1.398679,4.906791,-5.894624,-0.006994,0.631902,-0.086006,-103.784026,188.495705,1561.628170,921.388552,0
0.019792,-120.290604,190.361715,-46.098428,-0.620253,1.084492,-6.093167,4.435919,-1.009649,6.111624,-4.524456,-0.032517,0.630524,-0.115740,-47.785119,188.495665,1560.720956,922.265661,0
0.020833,-169.456579,158.579718,25.462767,0.753382,3.473318,-6.467281,2.433687,-3.214865,6.403321,-2.488128,-0.050748,0.623979,-0.112023,6.964113,188.721791,1559.549439,923.623462,0
0.021875,-180.959903,105.269117,94.824509,2.059460,5.308055,-5.566191,-0.075727,-5.050127,5.638146,0.051603,-0.145548,0.612541,-0.093440,57.277566,188.495635,1559.065972,925.317316,0
0.022917,-184.835777,19.518798,142.301090,3.005242,6.353855,-4.065715,-2.448883,-6.011282,4.120478,2.485355,-0.185656,0.603033,-0.104590,94.441295,188.495861,1557.757809,925.510044,0
0.023958,-154.710176,-55.214701,169.776020,3.568207,6.386880,-1.901491,-4.375416,-6.189005,2.049010,4.464907,-0.225764,0.613230,-0.074856,117.813577,188.495687,1557.478597,926.053028,0
0.025000,-76.141795,-109.488392,192.584708,4.086135,5.561248,0.914415,-6.052144,-5.267747,-0.711539,6.145445,-0.284103,0.604273,-0.112023,138.787836,188.646473,1556.028629,926.793276,0
0.026042,-3.234677,-152.968420,175.754643,3.748356,3.957689,3.002208,-6.290595,-3.777050,-2.791462,6.535300,-0.302334,0.635761,-0.093440,130.940784,188.495685,1555.198124,927.707709,0
0.027083,66.395463,-184.092696,127.330231,2.768796,1.378049,5.073910,-5.737994,-1.473905,-4.841793,5.994045,-0.247641,0.624943,-0.100873,102.930072,188.495718,1554.314134,928.902398,0
0.028125,120.725504,-190.611177,46.120609,1.147457,-1.062150,6.135909,-4.314857,0.930796,-6.063537,4.635232,-0.211179,0.634245,-0.078573,50.049722,188.495642,1553.823878,930.526885,0
0.029167,169.688080,-158.723475,-25.027429,-0.192400,-3.472994,6.453704,-2.244496,3.241195,-6.372143,2.591335,-0.196595,0.627217,-0.045123,-6.410776,188.646562,1554.126181,931.692458,0
0.030208,180.988005,-105.365894,-94.705114,-1.498478,-5.293052,5.584796,0.223283,5.116354,-5.598513,0.009968,-0.156487,0.618329,-0.108307,-56.881846,188.495685,1555.533574,931.860809,0
0.031250,184.897780,-19.697790,-142.497639,-2.455519,-6.360869,4.112479,2.634289,6.044866,-4.097755,-2.378363,-0.090856,0.628526,-0.078573,-93.752859,188.495645,1554.822698,932.199520,0
0.032292,154.704379,55.247119,-169.778142,-2.950928,-6.434258,1.932164,4.538113,6.168184,-2.034742,-4.384411,-0.032517,0.610612,-0.100873,-117.294016,188.495664,1554.590486,932.810933,0
0.033333,75.819600,109.532556,-192.744802,-3.435078,-5.491204,-0.936037,6.218625,5.283196,0.738489,-6.133078,-0.028871,0.612404,-0.082290,-138.414633,188.646498,1555.367513,933.153101,0
0.034375,2.867283,152.977348,-175.392214,-3.108558,-3.891314,-3.027853,6.434366,3.763483,2.881825,-6.447233,0.033114,0.628182,-0.074856,-129.115257,188.495707,1554.937535,933.846487,0
0.035417,-66.548159,184.183840,-126.591101,-2.140259,-1.359377,-5.103578,5.904475,1.380544,4.940610,-5.902194,-0.010640,0.619914,-0.089723,-102.939652,188.495712,1555.228308,934.222019,0
0.036458,-120.900800,190.185540,-45.502996,-0.608994,1.099169,-6.169599,4.466199,-1.035038,6.175036,-4.520671,-0.017932,0.635209,-0.093440,-47.999028,188.495676,1555.947147,934.518490,0
0.037500,-170.055475,158.849853,25.632890,0.719604,3.502674,-6.431076,2.426117,-3.269270,6.428686,-2.442708,-0.101794,0.626666,-0.097156,5.725697,188.646520,1557.030901,934.135046,0
0.038542,-180.711304,105.198647,95.055391,2.059460,5.326402,-5.558145,-0.132501,-5.082770,5.642373,0.115948,-0.141902,0.618467,-0.086006,57.412666,188.495685,1557.704341,933.534546,0
0.039583,-185.253874,20.117794,142.762854,3.061538,6.394219,-4.025488,-2.486732,-6.087449,4.183890,2.553485,-0.200241,0.627424,-0.104590,94.914145,188.495653,1559.684118,934.098221,0
0.040625,-154.472878,-55.249936,170.006902,3.511910,6.383210,-1.857241,-4.401911,-6.138227,1.989825,4.551962,-0.243995,0.595454,-0.089723,117.036753,188.495714,1560.365354,932.812995,0
0.041667,-75.271701,-109.406177,193.702662,4.052357,5.469512,1.002915,-6.074853,-5.275001,-0.774951,6.221145,-0.273164,0.584568,-0.100873,139.823602,188.721902,1561.870503,932.695113,0
0.042708,-2.240284,-153.121105,175.353637,3.624503,3.854944,3.074617,-6.264100,-3.758915,-2.859102,6.531515,-0.295042,0.646096,-0.089723,129.353360,188.495683,1562.144585,932.410515,0
0.043750,67.141258,-184.691692,126.443159,2.825093,1.345024,5.134251,-5.764488,-1.394111,-4.943253,5.975120,-0.262226,0.636036,-0.104590,102.952589,188.495732,1563.295005,931.735648,0
0.044792,121.098401,-189.965201,45.063413,1.226272,-1.080497,6.228431,-4.299717,0.996082,-6.038172,4.608737,-0.211179,0.633831,-0.093440,49.396739,188.495716,1562.903538,931.156312,0
0.045833,170.072278,-159.111060,-25.525647,-0.158622,-3.557392,6.489908,-2.233141,3.252076,-6.384826,2.579980,-0.200241,0.635072,-0.100873,-7.559126,188.646523,1563.312204,931.356501,0
0.046875,180.490809,-105.377639,-94.996755,-1.577294,-5.344425,5.548591,0.310337,5.065576,-5.615423,-0.035452,-0.138256,0.621361,-0.108307,-57.534829,188.495577,1562.920194,931.089065,0
0.047917,185.259377,-20.155846,-142.935099,-2.489297,-6.423250,4.056161,2.664568,6.088390,-4.110438,-2.465418,-0.079917,0.629766,-0.093440,-94.417100,188.495613,1564.558582,930.816278,0
0.048958,154.568780,55.211884,-169.705232,-3.007225,-6.412241,1.871823,4.545682,6.175438,-2.000922,-4.429831,0.000299,0.616813,-0.112023,-117.597990,188.495655,1565.167157,930.304772,0
0.050000,75.593602,109.332891,-193.425295,-3.446337,-5.480195,-0.940060,6.271614,5.304958,0.789219,-6.136863,-0.006994,0.604618,-0.097156,-138.178208,188.646480,1565.853741,930.127272,0
0.051042,2.324886,153.106543,-175.124878,-3.041003,-3.843610,-3.047966,6.438151,3.781618,2.936782,-6.432093,0.025822,0.580227,-0.104590,-130.049697,188.495738,1566.057434,930.134982,0
0.052083,-67.203554,184.712365,-125.849849,-2.151518,-1.330022,-5.127714,5.942325,1.322512,5.016705,-5.947614,-0.028871,0.618673,-0.100873,-103.153560,188.570984,1567.347536,930.270077,0
0.053125,-120.855600,190.115070,-44.579469,-0.563957,1.132195,-6.177645,4.462414,-1.085816,6.145444,-4.471466,-0.065333,0.631696,-0.097156,-47.199687,188.495676,1566.949991,929.418403,0
0.054167,-169.998975,158.661933,26.374142,0.820937,3.554047,-6.515553,2.399623,-3.320048,6.466733,-2.404858,-0.109087,0.633625,-0.089723,7.268088,188.721936,1567.706750,929.247029,0
0.055208,-180.711304,105.163412,95.395638,2.138276,5.344749,-5.602395,-0.166565,-5.140802,5.667738,0.108378,-0.145548,0.622532,-0.108307,57.378891,188.495725,1568.495769,929.693118,0
0.056250,-185.344274,20.458399,143.200314,3.061538,6.430913,-4.029511,-2.566216,-6.105584,4.154298,2.545915,-0.196595,0.614608,-0.104590,94.992953,188.495796,1568.765606,929.539892,0
0.057292,-154.574577,-54.991546,170.189177,3.511910,6.401558,-1.808968,-4.443545,-6.192632,2.027872,4.563317,-0.229410,0.619569,-0.112023,118.286427,188.495839,1569.389633,930.320421,0
0.058333,-75.249101,-109.406177,193.848482,4.074875,5.495198,1.002915,-6.089993,-5.300390,-0.787634,6.251425,-0.291395,0.629629,-0.134323,139.587177,188.721982,1570.013726,930.536692,0
0.059375,-2.161184,-153.590905,175.110604,3.647022,3.821918,3.102776,-6.305734,-3.693629,-2.880239,6.580720,-0.280457,0.594765,-0.093440,130.648067,188.495667,1570.672731,930.106408,0
0.060417,67.649754,-185.302432,125.714058,2.746278,1.304660,5.202637,-5.749349,-1.346960,-4.943253,5.990260,-0.262226,0.633625,-0.126890,102.344639,188.495667,1570.842647,930.185157,0
0.061458,121.041902,-190.352787,44.066976,1.237532,-1.150217,6.196250,-4.303502,1.046860,-6.122721,4.589812,-0.229410,0.628044,-0.104590,49.047731,188.495709,1572.021363,930.073766,0
0.062500,170.117477,-159.075825,-26.813725,-0.169881,-3.612434,6.530136,-2.199077,3.328243,-6.393281,2.523205,-0.203887,0.628113,-0.067423,-7.457801,188.646408,1572.790379,929.575854,0
0.063542,180.637708,-104.590723,-95.385608,-1.509738,-5.428823,5.564682,0.408745,5.163505,-5.598513,-0.096011,-0.123671,0.622050,-0.086006,-57.016946,188.495687,1573.961890,929.052559,0
0.064583,185.462776,-20.238061,-143.530531,-2.500556,-6.478292,4.084320,2.770547,6.113779,-4.089300,-2.525978,-0.083563,0.629904,-0.112023,-94.270742,188.495723,1574.963483,928.670219,0
0.065625,154.602680,54.624634,-170.410029,-2.950928,-6.448936,1.807459,4.670585,6.218962,-1.962875,-4.535811,-0.050748,0.635209,-0.134323,-118.003290,188.495787,1576.953060,928.198805,0
0.066667,75.073805,109.215441,-194.275912,-3.513893,-5.450840,-1.056719,6.305679,5.268688,0.899133,-6.189853,-0.006994,0.616193,-0.108307,-139.304040,188.646583,1578.312923,927.015850,0
0.067708,2.494385,153.846479,-174.359322,-3.108558,-3.773891,-3.156580,6.468431,3.738094,3.000194,-6.443448,-0.003348,0.596488,-0.093440,-128.709957,188.495691,1578.916710,926.385287,0
0.068750,-67.553852,185.628476,-124.962777,-2.106481,-1.190582,-5.196100,5.900690,1.224583,5.122392,-5.879484,-0.028871,0.646371,-0.138040,-102.297927,188.495752,1579.966926,924.976238,0
0.069792,-121.228497,189.974130,-43.036206,-0.507660,1.220262,-6.237985,4.401855,-1.187372,6.191946,-4.437401,-0.050748,0.629008,-0.086006,-46.456637,188.495741,1580.731848,924.401697,0
0.070833,-170.100674,159.249184,28.087528,0.888493,3.664131,-6.527621,2.320139,-3.461501,6.513235,-2.336728,-0.116379,0.625770,-0.093440,7.481996,188.571035,1582.784795,923.861863,0
0.071875,-180.349707,103.601326,95.772339,2.183313,5.491528,-5.558145,-0.257404,-5.253239,5.621236,0.274918,-0.156487,0.621774,-0.130607,57.806707,188.495691,1584.121151,921.957868,0
0.072917,-185.965770,19.941619,143.662078,3.039020,6.559345,-3.993306,-2.687334,-6.221648,4.086658,2.704885,-0.171072,0.620534,-0.130607,95.353220,188.495727,1586.960812,920.832964,0
0.073958,-153.953081,-54.545235,170.638789,3.590725,6.416236,-1.736559,-4.568448,-6.243410,1.905275,4.692007,-0.203887,0.630524,-0.134323,117.802319,188.495720,1589.171259,919.395941,0
0.075000,-74.740605,-108.842417,195.148711,4.074875,5.469512,1.163824,-6.203541,-5.282255,-0.960961,6.414180,-0.273164,0.639964,-0.108307,140.690493,188.571098,1592.528542,917.834306,0
0.076042,-2.839180,-154.201646,173.980498,3.680800,3.755868,3.207367,-6.336014,-3.708137,-3.049339,6.611000,-0.302334,0.631351,-0.078573,128.824219,188.495678,1594.384227,917.144184,0
0.077083,67.559355,-186.312503,124.997110,2.746278,1.165220,5.311251,-5.730424,-1.220015,-5.112352,5.956195,-0.258580,0.630455,-0.119457,102.198281,188.495705,1596.686655,915.441493,0
0.078125,121.358299,-189.636341,42.815354,1.124939,-1.308005,6.272681,-4.208879,1.213702,-6.152314,4.510327,-0.222118,0.627286,-0.130607,47.584148,188.495700,1597.487014,913.559481,0
0.079167,170.094877,-159.710055,-28.660779,-0.214918,-3.759213,6.602545,-2.077959,3.513220,-6.431328,2.386945,-0.196595,0.626804,-0.100873,-10.261124,188.571055,1600.001578,911.944303,0
0.080208,180.129211,-102.735012,-95.786613,-1.498478,-5.531568,5.504341,0.552573,5.254180,-5.484371,-0.239841,-0.127317,0.617571,-0.078573,-57.726220,188.495689,1600.387751,909.645004,0
0.081250,186.185971,-19.263225,-143.542683,-2.421741,-6.592046,3.927434,2.914374,6.240724,-4.017433,-2.703873,-0.079917,0.612404,-0.108307,-94.878691,188.495660,1603.378102,908.363119,0
0.082292,153.811685,54.871279,-170.458636,-2.995965,-6.448936,1.694823,4.765209,6.200827,-1.823368,-4.603940,-0.065333,0.629215,-0.115740,-118.307265,188.495765,1604.076114,906.553202,0
0.083333,74.881707,108.604700,-195.345259,-3.502634,-5.494873,-1.161310,6.358668,5.257807,1.042868,-6.337468,-0.006994,0.616951,-0.093440,-139.202715,188.571212,1607.099506,905.215498,0
0.084375,3.240180,154.234064,-173.642374,-3.131077,-3.707840,-3.249103,6.540345,3.596641,3.097426,-6.507793,-0.017932,0.639826,-0.130607,-129.453006,188.495750,1608.622925,903.216196,0
0.085417,-67.147055,186.438882,-124.464558,-2.151518,-1.124531,-5.320805,5.877981,1.141162,5.177350,-5.871914,-0.032517,0.630455,-0.138040,-102.534352,188.495731,1609.649711,902.243595,0
0.086458,-121.488396,189.457349,-42.209893,-0.541438,1.341355,-6.262122,4.307231,-1.278047,6.221539,-4.357916,-0.036163,0.624599,-0.115740,-45.263255,188.495658,1610.042313,900.912738,0
0.087500,-170.270173,159.307909,29.740155,0.911012,3.792562,-6.551758,2.214161,-3.548549,6.487870,-2.200469,-0.087210,0.618260,-0.089723,10.071411,188.571093,1610.747250,899.368804,0
0.088542,-180.270607,102.109709,96.319165,2.160794,5.502537,-5.509873,-0.386092,-5.296763,5.595871,0.373328,-0.160133,0.609510,-0.145474,57.975582,188.495740,1611.137913,898.566120,0
0.089583,-186.451666,18.297317,143.832201,3.061538,6.566684,-3.924920,-2.751678,-6.243410,4.057066,2.837360,-0.207533,0.619294,-0.097156,95.645936,188.495591,1612.378175,897.955166,0
0.090625,-153.376785,-55.214701,170.748154,3.579466,6.438252,-1.623923,-4.621437,-6.225275,1.837635,4.752567,-0.229410,0.635072,-0.100873,119.051993,188.495716,1612.843861,897.170780,0
0.091667,-73.927010,-108.595772,195.987176,4.097394,5.480520,1.256346,-6.267885,-5.289509,-1.020145,6.440675,-0.233057,0.639412,-0.097156,140.656718,188.495830,1613.656000,896.919005,0
0.092708,-3.551075,-154.647956,173.494432,3.680800,3.711834,3.320003,-6.392788,-3.635597,-3.108524,6.629924,-0.280457,0.639137,-0.093440,129.792435,188.495662,1614.459874,895.737407,0
0.093750,67.175158,-187.028949,124.559650,2.689981,1.113847,5.387682,-5.711499,-1.176491,-5.154627,6.031895,-0.280457,0.644649,-0.115740,101.669140,188.495702,1615.782698,895.989316,0
0.094792,121.674697,-189.495401,42.438652,1.091161,-1.399742,6.316931,-4.125610,1.257226,-6.198816,4.461122,-0.189302,0.621223,-0.093440,47.156332,188.495727,1616.372935,895.398965,0
0.095833,170.501675,-159.651330,-29.985311,-0.271215,-3.869297,6.542204,-1.983335,3.607522,-6.460920,2.273395,-0.171072,0.620740,-0.100873,-10.655165,188.495794,1617.708906,894.436225,0
0.096875,180.298710,-101.255140,-96.187618,-1.498478,-5.568263,5.496296,0.613132,5.341228,-5.509736,-0.349606,-0.141902,0.613782,-0.086006,-57.501054,188.495745,1619.080838,894.004157,0
0.097917,186.502369,-17.313553,-143.700655,-2.433000,-6.636079,3.927434,3.005213,6.309637,-3.970931,-2.798498,-0.101794,0.605031,-0.100873,-94.417100,188.495680,1620.325715,893.743359,0
0.098958,152.613893,55.787390,-170.981158,-2.962187,-6.456275,1.614369,4.829553,6.280621,-1.726136,-4.694780,-0.021578,0.602206,-0.089723,-119.005281,188.495689,1621.948210,893.563680,0
0.100000,73.152818,108.522485,-196.329545,-3.491375,-5.454509,-1.306128,6.487356,5.228791,1.097825,-6.394243,0.003945,0.634452,-0.108307,-140.170931,188.495711,1622.668983,893.299833,0
0.101042,3.737377,155.103195,-173.071245,-3.018484,-3.685823,-3.389898,6.570624,3.542236,3.270753,-6.534288,0.000299,0.641824,-0.097156,-128.000682,188.495687,1624.735466,891.905299,0
0.102083,-66.909756,186.979152,-124.464558,-2.117740,-1.036464,-5.417350,5.889335,1.050487,5.308402,-5.871914,0.007591,0.633487,-0.149190,-102.106536,188.495606,1626.834347,890.708116,0
0.103125,-121.816094,189.081509,-42.209893,-0.541438,1.510150,-6.318440,4.250457,-1.379603,6.318771,-4.293571,-0.021578,0.624254,-0.115740,-45.229480,188.495712,1628.438710,889.450255,0
0.104167,-170.541372,160.083079,30.833806,0.809678,3.909986,-6.563826,2.123322,-3.693629,6.534373,-2.132339,-0.090856,0.615711,-0.115740,10.240286,188.344903,1630.759113,888.711259,0
0.105208,-180.327107,100.500643,96.659411,2.149535,5.667663,-5.469645,-0.499640,-5.376557,5.557823,0.543653,-0.152841,0.619294,-0.089723,58.741148,188.495693,1631.931767,886.990499,0
0.106250,-186.914963,16.805701,143.880808,3.039020,6.658421,-3.892738,-2.906860,-6.283307,3.980971,3.003899,-0.192949,0.623703,-0.093440,95.578386,188.495647,1633.635645,885.566306,0
0.107292,-151.568797,-56.389202,171.343586,3.635763,6.423575,-1.543468,-4.784189,-6.210767,1.744631,4.907752,-0.247641,0.609027,-0.086006,118.849343,188.495680,1634.919576,884.659589,0
0.108333,-71.915623,-108.466576,197.032220,4.164950,5.451164,1.340824,-6.362509,-5.271374,-1.155425,6.527730,-0.265872,0.646509,-0.071140,141.658709,188.420280,1636.563008,883.847871,0
0.109375,-3.245977,-155.340912,172.655966,3.635763,3.642114,3.432639,-6.404143,-3.548549,-3.252258,6.645064,-0.287749,0.637828,-0.100873,128.272561,188.495727,1637.874510,882.400102,0
0.110417,67.039558,-187.487004,124.693318,2.689981,0.963399,5.468137,-5.696359,-1.078562,-5.285679,5.990260,-0.262226,0.635416,-0.089723,101.860531,188.495703,1639.717039,880.730451,0
