1-Time,2-VGERA,3-VGERB,4-VGERC,5-VN,6-IGERAN,7-IGERBN,8-IGERCN,9-IGERAT,10-IGERBT,11-IGERCT,12-IN,13-IFD,14-IFAULT,15-VFAULT,16-Speed (rad/s),17-Active Power,18-Reactive Power,19-FAULT 
0.000000,-92.064625,-44.974313,208.799811,6.818688,1.169057,5.221163,-5.725591,-0.926160,-5.030602,5.619944,-0.267254,0.304044,0.009119,-0.008972,188.495801,1491.731768,-919.914253,0
0.001042,-43.938395,-119.996727,183.760038,6.422838,-1.419096,6.268869,-4.094982,1.643190,-6.067185,4.072280,-0.230724,0.320833,-0.058098,-1.366172,188.571140,1490.104047,-918.039179,0
0.002092,3.473257,-186.997421,132.720266,5.461488,-3.701925,6.443486,-2.001684,4.039779,-6.377740,2.090560,-0.168623,0.305351,-0.050629,-1.931672,188.495573,1488.625809,-917.623724,0
0.003125,59.505209,-197.205785,72.927652,4.330488,-5.526768,5.403717,0.759530,5.859275,-5.374731,-0.592057,-0.150358,0.298296,-0.046895,-1.049492,188.646482,1487.402464,-916.592238,0
0.004167,142.305463,-173.418485,22.503409,3.346518,-6.595402,3.871844,3.072979,6.969352,-3.931069,-2.851289,-0.091910,0.300517,-0.031958,0.036268,188.495662,1486.946344,-915.211322,0
0.005208,183.240547,-110.332004,-26.185038,2.407788,-6.105463,1.454977,4.804335,6.513559,-1.585117,-4.477225,-0.059033,0.310250,-0.028224,1.857178,188.571078,1485.044704,-914.367325,0
0.006250,193.891155,-53.141005,-97.746591,1.061898,-5.327952,-0.973797,6.158822,5.745327,0.949685,-5.939500,-0.007891,0.313255,-0.095440,2.105998,188.495665,1483.985904,-914.019238,0
0.007292,153.761389,-3.705945,-162.709660,-0.148272,-3.492458,-3.152549,6.319271,3.885397,3.081605,-6.071141,-0.022503,0.322466,-0.031958,3.033418,188.721835,1482.897306,-913.272683,0
0.008333,91.649856,45.378768,-208.665152,-1.019142,-1.042766,-5.105093,5.576728,1.477781,5.079231,-5.444960,-0.040768,0.314627,-0.031958,5.035288,188.495772,1482.792082,-911.981755,0
0.009375,43.285434,120.401181,-183.662311,-0.600672,1.563138,-6.121050,3.968508,-1.076865,6.086437,-3.893739,-0.048074,0.305547,-0.050629,6.166288,188.571152,1482.211133,-910.879075,0
0.010417,-3.479696,186.507888,-133.090341,0.338058,3.838866,-6.307573,1.919986,-3.396264,6.426369,-1.947596,-0.095563,0.276738,-0.043161,6.912748,188.495750,1481.477179,-909.999623,0
0.011458,-59.409566,197.489430,-71.845076,1.514298,5.734715,-5.259867,-0.923318,-5.263545,5.305852,0.784830,-0.128440,0.295944,-0.035692,6.234148,188.646580,1480.817848,-909.432757,0
0.012500,-141.858202,173.665887,-22.048674,2.498268,6.799798,-3.712120,-3.236767,-6.358918,3.946124,3.061852,-0.205153,0.298296,-0.028224,4.560268,188.495693,1481.218379,-908.454943,0
0.013542,-183.780084,110.543164,26.393561,3.425688,6.277907,-1.330969,-5.001705,-5.995019,1.570796,4.698461,-0.248989,0.312079,-0.020755,2.988178,188.495749,1481.921115,-908.598955,0
0.014583,-194.442034,54.354879,98.041288,4.737648,5.493296,1.133521,-6.270371,-5.204733,-0.926237,6.089579,-0.292825,0.311883,-0.050629,2.829838,188.495651,1482.393807,-908.033909,0
0.015625,-154.493747,4.859416,163.041288,5.959128,3.654252,3.308305,-6.412163,-3.352155,-3.049763,6.246125,-0.238030,0.324687,-0.076769,1.710148,188.721909,1482.332613,-909.097902,0
0.016667,-93.221560,-44.853504,208.393561,6.807378,1.154856,5.201320,-5.658426,-0.926160,-5.055782,5.587923,-0.248989,0.324622,-0.061832,-0.088142,188.495691,1481.986081,-909.740674,0
0.017708,-44.539548,-119.996727,183.846213,6.388908,-1.422646,6.264900,-4.068863,1.654217,-6.062989,4.033144,-0.219765,0.316391,-0.024490,-1.445342,188.495613,1481.450123,-910.208280,0
0.018750,3.246407,-186.345052,133.397349,5.461488,-3.669972,6.407769,-1.994221,4.006697,-6.398724,2.119022,-0.183235,0.307833,-0.050629,-1.954292,188.495817,1481.668622,-910.027006,0
0.019792,59.232989,-197.326594,72.016667,4.296558,-5.572921,5.356094,0.796844,5.877654,-5.328567,-0.592057,-0.106522,0.296336,-0.024490,-1.343552,188.721916,1481.214580,-909.941077,0
0.020833,141.613570,-173.297676,21.666288,3.335208,-6.517295,3.855970,3.084173,6.969352,-3.884905,-2.861963,-0.088257,0.295356,-0.035692,0.013648,188.495705,1480.551642,-909.989696,0
0.021875,183.127122,-109.897092,-26.505114,2.430408,-6.077061,1.478788,4.793141,6.451071,-1.564134,-4.462994,-0.029809,0.307833,-0.013287,1.947658,188.495689,1479.680462,-909.536671,0
0.022917,193.902498,-52.573202,-97.451137,1.073208,-5.264047,-0.997608,6.095389,5.701218,0.987455,-5.893248,-0.026156,0.317893,0.001650,2.117308,188.495747,1478.626772,-909.371214,0
0.023958,154.237774,-3.609298,-161.995644,-0.159582,-3.488908,-3.132706,6.252106,3.889073,3.043835,-6.039120,-0.022503,0.318220,-0.046895,3.010798,188.721907,1478.194452,-908.844178,0
0.025000,92.307721,45.511658,-208.172728,-1.053072,-1.064068,-5.057470,5.554340,1.492484,5.041461,-5.416497,-0.051727,0.330174,-0.039427,4.944808,188.495705,1477.731884,-908.423487,0
0.026042,44.192834,120.099159,-183.945455,-0.578052,1.488582,-6.025804,3.964777,-1.036432,6.023487,-3.886623,-0.062686,0.314562,-0.058098,6.211528,188.571046,1477.157159,-907.986002,0
0.027083,-3.003311,186.604535,-133.718182,0.371988,3.764310,-6.236139,1.912523,-3.374209,6.396992,-1.983175,-0.110175,0.311295,-0.031958,6.822268,188.495709,1477.150414,-907.762948,0
0.028125,-59.443593,197.259893,-72.792993,1.480368,5.645958,-5.200339,-0.878542,-5.208408,5.314246,0.727904,-0.135746,0.295356,-0.013287,6.121048,188.721820,1477.192052,-906.963640,0
0.029167,-142.255189,173.581321,-22.319508,2.441718,6.671988,-3.660528,-3.199454,-6.333188,3.891567,2.994253,-0.208806,0.297054,-0.054364,4.424548,188.495651,1476.592178,-906.283453,0
0.030208,-183.144904,111.026400,26.725947,3.380448,6.178500,-1.283346,-4.893496,-5.870043,1.604369,4.588168,-0.252642,0.308356,-0.039427,2.931628,188.571141,1475.098008,-904.414466,0
0.031250,-194.385322,53.062223,97.868940,4.703718,5.468444,1.121615,-6.240520,-5.105487,-0.896860,6.054001,-0.285519,0.305808,-0.050629,2.795908,188.495711,1473.860322,-903.379049,0
0.032292,-154.788652,3.337222,161.662500,5.970438,3.572595,3.232902,-6.333804,-3.348479,-3.011993,6.150063,-0.267254,0.336511,-0.035692,1.721458,188.721949,1472.705165,-901.951163,0
0.033333,-91.996570,-45.348821,208.676705,6.897858,1.201009,5.149728,-5.647232,-0.856320,-4.967652,5.563018,-0.241683,0.274452,-0.009553,-0.042902,188.495660,1471.695671,-901.020144,0
0.034375,-43.303215,-119.308116,184.067804,6.400218,-1.355191,6.153780,-4.061400,1.650541,-6.004235,4.001123,-0.259948,0.308225,-0.013287,-1.354862,188.474809,1470.777026,-900.241589,0
0.035417,3.450572,-186.647075,133.237311,5.472798,-3.591866,6.391895,-2.016609,3.977291,-6.390331,2.094118,-0.223418,0.305024,-0.013287,-1.942982,188.628966,1470.577900,-899.940166,0
0.036458,59.289702,-197.048733,72.619887,4.353108,-5.491265,5.328314,0.733410,5.785760,-5.294994,-0.556478,-0.121134,0.292286,-0.043161,-1.049492,188.585078,1469.830698,-898.843198,0
0.037500,142.044586,-173.309757,22.540341,3.380448,-6.503094,3.840095,3.050591,6.888485,-3.918479,-2.847732,-0.088257,0.298034,-0.031958,0.115438,188.590452,1469.535490,-898.226575,0
0.038542,182.662080,-111.479690,-26.714394,2.419098,-6.041558,1.466882,4.740902,6.440044,-1.568331,-4.388279,-0.051727,0.313255,-0.054364,1.879798,188.503040,1469.268201,-897.834165,0
0.039583,194.015923,-53.950425,-97.808144,1.039278,-5.303100,-0.926174,6.084195,5.697542,0.899325,-5.846996,-0.000585,0.313974,-0.043161,2.139928,188.497956,1469.387514,-897.005088,0
0.040625,154.986379,-3.875078,-161.921781,-0.182202,-3.442755,-3.093021,6.237181,3.892749,3.006065,-5.989310,0.006721,0.327235,-0.039427,3.033418,188.646297,1469.014559,-896.610945,0
0.041666,92.727393,45.487496,-208.369698,-1.030452,-1.049867,-5.041595,5.517027,1.455727,5.041461,-5.420055,-0.044421,0.321682,-0.065566,4.990048,188.570893,1468.882876,-897.140088,0
0.042708,43.716449,120.111240,-183.797728,-0.566742,1.499233,-6.073427,3.923732,-1.040108,6.027683,-3.897296,-0.051727,0.314758,-0.043161,6.121048,188.495379,1469.031749,-896.947078,0
0.043750,-3.831313,186.519969,-133.373485,0.360678,3.782062,-6.283762,1.912523,-3.388912,6.380206,-1.965386,-0.113828,0.302280,-0.013287,6.890128,188.570741,1468.825051,-896.752421,0
0.044792,-59.591046,197.416945,-71.734281,1.491678,5.663709,-5.184464,-0.874810,-5.230463,5.322639,0.752809,-0.175929,0.293658,-0.020755,6.245458,188.646303,1469.028787,-896.810803,0
0.045833,-141.858202,173.714211,-21.310038,2.486958,6.686189,-3.684340,-3.191991,-6.322161,3.807633,3.040505,-0.197847,0.293919,-0.009553,4.537648,188.570874,1468.027842,-897.351626,0
0.046875,-183.303699,110.458597,26.750568,3.403068,6.245955,-1.299221,-4.915884,-5.881071,1.579189,4.655767,-0.256295,0.310511,-0.031958,2.954248,188.495394,1468.154806,-898.135084,0
0.047917,-194.373979,53.195112,97.979735,4.771578,5.496846,1.137490,-6.247983,-5.164299,-0.922040,6.018422,-0.263601,0.315084,-0.024490,2.807218,188.495369,1468.480109,-898.052923,0
0.048961,-154.323610,3.566759,163.053599,5.993058,3.611648,3.244808,-6.404700,-3.410967,-2.991009,6.157179,-0.274560,0.323184,-0.013287,1.664908,188.581361,1469.552915,-897.493993,0
0.050001,-93.130820,-45.530035,208.356629,6.807378,1.186808,5.153697,-5.677083,-1.025405,-5.005422,5.555902,-0.227071,0.331089,-0.028224,-0.088142,188.570912,1470.878611,-896.789574,0
0.051042,-44.766398,-120.008808,183.969319,6.434148,-1.369392,6.189497,-4.087520,1.617460,-6.025218,4.050933,-0.219765,0.316848,-0.017021,-1.411412,188.495488,1471.830971,-896.945690,0
0.052083,3.189694,-186.296729,133.877463,5.506728,-3.655771,6.431581,-2.072580,3.951561,-6.415511,2.172390,-0.201500,0.315019,-0.028224,-1.942982,188.495531,1472.665327,-896.527085,0
0.053125,59.652662,-197.290351,72.693750,4.296558,-5.509016,5.352126,0.752067,5.837221,-5.374731,-0.528016,-0.139399,0.300843,-0.061832,-1.354862,188.646295,1474.210495,-896.747432,0
0.054167,141.953846,-173.490970,21.937121,3.301278,-6.545698,3.891687,3.039397,6.928919,-3.914282,-2.822827,-0.088257,0.298949,-0.043161,0.002338,188.570808,1474.663083,-896.628469,0
0.055208,182.979670,-110.597784,-26.899053,2.396478,-6.098363,1.486725,4.755827,6.498856,-1.597707,-4.452321,-0.069992,0.310381,-0.028224,1.913728,188.495475,1475.808963,-896.945438,0
0.056250,193.947868,-52.597364,-97.672728,1.073208,-5.317301,-0.946017,6.069269,5.697542,0.890931,-5.875459,-0.004238,0.322401,-0.046895,2.083378,188.495408,1476.041448,-896.589770,0
0.057292,154.487309,-2.751554,-161.835607,-0.080412,-3.520861,-3.045398,6.259569,3.944209,3.006065,-6.010657,-0.011544,0.302607,-0.050629,3.033418,188.646308,1476.838953,-895.890282,0
0.058333,91.763281,45.825761,-208.443561,-1.007832,-1.056968,-5.021752,5.576728,1.477781,5.045657,-5.430728,-0.022503,0.326908,-0.031958,4.944808,188.570816,1477.193916,-895.305119,0
0.059381,42.831734,121.041469,-183.539205,-0.657222,1.531185,-6.045647,3.953583,-1.029081,6.027683,-3.879507,-0.051727,0.309727,-0.039427,6.268078,188.495432,1477.395417,-894.714174,0
0.060417,-3.785943,186.737425,-133.582766,0.360678,3.689754,-6.291699,1.979688,-3.330100,6.426369,-2.018753,-0.099216,0.302215,-0.039427,6.844888,188.495495,1478.410943,-893.991207,0
0.061458,-59.727156,197.271974,-72.842235,1.525608,5.617556,-5.228119,-0.867347,-5.193705,5.314246,0.685210,-0.150358,0.298622,-0.039427,6.166288,188.721733,1478.477616,-893.321809,0
0.062500,-142.572779,173.762534,-22.405682,2.430408,6.668438,-3.731963,-3.143483,-6.318485,3.904157,2.980021,-0.234377,0.302150,-0.035692,4.458478,188.570830,1479.663302,-892.516565,0
0.063542,-183.110876,111.739173,26.947538,3.403068,6.253055,-1.330969,-4.908421,-5.914152,1.616959,4.598842,-0.241683,0.312602,-0.046895,2.931628,188.513153,1480.263919,-892.109079,0
0.064583,-194.453377,53.907886,98.435228,4.726338,5.457793,1.046212,-6.244251,-5.164299,-0.838106,6.061117,-0.274560,0.316325,-0.058098,2.773288,188.583068,1481.085399,-891.854976,0
0.065625,-155.344435,3.578840,161.994887,5.925198,3.654252,3.276557,-6.352461,-3.377885,-2.932256,6.171410,-0.274560,0.328345,-0.031958,1.721458,188.511124,1480.719666,-891.758882,0
0.066667,-92.609065,-45.457550,208.701326,6.829998,1.197459,5.201320,-5.721860,-0.995999,-4.984438,5.612828,-0.252642,0.323838,-0.039427,-0.031592,188.578180,1481.121944,-891.744491,0
0.067708,-43.620805,-119.585977,184.129357,6.388908,-1.348090,6.197434,-4.143490,1.606432,-6.033612,4.072280,-0.212459,0.308486,-0.046895,-1.354862,188.504869,1481.438689,-891.262499,0
0.068750,3.756819,-186.743722,133.175758,5.404938,-3.630919,6.491109,-2.109894,3.980967,-6.386134,2.190179,-0.194194,0.313124,-0.024490,-1.954292,188.578966,1481.541918,-890.909483,0
0.069792,59.437154,-197.314513,71.881250,4.285248,-5.505466,5.375937,0.703559,5.822518,-5.345354,-0.528016,-0.154011,0.292286,-0.035692,-1.026872,188.578224,1481.088202,-890.505286,0
0.070833,141.987873,-173.430566,21.653977,3.380448,-6.591851,3.939310,3.013277,6.925243,-3.960445,-2.829942,-0.102869,0.299733,-0.050629,0.092818,188.590336,1481.581745,-890.238446,0
0.071875,182.877587,-110.827321,-26.948296,2.475648,-6.084162,1.534348,4.778215,6.520910,-1.635478,-4.427416,-0.059033,0.314300,-0.031958,1.925038,188.521003,1482.045350,-889.795110,0
0.072917,194.095320,-53.334299,-98.128220,1.118448,-5.374106,-0.914268,6.114046,5.749003,0.903522,-5.921711,-0.000585,0.322205,-0.017021,2.128618,188.657970,1483.066848,-890.565615,0
0.073965,153.920184,-3.258952,-163.694508,-0.182202,-3.520861,-3.124769,6.323002,3.925831,3.043835,-6.113835,0.028639,0.331285,-0.031958,3.056038,188.516351,1484.403248,-891.722419,0
0.075005,92.863503,46.200269,-208.443561,-1.041762,-1.071169,-5.069375,5.599117,1.532917,5.062444,-5.484096,-0.011544,0.328214,-0.039427,5.012668,188.579786,1485.681720,-891.860649,0
0.076049,43.807189,122.056265,-183.342235,-0.532812,1.548937,-6.125019,3.972239,-1.054811,6.124207,-3.968453,-0.048074,0.320637,-0.031958,6.154978,188.498687,1487.623138,-892.879569,0
0.077087,-3.683861,186.797830,-133.385796,0.383298,3.785612,-6.359165,1.949837,-3.388912,6.468336,-2.018753,-0.121134,0.313124,-0.031958,6.912748,188.655909,1488.102461,-893.681970,0
0.078129,-60.350993,197.465268,-71.623485,1.514298,5.720514,-5.303522,-0.912124,-5.245166,5.423360,0.706557,-0.132093,0.299080,-0.031958,6.177598,188.570513,1489.811445,-893.827515,0
0.079171,-142.391299,173.702130,-20.903788,2.486958,6.750094,-3.779586,-3.236767,-6.443460,3.941927,3.029831,-0.230724,0.298622,-0.031958,4.526338,188.570814,1491.383437,-894.599052,0
0.080212,-184.018276,109.733743,27.181439,3.403068,6.316960,-1.330969,-5.005437,-6.013398,1.621156,4.712693,-0.227071,0.310838,-0.046895,2.976868,188.495367,1493.041781,-895.412025,0
0.081259,-194.203842,52.144074,99.186175,4.782888,5.496846,1.137490,-6.326342,-5.248842,-0.917843,6.150063,-0.270907,0.316195,-0.031958,2.739358,188.646140,1494.540854,-896.140287,0
0.082303,-152.724317,2.769419,164.690910,6.026988,3.721707,3.308305,-6.539030,-3.370533,-3.091730,6.310166,-0.263601,0.293070,-0.035692,1.698838,188.570788,1496.473818,-897.696692,0
0.083340,-91.758377,-46.303213,208.652084,6.829998,1.261364,5.221163,-5.789024,-0.999675,-5.085159,5.716006,-0.263601,0.339450,-0.024490,-0.110762,188.570749,1498.307914,-898.320440,0
0.084382,-43.359928,-121.688054,183.624622,6.388908,-1.355191,6.316492,-4.195729,1.621135,-6.117546,4.154111,-0.201500,0.304501,-0.028224,-1.456652,188.495293,1500.552285,-898.433656,0
0.085422,3.609367,-186.598751,133.815909,5.495418,-3.673523,6.514921,-2.113625,3.977291,-6.486855,2.200853,-0.179582,0.323380,-0.031958,-1.988222,188.646225,1501.699848,-899.033747,0
0.086471,61.183899,-197.423241,71.585796,4.285248,-5.661678,5.467215,0.770724,5.929114,-5.370534,-0.613404,-0.117481,0.302607,-0.035692,-1.253072,188.570732,1502.702854,-900.447298,0
0.087515,142.929301,-172.947330,20.644508,3.289968,-6.655756,3.923436,3.084173,7.009785,-3.968839,-2.897541,-0.080951,0.306069,-0.039427,-0.042902,188.570788,1503.863579,-901.207172,0
0.088545,183.705590,-110.235357,-26.985227,2.373858,-6.187120,1.542285,4.845380,6.579722,-1.610297,-4.487899,-0.051727,0.315084,-0.020755,1.879798,188.495396,1504.757485,-902.111223,0
0.089588,193.925183,-52.826901,-98.780682,1.027968,-5.409609,-0.942048,6.173748,5.785760,0.895128,-5.950174,-0.051727,0.320506,-0.050629,2.105998,188.646154,1505.614531,-901.924481,0
0.090625,154.067636,-3.343518,-162.968182,-0.148272,-3.591866,-3.116832,6.390167,4.006697,3.056425,-6.081814,0.003068,0.331219,-0.043161,3.022108,188.570848,1505.826370,-901.520535,0
0.091666,91.990131,45.789518,-208.603599,-1.041762,-1.064068,-5.113030,5.621505,1.521890,5.096018,-5.519675,-0.015197,0.319134,-0.024490,4.922188,188.570792,1506.161426,-901.792968,0
0.092708,43.137981,120.606557,-183.871591,-0.532812,1.481481,-6.156767,4.076718,-1.010702,6.191354,-4.021821,-0.051727,0.307049,-0.024490,6.245458,188.495376,1507.077946,-901.735893,0
0.093750,-3.990108,187.087772,-133.078031,0.405918,3.771411,-6.382977,2.005807,-3.374209,6.480926,-2.100584,-0.088257,0.308813,-0.013287,6.822268,188.721516,1508.091107,-900.844801,0
0.094791,-59.817896,197.827695,-71.771212,1.559538,5.720514,-5.295585,-0.826302,-5.248842,5.427556,0.649632,-0.121134,0.302280,-0.039427,6.143668,188.649657,1508.420509,-900.563606,0
0.095833,-142.425327,173.786696,-21.913258,2.486958,6.753645,-3.811334,-3.195722,-6.432433,4.009074,3.008484,-0.212459,0.303783,-0.020755,4.469788,188.570977,1508.919897,-900.321424,0
0.096875,-183.666659,110.808944,26.676705,3.414378,6.338262,-1.398435,-4.934541,-6.024425,1.679910,4.669999,-0.241683,0.319004,-0.046895,3.010798,188.495472,1509.199836,-899.919887,0
0.097916,-194.476062,54.113261,98.767614,4.748958,5.582053,1.058118,-6.356193,-5.285599,-0.850696,6.139389,-0.285519,0.322009,-0.039427,2.807218,188.721661,1509.660747,-899.968646,0
0.098958,-154.845365,4.352018,163.041288,5.959128,3.757210,3.256714,-6.509179,-3.502860,-3.007796,6.299492,-0.292825,0.333506,-0.046895,1.710148,188.570861,1510.384489,-899.492568,0
0.100000,-93.278272,-45.409226,208.885985,6.829998,1.272015,5.296566,-5.792756,-1.018053,-5.059979,5.708890,-0.256295,0.331154,-0.087972,-0.076832,188.570908,1510.244379,-899.939316,0
0.101041,-44.165245,-120.455802,183.932387,6.411528,-1.376493,6.316492,-4.206924,1.569675,-6.130136,4.171900,-0.208806,0.322597,-0.028224,-1.400102,188.495389,1510.251989,-899.987778,0
0.102083,3.461914,-187.190715,133.311175,5.450178,-3.641570,6.538732,-2.150939,3.951561,-6.549805,2.215084,-0.183235,0.313516,-0.065566,-1.942982,188.721587,1511.159481,-899.768130,0
0.103125,59.754744,-197.652778,71.942803,4.273938,-5.597773,5.494995,0.688634,5.903384,-5.450271,-0.538689,-0.124787,0.301301,-0.084238,-1.004252,188.645873,1511.940956,-899.280818,0
0.104166,142.282778,-173.635941,21.666288,3.323898,-6.662857,4.010745,3.121487,7.057570,-4.052773,-2.886868,-0.102869,0.303718,-0.043161,0.092818,188.570817,1512.979243,-899.759959,0
0.105210,183.819015,-109.220561,-27.046780,2.419098,-6.261675,1.526411,4.871500,6.594425,-1.627084,-4.502130,-0.073645,0.314953,-0.080503,1.958968,188.495419,1513.270758,-899.432343,0
0.106250,194.118005,-52.367827,-98.374432,1.073208,-5.466413,-0.942048,6.184942,5.851924,0.869948,-5.957290,0.010374,0.315084,-0.031958,2.151238,188.721652,1514.104874,-899.076024,0
0.107291,153.387086,-3.319356,-163.596023,-0.159582,-3.659321,-3.128738,6.434944,4.043455,3.022851,-6.142298,0.003068,0.310511,-0.046895,3.056038,188.646304,1515.164590,-898.622376,0
0.108333,92.035501,45.789518,-208.812879,-1.007832,-1.127973,-5.148747,5.658819,1.569675,5.096018,-5.583716,-0.018850,0.341802,-0.035692,5.012668,188.570899,1516.315174,-898.363284,0
0.109375,44.022696,121.524706,-183.613069,-0.566742,1.502783,-6.220265,4.136420,-1.010702,6.161978,-4.060957,-0.048074,0.315411,-0.043161,6.166288,188.495501,1516.728497,-898.196113,0
0.110416,-3.445668,186.966963,-133.755114,0.349368,3.831766,-6.406788,2.039390,-3.451400,6.585844,-2.089910,-0.091910,0.320441,-0.020755,6.867508,188.721713,1517.728750,-900.022608,0
0.111458,-60.679926,197.755210,-72.423674,1.502988,5.827022,-5.390831,-0.822571,-5.377493,5.536670,0.685210,-0.161317,0.304306,-0.043161,6.143668,188.570886,1519.696254,-901.690064,0
