1-Time,2-VGERA,3-VGERB,4-VGERC,5-VN,6-IGERAN,7-IGERBN,8-IGERCN,9-IGERAT,10-IGERBT,11-IGERCT,12-IN,13-IFD,14-IFAULT,15-VFAULT,16-Speed (rad/s),17-Active Power,18-Reactive Power,19-FAULT 
0.000000,91.751938,51.781647,-212.272160,-1.143552,-0.989512,-5.057470,5.546877,1.422645,5.054051,-5.437844,-0.011544,0.333375,-0.050629,168.125485,188.419502,1527.228807,-927.269135,0
0.001042,41.901649,125.233543,-184.794887,-0.589362,1.690948,-6.168673,3.927463,-1.209192,6.132601,-3.900854,-0.026156,0.306461,-0.017021,136.106875,188.440423,1525.775829,-926.413840,0
0.002083,-7.415544,190.422101,-133.668940,0.405918,3.789162,-6.224233,1.912523,-3.447724,6.447353,-2.032985,-0.080951,0.314953,-0.009553,93.999746,188.277836,1524.727919,-925.822440,0
0.003125,-65.432434,201.306996,-73.470076,1.491678,5.685011,-5.017784,-1.031528,-5.190030,5.200935,0.809735,-0.161317,0.305351,-0.024490,28.922008,188.403237,1523.745831,-924.859901,0
0.004167,-146.270435,173.919586,-19.660417,2.543508,6.782047,-3.533533,-3.378559,-6.417730,3.744683,3.136567,-0.219765,0.301497,-0.035692,-42.251821,188.400034,1522.762909,-923.989557,0
0.005208,-187.421026,109.564611,31.539394,3.527478,6.228203,-1.200006,-5.009168,-5.925180,1.449092,4.723366,-0.208806,0.313843,-0.058098,-91.156260,188.445395,1520.750673,-924.058640,0
0.006250,-195.814477,52.929333,101.426705,4.839438,5.415190,1.347825,-6.348730,-5.061378,-1.131874,6.128716,-0.270907,0.302215,-0.061832,-135.593249,188.283799,1519.003197,-923.801477,0
0.007292,-153.609032,0.208268,166.094319,6.049608,3.640051,3.447206,-6.527836,-3.304370,-3.175664,6.288819,-0.234377,0.313320,-0.031958,-159.660928,188.269353,1516.723061,-923.195980,0
0.008333,-92.801887,-51.135575,212.160607,6.999648,1.161956,5.237037,-5.613650,-0.951890,-5.018012,5.559460,-0.252642,0.345199,-0.061832,-163.008688,188.418560,1515.929013,-921.377079,0
0.009375,-43.677518,-124.357934,184.941857,6.445458,-1.525604,6.308555,-4.039012,1.786544,-6.125939,4.011797,-0.223418,0.320637,-0.039427,-131.860949,188.420410,1514.095278,-921.065213,0
0.010417,7.080172,-190.464640,133.705114,5.518038,-3.691274,6.491109,-2.027803,4.006697,-6.432297,2.065655,-0.157664,0.321551,-0.046895,-87.141210,188.420318,1512.454793,-921.222901,0
0.011458,64.813500,-201.289130,72.964584,4.330488,-5.512567,5.225131,0.916247,5.811490,-5.139716,-0.759276,-0.117481,0.300647,-0.035692,-22.787311,188.269678,1510.591885,-921.589114,0
0.012500,145.549418,-173.672184,19.548864,3.323898,-6.613153,3.768661,3.233428,6.991406,-3.746414,-3.068318,-0.073645,0.297446,-0.061832,46.995387,188.420464,1509.565164,-921.042122,0
0.013542,186.677325,-109.643393,-31.257008,2.373858,-6.084162,1.383542,4.871500,6.476801,-1.492790,-4.583961,-0.051727,0.317697,-0.043161,95.334326,188.420457,1508.347383,-920.177028,0
0.014583,195.626558,-53.769212,-101.279735,1.039278,-5.242746,-1.156352,6.207330,5.649757,1.117553,-6.017773,0.017680,0.318873,-0.031958,138.787345,188.420363,1507.812372,-919.618458,0
0.015625,154.056294,-1.036066,-166.255114,-0.216132,-3.474707,-3.243827,6.412555,3.914803,3.207506,-6.174318,0.010374,0.333179,-0.028224,164.234845,188.269666,1507.464154,-919.793357,0
0.016667,93.010956,51.298411,-212.235228,-1.120932,-0.982412,-5.049532,5.505832,1.411618,5.049854,-5.452075,-0.018850,0.335400,-0.024490,166.745665,188.345055,1507.454231,-920.479637,0
0.017708,42.775021,124.677821,-184.745645,-0.578052,1.673196,-6.180579,3.897612,-1.187138,6.170371,-3.854602,-0.011544,0.317044,-0.002084,135.292555,188.420372,1507.017596,-921.076479,0
0.018750,-7.665079,190.277130,-133.435038,0.394608,3.838866,-6.295668,1.923717,-3.455076,6.476730,-2.004522,-0.102869,0.315803,-0.054364,91.884776,188.405995,1507.058873,-921.308811,0
0.019792,-64.808596,201.524452,-72.989962,1.536918,5.674360,-5.029689,-1.016602,-5.182678,5.196738,0.823966,-0.157664,0.301758,-0.031958,27.734458,188.320931,1506.764513,-921.377000,0
0.020833,-145.748680,174.233690,-19.992803,2.554818,6.803348,-3.557345,-3.389754,-6.399351,3.736289,3.150798,-0.172276,0.301105,-0.024490,-43.054831,188.397979,1506.293352,-921.702827,0
0.021875,-187.398341,110.772701,31.096212,3.516168,6.267256,-1.196037,-5.016631,-5.910477,1.453288,4.712693,-0.256295,0.317566,-0.009553,-90.149670,188.475006,1506.100064,-922.071803,0
0.022917,-196.132067,54.270313,101.168182,4.839438,5.376137,1.407354,-6.352461,-5.090784,-1.123481,6.157179,-0.274560,0.318285,-0.058098,-135.197399,188.401859,1506.598561,-922.832440,0
0.023958,-153.847225,0.812313,166.217425,6.049608,3.647151,3.451174,-6.520373,-3.355830,-3.192451,6.317282,-0.270907,0.326516,-0.039427,-160.837168,188.246803,1507.379566,-923.201085,0
0.025000,-92.416242,-50.821471,212.160607,6.988338,1.122903,5.272754,-5.650964,-0.926160,-5.068372,5.545229,-0.241683,0.338470,-0.043161,-163.347988,188.397535,1507.136931,-923.862029,0
0.026042,-42.634008,-123.995507,185.114205,6.479388,-1.504303,6.364115,-4.035281,1.804923,-6.138529,4.004681,-0.219765,0.315345,-0.035692,-131.148419,188.398904,1507.099887,-923.852753,0
0.027083,6.978090,-189.921000,134.172917,5.529348,-3.634470,6.483172,-2.024072,4.028752,-6.449084,2.147485,-0.161317,0.308356,-0.054364,-86.394750,188.477130,1507.876858,-923.757259,0
0.028125,64.666047,-201.337454,74.232576,4.353108,-5.477064,5.213225,0.867740,5.804139,-5.185880,-0.698792,-0.095563,0.304371,-0.039427,-23.986171,188.251189,1508.635979,-923.596646,0
0.029167,145.549418,-174.070854,20.373674,3.346518,-6.598952,3.780567,3.229697,6.950973,-3.742217,-3.046971,-0.073645,0.302542,-0.031958,47.854947,188.472348,1508.204220,-923.494308,0
0.030208,186.563900,-110.380328,-30.912311,2.373858,-6.066410,1.383542,4.893888,6.495180,-1.459217,-4.566172,-0.037115,0.315868,-0.035692,96.250436,188.405096,1507.993650,-923.992149,0
0.031250,195.739983,-53.020196,-100.405682,1.050588,-5.224994,-1.128572,6.196136,5.624027,1.104963,-6.035562,0.024986,0.320506,-0.013287,141.117205,188.487485,1507.643288,-923.885500,0
0.032292,154.113006,-0.069593,-165.319508,-0.159582,-3.432104,-3.212078,6.386436,3.933182,3.119375,-6.135182,0.003068,0.307441,-0.028224,165.037855,188.252125,1507.257301,-922.195563,0
0.033333,92.942901,51.105116,-212.050569,-1.064382,-1.003713,-4.997941,5.517027,1.514539,5.012084,-5.459191,0.010374,0.315019,-0.043161,168.724915,188.396898,1507.765174,-920.878115,0
0.034375,43.954641,123.795916,-185.262690,-0.623292,1.587990,-6.085333,3.912537,-1.154056,6.061257,-3.854602,-0.055380,0.326516,-0.058098,136.774165,188.475486,1506.645732,-920.347902,0
0.035417,-6.700966,190.313373,-134.173675,0.371988,3.789162,-6.244076,1.957300,-3.403615,6.434763,-2.018753,-0.062686,0.318481,-0.058098,94.259876,188.475466,1506.133432,-920.091168,0
0.036458,-64.252814,201.488209,-73.654735,1.491678,5.603354,-4.966192,-1.001677,-5.127542,5.121198,0.788388,-0.139399,0.301823,-0.035692,29.544058,188.255070,1504.932357,-919.570873,0
0.037500,-145.567200,174.161204,-19.968182,2.543508,6.696840,-3.565282,-3.315126,-6.325836,3.732092,3.154356,-0.190541,0.298426,-0.043161,-41.403571,188.400434,1504.149762,-919.089975,0
0.038542,-186.581681,110.784782,31.108523,3.527478,6.185600,-1.211912,-4.912152,-5.873719,1.507845,4.630862,-0.212459,0.317371,-0.028224,-90.353250,188.404271,1503.613448,-917.525021,0
0.039583,-196.200122,54.209908,100.651137,4.862058,5.397438,1.308139,-6.296491,-5.098136,-1.064727,6.103811,-0.248989,0.323446,-0.028224,-135.344429,188.477980,1503.395618,-916.441355,0
0.040625,-155.548600,1.307630,164.653978,6.060918,3.640051,3.419426,-6.434551,-3.333776,-3.137894,6.221220,-0.256295,0.330109,-0.046895,-159.310318,188.249546,1501.855535,-916.067571,0
0.041667,-93.811370,-50.495287,212.123675,6.920478,1.190359,5.165602,-5.628575,-0.940863,-4.946668,5.523882,-0.230724,0.327561,-0.043161,-163.008688,188.407454,1501.135550,-915.240541,0
0.042708,-43.700203,-122.763254,185.545076,6.468078,-1.472350,6.268869,-3.971847,1.716705,-6.083972,3.929966,-0.219765,0.320441,-0.035692,-131.951429,188.476273,1499.670164,-914.744023,0
0.043750,6.932720,-190.138456,134.099053,5.518038,-3.613168,6.427612,-2.050192,4.003021,-6.369347,2.108349,-0.172276,0.281572,-0.028224,-87.593610,188.478069,1498.483533,-914.395086,0
0.044792,63.804017,-201.361616,73.863258,4.398348,-5.338603,5.201320,0.841620,5.730624,-5.106143,-0.673887,-0.121134,0.303130,-0.009553,-23.940931,188.250979,1497.030222,-913.476557,0
0.045833,145.333911,-174.155420,20.816856,3.369138,-6.513745,3.709132,3.166263,6.917891,-3.750611,-2.972256,-0.040768,0.303456,-0.069301,45.864387,188.408869,1496.787150,-912.530333,0
0.046875,185.940062,-112.119978,-30.703030,2.385168,-5.998955,1.423228,4.785678,6.498856,-1.509577,-4.502130,-0.011544,0.320767,-0.046895,94.508696,188.418055,1496.883419,-912.059250,0
0.047917,195.944148,-54.481985,-100.122538,1.039278,-5.214343,-1.092854,6.173748,5.646082,1.088176,-5.928827,-0.000585,0.323707,-0.069301,138.436735,188.496042,1496.313514,-911.512826,0
0.048958,155.292626,-0.480344,-164.457766,-0.148272,-3.453405,-3.164455,6.371510,3.892749,3.157146,-6.128066,-0.022503,0.326647,-0.043161,163.194325,188.269946,1495.689270,-912.638894,0
0.050000,92.613968,50.863498,-212.210607,-1.064382,-1.017914,-4.997941,5.513295,1.518214,5.012084,-5.398708,0.021333,0.306853,-0.054364,166.779595,188.345386,1494.969542,-912.472425,0
0.051042,42.877104,123.143547,-185.607387,-0.578052,1.602191,-6.017867,3.905075,-1.135677,6.099027,-3.854602,-0.029809,0.304371,-0.035692,135.790195,188.420837,1495.273790,-912.312201,0
0.052083,-7.029899,189.842218,-134.666099,0.349368,3.785612,-6.279793,1.975956,-3.410967,6.413779,-2.000964,-0.102869,0.320179,-0.031958,93.015776,188.492544,1494.842487,-912.476264,0
0.053125,-64.139389,201.367400,-74.824243,1.480368,5.596254,-4.997941,-0.975557,-5.101812,5.179951,0.774156,-0.139399,0.306592,-0.017021,28.718428,188.269633,1495.346456,-912.518445,0
0.054167,-145.476460,174.668602,-20.756061,2.509578,6.746544,-3.529565,-3.303932,-6.340539,3.719502,3.097430,-0.168623,0.301823,-0.054364,-42.353611,188.345073,1495.361629,-912.458198,0
0.055208,-186.388859,111.715011,30.603788,3.470928,6.224653,-1.243660,-4.934541,-5.903125,1.512042,4.677114,-0.208806,0.313582,-0.028224,-89.538930,188.420381,1495.716308,-913.501025,0
0.056250,-196.290862,53.726672,99.838637,4.816818,5.400989,1.320045,-6.289028,-5.039324,-1.068924,6.075348,-0.259948,0.314104,-0.058098,-134.711069,188.498432,1494.589559,-913.279595,0
0.057292,-155.072215,0.606937,164.309281,6.038298,3.686204,3.399583,-6.471865,-3.366858,-3.116910,6.267472,-0.252642,0.332461,-0.009553,-160.328218,188.269601,1495.288711,-912.714961,0
0.058336,-93.403040,-50.471125,211.951326,6.943098,1.250713,5.177508,-5.650964,-0.929835,-5.005422,5.548787,-0.230724,0.334290,-0.028224,-164.105758,188.269494,1495.671547,-913.286381,0
0.059387,-44.017793,-124.394176,184.978788,6.434148,-1.514953,6.296649,-4.024086,1.764490,-6.121742,3.965545,-0.230724,0.320833,-0.035692,-131.159729,188.433302,1496.685164,-913.808683,0
0.060418,6.376937,-189.667301,134.874622,5.506728,-3.606067,6.463329,-2.053923,3.966264,-6.432297,2.140370,-0.164970,0.319722,-0.031958,-86.632260,188.510825,1497.396040,-913.882305,0
0.061458,63.622537,-201.482425,74.700379,4.375728,-5.384757,5.217194,0.811769,5.726948,-5.164896,-0.645424,-0.132093,0.298753,-0.020755,-24.302851,188.284178,1498.172876,-913.936120,0
0.062500,144.619333,-174.409119,20.755303,3.335208,-6.503094,3.717069,3.192383,6.892161,-3.733824,-2.997161,-0.037115,0.298753,-0.013287,46.984077,188.289954,1497.513873,-914.229831,0
0.063542,185.622472,-111.564256,-30.493750,2.407788,-6.030907,1.462914,4.759558,6.447395,-1.555740,-4.473668,-0.004238,0.317632,-0.035692,95.628386,188.421237,1497.001659,-913.170331,0
0.064583,195.910120,-53.950425,-99.556250,1.084518,-5.178841,-1.076980,6.170016,5.631379,1.037816,-5.939500,-0.004238,0.319265,-0.069301,140.755285,188.497126,1496.938817,-912.592637,0
0.065625,156.324794,-1.205198,-163.792993,-0.182202,-3.496009,-3.152549,6.356585,3.922155,3.115179,-6.074699,0.014027,0.326255,-0.024490,164.902135,188.255741,1496.508094,-912.209602,0
0.066667,94.406083,50.392343,-211.804357,-1.053072,-1.049867,-4.962224,5.528221,1.510863,4.915560,-5.391592,-0.011544,0.334878,-0.028224,168.883255,188.421852,1495.772536,-911.986787,0
0.067708,43.988669,122.152913,-186.296781,-0.578052,1.577339,-5.990087,3.849104,-1.109947,5.994110,-3.865276,-0.029809,0.320767,-0.024490,137.181325,188.413616,1494.802295,-911.565713,0
0.068750,-6.780364,189.830137,-134.739963,0.383298,3.799813,-6.220265,1.979688,-3.319073,6.350829,-2.022311,-0.069992,0.310511,-0.031958,94.508696,188.489247,1494.161278,-910.215956,0
0.069792,-63.220646,201.778151,-74.319508,1.491678,5.493296,-4.990004,-0.889736,-5.068730,5.104411,0.720789,-0.146705,0.304632,-0.020755,30.494098,188.264931,1493.256308,-909.447921,0
0.070833,-144.841280,174.487389,-21.199242,2.554818,6.636485,-3.537502,-3.244230,-6.259673,3.757273,3.076083,-0.227071,0.300582,-0.046895,-40.046371,188.413466,1492.606301,-908.589531,0
0.071875,-185.730994,113.515066,30.468371,3.504858,6.121695,-1.259535,-4.811405,-5.877395,1.562402,4.556147,-0.212459,0.318024,-0.039427,-89.425830,188.425659,1492.232811,-907.382636,0
0.072917,-196.460999,55.309271,99.678599,4.816818,5.365486,1.236704,-6.255446,-5.039324,-0.997580,6.014865,-0.274560,0.318481,-0.031958,-134.971199,188.416031,1492.016180,-906.721047,0
0.073958,-157.023125,0.933122,163.127463,5.993058,3.608098,3.292431,-6.393506,-3.333776,-3.049763,6.192757,-0.238030,0.328868,-0.039427,-158.756128,188.274009,1490.831308,-906.416027,0
0.075000,-93.720630,-49.999970,211.988258,6.965718,1.243613,5.117979,-5.591262,-0.940863,-4.904701,5.498977,-0.256295,0.308356,-0.043161,-163.042618,188.426302,1489.762530,-905.409996,0
0.076042,-43.620805,-121.228980,186.456061,6.535938,-1.394244,6.185528,-3.986773,1.650541,-5.995841,3.969103,-0.186888,0.316848,-0.058098,-132.482999,188.423744,1488.338101,-903.718689,0
0.077083,6.490362,-189.631058,135.108523,5.540658,-3.542162,6.451424,-2.113625,3.896425,-6.407117,2.175948,-0.175929,0.314692,-0.046895,-88.690680,188.495079,1488.356329,-902.613333,0
0.078125,63.055412,-201.434101,75.771402,4.387038,-5.310201,5.197351,0.748336,5.624027,-5.122929,-0.606288,-0.110175,0.304959,-0.017021,-25.162411,188.272897,1487.300743,-901.720740,0
0.079167,144.687388,-174.517847,21.961742,3.335208,-6.442740,3.760724,3.114024,6.844376,-3.759004,-2.947351,-0.055380,0.302150,-0.039427,44.846487,188.419437,1487.063221,-901.127348,0
0.080208,185.214142,-113.183097,-30.235227,2.351238,-5.974103,1.490694,4.714782,6.443720,-1.585117,-4.473668,-0.015197,0.316456,-0.050629,93.852716,188.414624,1487.178805,-901.510411,0
0.081250,196.091600,-53.986668,-98.940720,1.095828,-5.214343,-1.061106,6.155091,5.605648,1.004242,-5.914596,0.014027,0.314170,-0.058098,138.074815,188.493382,1486.689642,-901.073231,0
0.082292,156.551644,-0.250807,-162.808144,-0.103032,-3.496009,-3.100958,6.263300,3.940534,3.048032,-6.096046,-0.004238,0.291698,-0.024490,162.583585,188.265252,1486.942717,-900.044215,0
0.083333,93.646136,50.235291,-211.767425,-1.041762,-1.056968,-4.890789,5.502101,1.499836,4.861003,-5.409381,-0.048074,0.332265,-0.050629,167.537365,188.482534,1486.702271,-899.311970,0
0.084375,44.759959,121.742162,-186.444508,-0.600672,1.531185,-6.009930,3.920000,-1.062162,6.023487,-3.872392,-0.040768,0.322531,-0.050629,136.694995,188.412513,1487.002723,-899.399686,0
0.085417,-6.054443,189.431467,-135.577084,0.338058,3.689754,-6.204390,2.005807,-3.315397,6.350829,-2.054332,-0.066339,0.316195,-0.028224,93.377696,188.505595,1487.075083,-899.659470,0
0.086458,-63.050508,201.850636,-75.255114,1.469058,5.454243,-4.954286,-0.915855,-5.068730,5.104411,0.713673,-0.139399,0.304763,-0.046895,29.170828,188.270091,1487.052543,-899.999496,0
0.087500,-144.489662,174.837735,-21.051515,2.520888,6.664888,-3.501785,-3.266618,-6.244970,3.706912,3.083199,-0.205153,0.297316,-0.039427,-41.426191,188.502801,1486.341905,-900.289592,0
0.088542,-185.662939,112.826455,30.382197,3.561408,6.157198,-1.275409,-4.796480,-5.836962,1.549812,4.563263,-0.227071,0.314235,-0.024490,-89.041290,188.425173,1485.704040,-900.098690,0
0.089583,-196.438314,54.499850,98.976894,4.828128,5.383237,1.236704,-6.225595,-5.046675,-0.993384,6.050443,-0.267254,0.333571,-0.028224,-134.315219,188.506773,1485.836631,-900.141836,0
0.090625,-157.272660,1.706300,163.004357,6.004368,3.672003,3.320211,-6.408432,-3.388912,-3.037173,6.189199,-0.274560,0.328802,-0.039427,-160.192498,188.278660,1486.206033,-900.017906,0
0.091667,-95.376635,-49.589219,211.532766,6.920478,1.240062,5.102105,-5.617381,-0.984972,-4.908898,5.520324,-0.212459,0.326320,-0.035692,-164.512918,188.289164,1486.632826,-900.380514,0
0.092708,-45.083988,-121.011523,186.702273,6.490698,-1.340990,6.205371,-4.016624,1.665244,-5.974858,3.972661,-0.183235,0.320049,-0.058098,-132.041909,188.439238,1486.311161,-901.031282,0
0.093750,6.252170,-189.051175,135.576326,5.540658,-3.535062,6.415706,-2.098700,3.892749,-6.377740,2.161717,-0.194194,0.319200,-0.046895,-87.209070,188.506216,1485.637530,-901.183202,0
0.094792,62.510972,-201.711962,75.180493,4.398348,-5.267598,5.173540,0.744604,5.605648,-5.143913,-0.570710,-0.102869,0.305416,-0.039427,-24.902281,188.368578,1485.919748,-900.585580,0
0.095833,143.689248,-174.602413,21.740152,3.403068,-6.428538,3.721038,3.110293,6.814970,-3.704447,-2.933120,-0.055380,0.301888,-0.054364,45.355437,188.284959,1484.763983,-900.482555,0
0.096875,184.953265,-114.197893,-29.939773,2.373858,-5.970553,1.526411,4.662543,6.443720,-1.580921,-4.402511,-0.062686,0.319788,-0.035692,94.961096,188.438737,1484.421612,-900.147308,0
0.097917,195.989518,-55.388053,-98.522159,1.095828,-5.189491,-1.009514,6.084195,5.583594,1.012636,-5.879017,-0.000585,0.321943,-0.028224,140.087995,188.498867,1483.618065,-900.493746,0
0.098958,157.731264,-1.060227,-162.118750,-0.080412,-3.453405,-3.025555,6.263300,3.925831,2.980884,-6.028447,-0.000585,0.327561,-0.046895,164.314015,188.495736,1482.619969,-900.040039,0
0.100000,94.326686,49.993673,-211.373485,-0.996522,-1.056968,-4.831260,5.517027,1.540269,4.873593,-5.356014,-0.000585,0.335857,-0.069301,168.849325,188.344905,1482.194752,-899.995582,0
0.101042,44.000011,120.654880,-187.170834,-0.589362,1.485032,-5.894841,3.860298,-1.025405,5.935356,-3.847487,-0.029809,0.313908,-0.050629,137.769445,188.475516,1481.142707,-898.969100,0
0.102083,-6.292636,189.008635,-135.749432,0.383298,3.625849,-6.184547,2.020733,-3.271288,6.329845,-2.050774,-0.051727,0.307572,-0.028224,95.379566,188.475914,1480.749146,-898.364583,0
0.103126,-62.596808,201.850636,-76.264584,1.469058,5.400989,-4.950318,-0.878542,-4.962133,5.091821,0.667421,-0.168623,0.311883,-0.017021,31.647718,188.472660,1480.122355,-897.317606,0
0.104167,-144.194757,177.712990,-22.171780,2.498268,6.604533,-3.513690,-3.191991,-6.160428,3.744683,2.994253,-0.172276,0.300713,-0.031958,-39.288601,188.477438,1480.277338,-896.798953,0
0.105209,-185.209239,114.698995,30.123674,3.470928,6.086192,-1.291283,-4.740509,-5.822259,1.629549,4.438739,-0.227071,0.316783,-0.050629,-88.950810,188.543121,1480.324355,-895.412195,0
0.106251,-196.381602,54.668983,98.361364,4.794198,5.369036,1.208924,-6.158430,-4.998891,-0.951417,5.957939,-0.256295,0.318154,-0.061832,-134.462249,188.488315,1479.062643,-894.276298,0
0.107292,-158.077978,0.594856,161.637879,5.993058,3.672003,3.209091,-6.274102,-3.377885,-2.936452,6.089579,-0.245336,0.326647,0.001650,-158.258488,188.368811,1477.816480,-892.435091,0
0.108334,-94.548632,-49.444248,211.323485,6.943098,1.250713,5.022733,-5.613650,-1.021729,-4.820767,5.527440,-0.219765,0.329194,-0.043161,-163.404538,188.366390,1477.587305,-890.849340,0
0.109375,-45.231440,-120.069213,187.403978,6.513318,-1.273534,6.090282,-3.983041,1.547620,-5.890924,3.972661,-0.201500,0.335662,-0.043161,-133.433039,188.496165,1477.096930,-889.240474,0
0.110417,5.458195,-188.688748,136.253410,5.518038,-3.449855,6.391895,-2.150939,3.826585,-6.335774,2.186622,-0.132093,0.315019,-0.035692,-89.335350,188.494010,1476.570369,-888.624718,0
