1-Time,2-VGERA,3-VGERB,4-VGERC,5-VN,6-IGERAN,7-IGERBN,8-IGERCN,9-IGERAT,10-IGERBT,11-IGERCT,12-IN,13-IFD,14-IFAULT,15-VFAULT,16-Speed (rad/s),17-Active Power,18-Reactive Power,19-FAULT 
0.000000,-102.942083,-77.641078,196.439963,6.682968,3.451886,2.736829,-5.759173,-3.344803,-2.453833,5.506093,-0.248989,0.455337,-0.046895,-22.685521,188.715371,1616.967334,-9.226315,0
0.001041,-30.962575,-135.097857,193.485417,6.615108,1.516984,4.502849,-5.363648,-1.378277,-4.359131,5.249928,-0.270907,0.461869,-0.024490,64.412787,188.569308,1616.734670,-9.513705,0
0.002083,34.687818,-179.338128,145.240152,5.676378,-0.716141,5.562461,-4.109908,0.874958,-5.383124,4.054491,-0.227071,0.453900,-0.028224,132.442436,188.570368,1617.969557,-9.838363,0
0.003125,86.557073,-205.952359,70.305493,4.341798,-3.055774,5.729141,-1.990490,3.238465,-5.718860,2.044308,-0.197847,0.446257,-0.061832,186.786984,188.498796,1618.657538,-10.069095,0
0.004167,148.192221,-172.669469,6.499621,3.086388,-4.685352,5.133854,0.158779,4.833741,-5.038995,0.002104,-0.124787,0.445799,-0.039427,215.367354,188.719496,1619.847627,-10.476708,0
0.005209,189.671745,-124.877413,-56.998485,1.910148,-5.533868,3.717069,2.188645,5.793112,-3.813561,-2.008080,-0.102869,0.447759,-0.065566,214.157184,188.566160,1620.182105,-10.869639,0
0.006255,191.089558,-45.675006,-115.670834,0.745218,-5.590673,1.613720,4.173733,5.789436,-1.702625,-3.911528,-0.026156,0.451025,-0.043161,171.857785,188.563921,1621.269624,-11.587100,0
0.007306,164.389311,24.080134,-167.917046,-0.204822,-5.019078,-0.390415,5.252099,5.304237,0.303394,-5.121196,-0.026156,0.449850,-0.046895,104.065646,188.555873,1621.232327,-11.725844,0
0.008342,100.746541,78.939519,-197.216288,-0.792942,-3.297193,-2.612822,5.655087,3.617068,2.498265,-5.388034,-0.022503,0.446257,-0.024490,24.137878,188.704049,1622.169642,-11.723515,0
0.009376,29.980681,135.828496,-193.055304,-0.736392,-1.383593,-4.335187,5.233442,1.639514,4.336416,-5.171006,-0.015197,0.463503,-0.031958,-58.266780,188.496829,1622.534940,-11.263094,0
0.010416,-34.671572,179.513045,-145.056250,0.168408,0.885035,-5.367019,3.968508,-0.599018,5.339426,-3.939991,-0.007891,0.458799,-0.020755,-128.253059,188.556970,1622.299071,-11.942457,0
0.011458,-87.164665,206.175600,-70.293940,1.570848,3.199816,-5.549574,1.856553,-2.940471,5.666768,-1.936923,-0.106522,0.444558,-0.031958,-179.679628,188.501235,1622.124997,-11.677306,0
0.012500,-148.402825,172.566525,-5.503220,2.848878,4.811642,-4.938412,-0.229283,-4.487961,5.003690,0.126628,-0.139399,0.442990,-0.039427,-210.669027,188.725759,1621.749393,-10.962195,0
0.013542,-190.154569,124.279152,57.600947,4.059048,5.649508,-3.569251,-2.247954,-5.517171,3.816026,2.133254,-0.186888,0.452071,-0.065566,-207.807597,188.512215,1622.020679,-10.218068,0
0.014583,-191.095997,47.227146,115.066856,5.110878,5.731164,-1.489713,-4.255431,-5.480414,1.700893,4.022470,-0.234377,0.450699,-0.024490,-166.412998,188.589273,1622.355536,-10.026508,0
0.015625,-165.110328,-21.489036,168.211743,6.049608,5.177321,0.458862,-5.412156,-5.028297,-0.275749,5.217907,-0.241683,0.446583,-0.017021,-102.047789,188.498579,1622.023706,-8.972837,0
0.016666,-102.023340,-78.269285,196.316857,6.603798,3.448336,2.744766,-5.747979,-3.285991,-2.441243,5.470514,-0.227071,0.414770,-0.058098,-19.575271,188.646261,1620.987305,-8.909360,0
0.017708,-29.340597,-135.569013,193.276137,6.603798,1.506333,4.443320,-5.341260,-1.326816,-4.325558,5.267717,-0.241683,0.452985,-0.046895,63.779427,188.647150,1620.661587,-8.459513,0
0.018749,34.767216,-179.301885,145.227841,5.732928,-0.740993,5.514838,-4.128565,0.805119,-5.387321,4.058049,-0.208806,0.461477,-0.043161,133.132346,188.514407,1620.587938,-7.611750,0
0.019791,87.124198,-205.855712,70.760985,4.285248,-2.991869,5.693424,-1.960639,3.249493,-5.655909,2.040750,-0.172276,0.444558,-0.035692,186.029214,188.510371,1620.018656,-7.786780,0
0.020833,148.362358,-172.331204,5.490152,3.063768,-4.667600,5.098136,0.199824,4.822714,-5.018012,-0.051264,-0.106522,0.438810,-0.031958,213.987534,188.588567,1619.592683,-8.023325,0
0.021875,189.660403,-123.681403,-57.761743,1.898838,-5.537419,3.756755,2.136405,5.756354,-3.817758,-2.008080,-0.088257,0.450242,-0.009553,213.614304,188.512791,1619.023553,-7.330082,0
0.022916,190.794653,-46.363617,-115.633902,0.733908,-5.572921,1.661343,4.114031,5.778409,-1.685838,-3.868834,-0.077298,0.451352,-0.061832,172.197085,188.507839,1618.459820,-7.385851,0
0.023958,165.103889,21.688115,-168.286364,-0.227442,-5.058131,-0.346761,5.274487,5.304237,0.253034,-5.117638,-0.022503,0.462849,-0.031958,105.852626,188.508728,1618.659663,-7.695154,0
0.025000,101.608571,78.722063,-196.576137,-0.770322,-3.290093,-2.573136,5.606579,3.642798,2.447904,-5.363129,-0.000585,0.425679,-0.013287,23.334868,188.661344,1618.194620,-7.211714,0
0.026041,28.199908,135.985548,-192.907576,-0.713772,-1.365842,-4.323282,5.207323,1.643190,4.340613,-5.117638,-0.022503,0.444689,-0.017021,-59.793630,188.504109,1617.469752,-6.724147,0
0.027083,-35.510917,180.286223,-144.317614,0.236268,0.877934,-5.359082,3.949851,-0.569612,5.326836,-3.929317,-0.044421,0.458864,-0.039427,-128.253059,188.572380,1617.291485,-5.849281,0
0.028125,-87.516282,205.680283,-70.737121,1.582158,3.231769,-5.589260,1.841627,-2.977228,5.662571,-1.933365,-0.077298,0.446975,-0.058098,-182.156518,188.515933,1617.403264,-6.275653,0
0.029166,-149.605130,172.264502,-5.306250,2.781018,4.832944,-4.894758,-0.341224,-4.502664,5.003690,0.201343,-0.139399,0.440247,-0.061832,-210.669027,188.589016,1617.743501,-6.886057,0
0.030208,-189.598786,123.518055,58.413447,4.025118,5.674360,-3.545439,-2.266611,-5.473062,3.761469,2.172390,-0.201500,0.445016,-0.031958,-209.447547,188.519480,1616.702817,-7.304155,0
0.031250,-191.118682,45.547900,115.830114,5.144808,5.756016,-1.485744,-4.262894,-5.498793,1.675713,4.004681,-0.216112,0.443709,-0.024490,-166.978498,188.514327,1616.688575,-6.647324,0
0.032291,-165.337178,-21.452793,168.211743,6.117468,5.202173,0.466799,-5.378574,-5.057703,-0.271552,5.214349,-0.259948,0.463764,-0.009553,-102.658529,188.510378,1617.007845,-6.447096,0
0.033333,-101.887230,-78.341770,196.957008,6.603798,3.451886,2.728892,-5.766636,-3.293343,-2.499996,5.520324,-0.245336,0.461739,-0.031958,-20.468761,188.587450,1618.176246,-6.976270,0
0.034375,-28.603334,-135.798550,192.574432,6.592488,1.499233,4.486975,-5.337529,-1.268004,-4.359131,5.210791,-0.234377,0.418690,-0.058098,66.572997,188.521097,1617.460029,-7.723593,0
0.035416,35.924151,-180.642865,143.812122,5.665068,-0.762294,5.554524,-4.106177,0.926419,-5.370534,4.018913,-0.227071,0.432930,-0.058098,133.426406,188.519920,1617.334625,-8.456867,0
0.036458,87.555213,-205.215424,70.539394,4.307868,-3.069975,5.673581,-1.975564,3.234790,-5.685286,2.040750,-0.172276,0.450764,-0.024490,187.318554,188.518297,1617.416737,-8.060665,0
0.037499,149.632718,-172.186233,5.810227,3.063768,-4.692452,5.062419,0.196093,4.826389,-5.038995,-0.076169,-0.117481,0.445865,-0.050629,215.785824,188.653527,1617.980582,-8.077159,0
0.038543,189.195360,-123.149843,-58.635796,1.853598,-5.491265,3.677383,2.177450,5.760030,-3.771594,-2.040100,-0.077298,0.446191,-0.054364,212.743434,188.550568,1617.621618,-8.491642,0
0.039583,190.987475,-44.297783,-115.880114,0.767838,-5.587123,1.605783,4.158808,5.793112,-1.656461,-3.918644,-0.048074,0.448282,-0.058098,171.575035,188.494236,1617.977444,-8.498787,0
0.040625,164.616161,22.666668,-168.138637,-0.216132,-5.036829,-0.295169,5.263293,5.296885,0.282411,-5.092733,-0.018850,0.457950,-0.050629,105.660356,188.518758,1617.490008,-8.348241,0
0.041666,101.676626,78.722063,-196.920834,-0.804252,-3.314944,-2.585042,5.595385,3.565607,2.477281,-5.356014,-0.000585,0.464025,-0.020755,24.296218,188.518579,1617.183039,-9.421348,0
0.042708,28.755691,136.505027,-192.328978,-0.725082,-1.337440,-4.299470,5.132695,1.617460,4.323826,-5.103406,-0.022503,0.453704,-0.058098,-60.279960,188.503890,1616.809016,-9.640326,0
0.043750,-36.406975,180.769459,-143.345076,0.202338,0.931188,-5.367019,3.938657,-0.584315,5.343623,-3.886623,-0.044421,0.438287,-0.031958,-129.734669,188.513699,1616.622821,-9.591577,0
0.044791,-87.969982,205.583636,-69.493750,1.650018,3.196266,-5.505919,1.826702,-2.892686,5.620604,-1.908460,-0.110175,0.442272,-0.058098,-180.245128,188.511200,1615.345715,-8.522082,0
0.045833,-150.024802,171.877913,-5.355492,2.803638,4.797441,-4.918569,-0.300179,-4.440177,4.974314,0.162207,-0.164970,0.444950,-0.031958,-211.585137,188.506417,1614.457278,-7.662721,0
0.046874,-190.063829,123.783835,58.684280,4.025118,5.606905,-3.497816,-2.281537,-5.428953,3.748879,2.087002,-0.154011,0.444036,-0.024490,-206.755767,188.495296,1613.781198,-6.647213,0
0.047916,-190.959887,44.545185,116.174811,5.122188,5.670810,-1.410341,-4.233043,-5.414250,1.633746,3.979776,-0.234377,0.432865,-0.035692,-164.886148,188.497261,1612.368956,-6.652935,0
0.048958,-164.633943,-23.192444,168.285607,6.072228,5.148919,0.431082,-5.352454,-4.991539,-0.296733,5.189444,-0.212459,0.444493,-0.046895,-101.244779,188.491409,1611.320836,-6.492326,0
0.050000,-101.320105,-78.873330,196.489205,6.615108,3.423484,2.748735,-5.706934,-3.274964,-2.445439,5.442051,-0.230724,0.456643,-0.046895,-19.122871,188.720853,1609.762931,-5.703326,0
0.051041,-29.522077,-136.475080,192.217425,6.592488,1.488582,4.439352,-5.281558,-1.337844,-4.329754,5.221465,-0.223418,0.461739,-0.054364,65.136627,188.495694,1609.937777,-4.750976,0
0.052083,36.196371,-180.437490,143.492046,5.676378,-0.758744,5.487058,-4.031549,0.919067,-5.328567,3.983334,-0.212459,0.441488,-0.039427,134.862775,188.495655,1608.994331,-4.644162,0
0.053125,88.020256,-205.408719,68.975947,4.273938,-3.013171,5.673581,-1.938251,3.234790,-5.643319,2.022961,-0.194194,0.441553,-0.005818,186.266724,188.502632,1608.354287,-4.239617,0
0.054166,149.610033,-171.654673,4.948485,3.086388,-4.642749,5.046545,0.177436,4.763902,-5.013815,-0.022801,-0.106522,0.440965,-0.069301,214.948884,188.437628,1607.348255,-2.949376,0
0.055208,189.592348,-123.693484,-58.746591,1.853598,-5.448662,3.693258,2.173719,5.693866,-3.733824,-2.011638,-0.084604,0.447237,-0.043161,212.947014,188.514856,1606.464855,-2.883516,0
0.056250,190.567803,-44.672291,-116.655682,0.733908,-5.562271,1.581971,4.121494,5.745327,-1.652264,-3.865276,-0.062686,0.443709,-0.046895,170.647615,188.512917,1605.554322,-2.473346,0
0.057291,164.151119,24.055972,-168.114016,-0.170892,-4.965824,-0.307075,5.237174,5.256452,0.240444,-5.074944,0.006721,0.453900,-0.058098,104.167436,188.510986,1604.801089,-1.569522,0
0.058333,99.805114,79.591888,-196.883902,-0.759012,-3.247489,-2.608853,5.565534,3.528850,2.489871,-5.370245,-0.007891,0.460040,-0.002084,22.588408,188.509613,1604.512452,-1.254826,0
0.059375,28.948513,136.831211,-191.922728,-0.725082,-1.337440,-4.287564,5.162546,1.577026,4.256679,-5.057154,-0.029809,0.463241,-0.046895,-60.087690,188.514393,1603.250568,-1.323967,0
0.060416,-35.896562,181.325180,-143.049622,0.202338,0.966691,-5.370988,3.912537,-0.606369,5.339426,-3.822582,-0.026156,0.455598,-0.046895,-129.689429,188.509614,1602.767358,-2.120553,0
0.061458,-88.412340,205.378260,-68.558144,1.627398,3.224668,-5.474171,1.826702,-2.955174,5.587031,-1.826630,-0.099216,0.440116,-0.005818,-182.518438,188.509792,1602.231355,-3.212747,0
0.062499,-150.376420,171.600053,-3.718182,2.837568,4.818743,-4.926506,-0.303911,-4.517367,5.003690,0.190669,-0.161317,0.439528,-0.020755,-211.098807,188.502290,1603.290582,-3.223593,0
0.063541,-189.451334,123.578459,59.349053,4.047738,5.599804,-3.541470,-2.292731,-5.432629,3.732092,2.129696,-0.190541,0.446975,-0.039427,-209.379687,188.505490,1603.200719,-3.657389,0
0.064583,-191.186737,45.427091,117.319697,5.167428,5.674360,-1.406372,-4.266625,-5.443656,1.616959,4.029586,-0.194194,0.448608,-0.028224,-166.277278,188.516488,1604.338188,-4.259941,0
0.065624,-164.588573,-23.736084,168.076326,6.083538,5.102765,0.470768,-5.359917,-4.958457,-0.313519,5.193002,-0.205153,0.453965,-0.020755,-100.509629,188.515171,1604.000142,-4.517098,0
0.066666,-99.119660,-79.549861,197.412501,6.626418,3.377330,2.768578,-5.744248,-3.263937,-2.508390,5.498977,-0.252642,0.479899,-0.054364,-18.534751,188.519772,1604.902168,-4.481806,0
0.067708,-28.002182,-136.680456,191.749622,6.569868,1.449529,4.447289,-5.281558,-1.326816,-4.291984,5.164539,-0.234377,0.463568,-0.020755,66.855747,188.505903,1603.659370,-3.901736,0
0.068749,35.844753,-181.645581,143.098106,5.687688,-0.780046,5.498963,-4.050206,0.882310,-5.357944,3.983334,-0.205153,0.456055,-0.046895,134.342516,188.510539,1604.206439,-3.476763,0
0.069791,88.439928,-204.659703,69.000568,4.251318,-3.062875,5.598178,-1.915862,3.253168,-5.622336,2.005171,-0.186888,0.447237,-0.017021,187.623924,188.500030,1603.800259,-3.730829,0
0.070833,150.267898,-171.618430,3.532765,3.018528,-4.621447,5.022733,0.199824,4.793308,-4.942472,-0.061938,-0.102869,0.441880,-0.031958,215.989404,188.579726,1603.489335,-4.155262,0
0.071874,188.923140,-122.509555,-59.657576,1.876218,-5.434461,3.653572,2.181182,5.719597,-3.712841,-2.054332,-0.102869,0.447563,-0.020755,212.562474,188.500785,1603.411738,-4.349499,0
0.072916,190.828680,-44.865585,-117.443561,0.745218,-5.540969,1.585940,4.125226,5.723272,-1.677445,-3.865276,-0.037115,0.458799,-0.024490,171.473245,188.495763,1603.555721,-3.998384,0
0.073958,164.219174,23.766030,-168.224811,-0.204822,-4.997776,-0.315012,5.192397,5.260128,0.261428,-5.025134,-0.000585,0.463829,-0.054364,103.782896,188.495437,1603.126956,-4.069303,0
0.074999,99.226646,80.014719,-197.302463,-0.781632,-3.226188,-2.585042,5.591654,3.558256,2.443708,-5.341782,-0.015197,0.426594,-0.024490,21.887188,188.570770,1602.811492,-2.979941,0
0.076041,26.986260,137.048667,-191.602652,-0.702462,-1.333889,-4.243910,5.125233,1.595405,4.265072,-5.028692,-0.015197,0.449327,-0.043161,-61.037730,188.495358,1602.395381,-2.165641,0
0.077083,-36.679195,181.470151,-142.766478,0.213648,0.899236,-5.327333,3.908806,-0.610045,5.297459,-3.840371,-0.059033,0.453704,-0.013287,-130.300169,188.495244,1602.102634,-1.550562,0
0.078124,-89.002150,204.822539,-69.136743,1.593468,3.146562,-5.505919,1.830433,-2.874307,5.561851,-1.876439,-0.084604,0.444950,-0.009553,-180.708838,188.495410,1601.527689,-0.233025,0
0.079166,-150.705352,171.418839,-3.385795,2.837568,4.779690,-4.835229,-0.303911,-4.491637,4.940740,0.176438,-0.186888,0.438483,-0.039427,-211.686927,188.570778,1600.660150,-0.029207,0
0.080208,-189.553416,122.346207,60.149243,4.104288,5.574952,-3.493847,-2.266611,-5.366466,3.669142,2.119022,-0.183235,0.442468,-0.020755,-205.873587,188.495369,1599.237502,0.258972,0
0.081249,-190.767064,44.074030,117.467425,5.167428,5.660159,-1.453995,-4.203192,-5.428953,1.642139,3.976218,-0.241683,0.450829,0.001650,-165.033178,188.495439,1598.467506,1.492935,0
0.082291,-164.588573,-23.168282,168.667235,6.128778,5.124067,0.466799,-5.307678,-5.002566,-0.275749,5.143192,-0.245336,0.463764,-0.035692,-100.622729,188.512639,1598.496109,2.358317,0
0.083333,-100.004375,-79.803560,196.932387,6.671658,3.377330,2.709049,-5.662158,-3.238206,-2.449636,5.420704,-0.296478,0.467422,-0.009553,-16.849561,188.508775,1597.131582,2.603820,0
0.084374,-27.162837,-137.054964,191.651137,6.524628,1.470831,4.423477,-5.214393,-1.290059,-4.262607,5.143192,-0.219765,0.460236,-0.076769,67.048017,188.493550,1596.525058,2.712710,0
0.085416,37.410018,-181.174425,142.642614,5.676378,-0.737442,5.463246,-4.057669,0.845552,-5.286600,4.004681,-0.216112,0.450438,-0.050629,135.722335,188.496919,1595.635174,4.178283,0
0.086458,89.052423,-204.647622,69.172917,4.262628,-2.991869,5.590241,-1.975564,3.201708,-5.563582,2.001613,-0.179582,0.452071,-0.043161,186.753054,188.492282,1594.716683,4.716899,0
0.087499,150.642201,-171.195599,3.926705,3.041148,-4.600145,4.994953,0.199824,4.730820,-4.967652,-0.054822,-0.143052,0.442337,-0.039427,215.209014,188.567921,1594.355085,5.367581,0
0.088541,189.252073,-122.280018,-60.186932,1.808358,-5.413159,3.669446,2.125211,5.715921,-3.691857,-2.004522,-0.080951,0.445342,-0.050629,211.793394,188.496223,1594.086375,5.999956,0
0.089583,190.386323,-42.799751,-117.788258,0.733908,-5.530318,1.625626,4.102837,5.701218,-1.664854,-3.847487,-0.037115,0.454488,-0.031958,169.969015,188.494576,1593.342791,6.751794,0
0.090624,164.015009,24.382156,-168.544887,-0.238752,-4.994226,-0.295169,5.188666,5.238073,0.223657,-5.003787,-0.044421,0.461412,-0.039427,104.257916,188.561890,1592.906301,7.460285,0
0.091666,99.816456,80.328823,-196.982387,-0.815562,-3.219087,-2.569167,5.550609,3.536201,2.372364,-5.299088,-0.015197,0.466638,-0.039427,21.344308,188.493532,1591.919304,7.954551,0
0.092708,27.258480,137.543984,-191.245645,-0.668532,-1.316138,-4.243910,5.102844,1.588054,4.239892,-5.028692,-0.015197,0.455206,-0.065566,-62.191350,188.500940,1591.711874,8.127988,0
0.093749,-37.745390,182.025873,-141.744697,0.270198,0.913437,-5.303522,3.886418,-0.599018,5.293262,-3.840371,-0.077298,0.447041,-0.005818,-131.012699,188.498412,1591.632720,8.960224,0
0.094791,-89.410480,204.774215,-68.188826,1.661328,3.157213,-5.458296,1.822970,-2.896362,5.603817,-1.883555,-0.113828,0.445277,-0.058098,-183.117868,188.499717,1592.247793,9.294782,0
0.095833,-151.646780,171.237626,-3.632008,2.826258,4.815193,-4.870946,-0.322567,-4.506340,4.999494,0.183554,-0.154011,0.446191,-0.002084,-211.630377,188.574619,1593.220454,9.588858,0
0.096874,-189.281196,122.793200,60.567803,4.047738,5.567852,-3.454162,-2.292731,-5.439981,3.660749,2.111907,-0.168623,0.445865,-0.065566,-208.350477,188.499806,1594.037963,9.405605,0
0.097916,-190.857804,42.938425,118.070644,5.178738,5.685011,-1.418278,-4.266625,-5.425278,1.646336,3.983334,-0.227071,0.443317,-0.028224,-164.727808,188.498622,1594.119609,9.896449,0
0.098958,-163.828625,-25.185793,168.310228,6.083538,5.106315,0.474736,-5.307678,-4.962133,-0.288339,5.125403,-0.234377,0.443970,-0.017021,-99.921509,188.498324,1593.242744,10.371511,0
0.099999,-99.199058,-80.178068,197.437122,6.716898,3.387981,2.728892,-5.703203,-3.278640,-2.437046,5.388684,-0.252642,0.464025,-0.031958,-18.308551,188.513808,1593.113149,11.263315,0
0.101041,-27.820702,-137.417391,190.974054,6.547248,1.435328,4.403634,-5.225588,-1.312113,-4.266804,5.136076,-0.197847,0.463111,-0.035692,68.405217,188.440179,1593.066249,11.400549,0
0.102083,37.500758,-182.237545,141.670076,5.665068,-0.790697,5.427529,-4.009161,0.911716,-5.299190,3.961987,-0.241683,0.451483,-0.024490,135.858055,188.504002,1593.102251,10.638185,0
0.103124,89.347328,-204.357680,67.449432,4.251318,-3.006070,5.574367,-1.886011,3.190681,-5.530009,2.008729,-0.190541,0.443644,-0.028224,188.257284,188.505419,1592.402194,11.426640,0
0.104166,151.300066,-171.074789,3.360417,3.052458,-4.607246,4.979079,0.192362,4.752874,-4.992832,-0.061938,-0.121134,0.443056,-0.035692,216.611454,188.512268,1593.032462,11.691338,0
0.105208,188.741660,-122.606203,-60.679356,1.785738,-5.402508,3.605949,2.151331,5.697542,-3.721234,-1.983175,-0.091910,0.449392,-0.031958,211.951734,188.438743,1592.920327,12.268998,0
0.106249,190.783310,-42.993045,-118.292993,0.722598,-5.519667,1.593877,4.076718,5.686515,-1.606101,-3.847487,-0.055380,0.452528,-0.039427,170.082115,188.511855,1592.831317,11.600405,0
0.107291,163.391171,26.025159,-168.175569,-0.227442,-4.923221,-0.287232,5.132695,5.186613,0.274018,-5.028692,-0.051727,0.470950,-0.046895,102.346526,188.507428,1592.381789,11.180708,0
0.108339,97.377819,81.271133,-197.930304,-0.792942,-3.258140,-2.600916,5.543146,3.495768,2.443708,-5.299088,0.024986,0.462000,-0.028224,20.835358,188.511218,1592.461021,11.027674,0
0.109389,26.804780,139.162825,-189.275948,-0.645912,-1.262884,-4.243910,5.046874,1.532917,4.252482,-4.985998,0.003068,0.467879,-0.050629,-63.661650,188.436901,1591.737831,10.916495,0
0.110419,-37.677335,182.871536,-141.141478,0.247578,0.916987,-5.315427,3.905075,-0.591666,5.259689,-3.790561,-0.066339,0.454096,-0.065566,-132.234179,188.513111,1591.030527,10.933869,0
