1-Time,2-VGERA,3-VGERB,4-VGERC,5-VN,6-IGERAN,7-IGERBN,8-IGERCN,9-IGERAT,10-IGERBT,11-IGERCT,12-IN,13-IFD,14-IFAULT,15-VFAULT,16-Speed (rad/s),17-FAULT 
0.000000,-119.592873,-60.352563,181.127562,6.490698,3.068456,1.554342,-4.493297,-2.859604,-1.360016,4.416764,-0.223418,0.417840,-0.058098,-25.546951,188.495770,0
0.001042,-45.095330,-117.429757,183.018471,6.547248,1.438878,2.963983,-4.297400,-1.249626,-2.810393,4.222612,-0.230724,0.386092,-0.043161,-12.280321,188.495655,0
0.002083,22.914303,-166.716701,156.439380,6.015678,-0.130345,3.722141,-3.411946,0.341974,-3.636302,3.388902,-0.205153,0.413268,-0.035692,-1.139972,188.495669,0
0.003125,77.301593,-182.285361,90.009381,4.703718,-2.086548,4.205991,-1.797755,2.187201,-4.091559,1.900406,-0.168623,0.395369,-0.043161,6.528208,188.495620,0
0.004167,132.902530,-180.781772,17.693927,3.301278,-3.496009,4.118364,-0.359871,3.734692,-4.115732,0.381454,-0.164970,0.391906,-0.031958,15.180358,188.495656,0
0.005208,167.020772,-134.750631,-44.457891,2.091108,-4.355176,3.276390,1.426709,4.528654,-3.334140,-1.278352,-0.121134,0.400660,-0.035692,22.350898,188.495696,0
0.006250,195.252255,-61.643045,-95.748799,1.050588,-4.649849,1.824840,3.123176,4.936662,-1.835417,-3.056173,-0.062686,0.393670,-0.035692,28.594018,188.495797,0
0.007292,168.937654,1.839202,-154.626980,-0.114342,-3.914942,0.441868,3.695195,4.113294,-0.481732,-3.589138,-0.055380,0.414705,-0.050629,30.754228,188.495769,0
0.008333,119.461667,60.715967,-180.946071,-0.645912,-2.956366,-1.375426,4.439603,3.175978,1.315124,-4.392393,-0.048074,0.408760,-0.028224,28.526158,188.495734,0
0.009375,45.168289,117.923393,-183.120616,-0.713772,-1.358741,-2.838405,4.251542,1.639514,2.785646,-4.179207,-0.033462,0.391906,-0.035692,17.713798,188.495807,0
0.010417,-22.637179,166.547337,-156.825162,-0.216132,0.274387,-3.554655,3.272058,0.007481,3.571267,-3.318849,-0.091910,0.395238,-0.046895,6.030568,188.495685,0
0.011458,-77.285347,182.814515,-89.662436,1.129758,2.234140,-4.023265,1.728390,-1.903909,4.010408,-1.754214,-0.099216,0.393735,-0.061832,-1.750712,188.495674,0
0.012500,-133.215217,180.636087,-18.091527,2.554818,3.625849,-3.950878,0.200394,-3.370533,4.062783,-0.319015,-0.091910,0.393539,-0.065566,-9.984391,188.495667,0
0.013542,-168.172803,134.593107,43.918472,3.764988,4.477916,-3.089854,-1.547007,-4.179198,3.212701,1.420737,-0.128440,0.402881,-0.031958,-17.652571,188.495564,0
0.014583,-195.576284,62.527378,96.060290,4.816818,4.776140,-1.619256,-3.219967,-4.598234,1.750238,3.137647,-0.164970,0.404775,-0.054364,-23.454601,188.495776,0
0.015625,-169.352423,-0.871994,155.210289,5.981748,4.023481,-0.213424,-3.842919,-3.789569,0.408639,3.678226,-0.227071,0.411830,-0.009553,-25.739221,188.495714,0
0.016667,-120.454903,-60.210492,180.572107,6.524628,3.008101,1.561961,-4.477625,-2.822847,-1.396275,4.439605,-0.219765,0.409805,-0.046895,-25.535641,188.495779,0
0.017708,-46.161525,-118.069078,183.089380,6.558558,1.403375,3.024940,-4.266056,-1.282707,-2.858738,4.256874,-0.205153,0.408826,-0.031958,-12.744031,188.495631,0
0.018750,22.165698,-166.337844,156.533926,6.015678,-0.215552,3.756430,-3.361012,0.389759,-3.672561,3.335605,-0.201500,0.402554,-0.046895,-1.682852,188.646480,0
0.019792,77.244880,-183.019397,89.820290,4.703718,-2.097199,4.194561,-1.766411,2.234986,-4.091559,1.774778,-0.197847,0.394650,-0.028224,6.675238,188.495729,0
0.020833,133.378915,-180.201647,18.663018,3.323898,-3.549263,4.087886,-0.297184,3.738367,-4.099617,0.293896,-0.164970,0.397916,-0.005818,15.610138,188.495801,0
0.021875,168.302474,-134.513845,-43.796072,2.068488,-4.365827,3.223052,1.493314,4.543357,-3.281765,-1.354490,-0.135746,0.401509,-0.039427,22.452688,188.495664,0
0.022917,195.014063,-62.554670,-96.126981,1.050588,-4.685352,1.790552,3.142766,4.966068,-1.867647,-3.075207,-0.066339,0.407584,-0.065566,28.944628,188.571024,0
0.023958,169.062422,1.117006,-155.217889,-0.148272,-3.879439,0.377101,3.750046,4.172106,-0.493818,-3.634821,-0.062686,0.415946,-0.058098,31.172698,188.495779,0
0.025000,119.938052,60.644932,-180.721526,-0.679842,-2.927964,-1.367806,4.447439,3.187005,1.339297,-4.380972,-0.033462,0.416403,-0.024490,29.272618,188.495658,0
0.026042,46.075689,118.243054,-183.286071,-0.679842,-1.340990,-2.838405,4.228035,1.621135,2.793703,-4.205855,-0.029809,0.410328,-0.043161,17.306638,188.495689,0
0.027083,-22.421672,166.665730,-156.470617,-0.204822,0.302789,-3.588943,3.252468,-0.021925,3.635728,-3.269359,-0.059033,0.404971,-0.020755,5.589478,188.721876,0
0.028125,-77.228634,183.051301,-89.201526,1.118448,2.223490,-4.068983,1.689211,-1.889206,4.078898,-1.697111,-0.132093,0.395107,-0.024490,-1.230452,188.495680,0
0.029167,-133.714287,180.458498,-17.878800,2.532198,3.629400,-3.935639,0.200394,-3.399939,4.078898,-0.258104,-0.099216,0.392168,-0.024490,-9.859981,188.495689,0
0.030208,-168.342941,134.403678,44.403018,3.764988,4.481467,-3.044136,-1.609694,-4.223307,3.196586,1.435964,-0.164970,0.400987,-0.050629,-17.686501,188.495557,0
0.031250,-195.667024,61.935414,96.426654,4.794198,4.793891,-1.626875,-3.227802,-4.583531,1.774410,3.133840,-0.234377,0.405298,-0.035692,-22.877791,188.646471,0
0.032292,-169.284368,-1.665226,155.021199,5.959128,4.019930,-0.190565,-3.842919,-3.863084,0.408639,3.708681,-0.238030,0.416207,-0.054364,-26.033281,188.571158,0
0.033333,-119.660928,-60.837974,180.962107,6.502008,3.015202,1.592440,-4.508968,-2.870631,-1.420448,4.447219,-0.216112,0.416273,-0.054364,-25.513021,188.495709,0
0.034375,-45.140700,-118.388739,183.172107,6.535938,1.456629,3.002081,-4.309154,-1.253301,-2.854710,4.256874,-0.227071,0.414247,-0.046895,-12.110671,188.495667,0
0.035417,23.333975,-166.598308,156.333017,6.026988,-0.169398,3.729761,-3.345341,0.386083,-3.704792,3.347026,-0.212459,0.403012,-0.054364,-1.026872,188.646440,0
0.036458,77.902745,-183.161468,88.650290,4.692408,-2.146903,4.213610,-1.750740,2.264392,-4.095588,1.809040,-0.157664,0.393539,-0.039427,6.573448,188.571103,0
0.037500,133.696505,-180.201647,17.126654,3.301278,-3.520861,4.145033,-0.277595,3.760422,-4.147963,0.312930,-0.139399,0.393343,-0.046895,15.395248,188.495788,0
0.038542,168.189049,-133.637738,-44.942436,2.045868,-4.394229,3.238291,1.520739,4.572763,-3.257592,-1.377332,-0.084604,0.400921,-0.065566,22.463998,188.495658,0
0.039583,195.252255,-60.695902,-96.505163,1.005348,-4.667600,1.805791,3.123176,4.947689,-1.831388,-3.075207,-0.044421,0.398896,-0.065566,28.571398,188.646598,0
0.040625,168.506639,3.034970,-155.276980,-0.182202,-3.911391,0.358052,3.808815,4.153727,-0.441443,-3.676697,-0.040768,0.404841,-0.035692,30.912568,188.571027,0
0.041667,118.815144,61.899896,-180.709707,-0.668532,-2.963467,-1.398285,4.470947,3.234790,1.323182,-4.407621,-0.037115,0.404057,-0.076769,28.401748,188.495712,0
0.042708,43.920614,118.988929,-183.321526,-0.725082,-1.323238,-2.834595,4.243707,1.672596,2.862193,-4.186821,-0.029809,0.375967,-0.073035,17.385808,188.495712,0
0.043750,-24.372582,166.357909,-156.423344,-0.182202,0.309890,-3.592753,3.240714,-0.055007,3.627670,-3.269359,-0.066339,0.417383,-0.013287,5.566858,188.646433,0
0.044792,-78.079322,184.010283,-87.617890,1.174998,2.276744,-4.072793,1.681375,-1.925964,4.058754,-1.670463,-0.080951,0.390469,-0.061832,-1.920362,188.571118,0
0.045833,-133.634889,180.115158,-16.377891,2.600058,3.657802,-3.931829,0.196476,-3.436697,4.026524,-0.254297,-0.121134,0.388705,-0.020755,-10.267141,188.495689,0
0.046875,-169.159601,133.018482,44.946654,3.787608,4.570223,-3.021277,-1.601858,-4.219632,3.148240,1.462613,-0.157664,0.394389,-0.035692,-17.652571,188.495776,0
0.047917,-195.485544,60.230557,96.745745,4.850748,4.811642,-1.604016,-3.223885,-4.616613,1.718007,3.149068,-0.245336,0.397394,-0.087972,-23.443291,188.571056,0
0.048958,-168.717243,-3.239851,155.623926,5.981748,4.041232,-0.152467,-3.862509,-3.815299,0.360293,3.769592,-0.194194,0.415619,-0.043161,-25.829701,188.571145,0
0.050000,-118.844268,-61.891670,180.276653,6.468078,2.993900,1.569581,-4.532476,-2.826522,-1.464765,4.496709,-0.241683,0.401705,-0.020755,-25.524331,188.495801,0
0.051042,-43.734230,-119.087257,183.408471,6.569868,1.438878,3.021130,-4.297400,-1.220220,-2.919171,4.287329,-0.227071,0.387007,-0.013287,-12.472591,188.495600,0
0.052083,24.717760,-166.053701,156.002108,6.015678,-0.204901,3.779289,-3.306161,0.386083,-3.648388,3.369868,-0.186888,0.407715,-0.024490,-1.354862,188.646467,0
0.053125,78.174965,-184.155968,87.622108,4.681098,-2.182406,4.263138,-1.786001,2.304825,-4.127818,1.816654,-0.179582,0.400856,-0.017021,6.844888,188.571096,0
0.054167,133.707848,-179.704397,16.843018,3.301278,-3.499559,4.091696,-0.297184,3.786152,-4.103645,0.324351,-0.150358,0.394846,-0.054364,15.870268,188.495703,0
0.055208,169.130477,-132.962899,-44.824254,2.102418,-4.401330,3.249721,1.489396,4.554384,-3.225362,-1.354490,-0.110175,0.401313,-0.013287,22.565788,188.495622,0
0.056250,194.889295,-60.340724,-96.847890,1.027968,-4.635648,1.801981,3.138848,4.936662,-1.811244,-3.101855,-0.066339,0.403991,-0.039427,29.046418,188.646451,0
0.057292,168.325159,3.070488,-155.832435,-0.170892,-3.882989,0.339002,3.785308,4.124321,-0.437415,-3.669083,-0.044421,0.414247,-0.024490,31.229248,188.571123,0
0.058333,118.713062,61.982771,-180.437889,-0.668532,-2.888911,-1.386855,4.443521,3.183329,1.355413,-4.396200,-0.066339,0.390730,-0.069301,29.204758,188.495750,0
0.059375,44.113436,119.379625,-183.297889,-0.713772,-1.351641,-2.826975,4.267214,1.624811,2.797732,-4.194435,-0.051727,0.400268,-0.065566,17.227468,188.495779,0
0.060417,-24.066334,166.452623,-156.033344,-0.170892,0.309890,-3.535605,3.244632,-0.003546,3.615584,-3.242711,-0.051727,0.397524,-0.009553,5.600788,188.721849,0
0.061458,-78.181404,183.749819,-88.031526,1.220238,2.273193,-4.027075,1.689211,-1.903909,4.042639,-1.750407,-0.091910,0.394454,-0.046895,-1.128662,188.571056,0
0.062500,-134.281412,179.795498,-17.406073,2.532198,3.608098,-3.920399,0.200394,-3.396264,4.022495,-0.296173,-0.124787,0.392690,-0.031958,-10.074871,188.495635,0
0.063542,-169.341081,133.468375,44.710290,3.764988,4.474366,-3.028897,-1.543089,-4.190226,3.200615,1.413123,-0.194194,0.405559,-0.069301,-17.878771,188.495705,0
0.064583,-195.417489,61.390806,97.277563,4.805508,4.786790,-1.577347,-3.192541,-4.572504,1.734122,3.122419,-0.194194,0.405559,-0.024490,-22.923031,188.646529,0
0.065625,-168.683216,-2.055923,155.978471,5.993058,3.970226,-0.209615,-3.846837,-3.793245,0.372379,3.704874,-0.175929,0.416926,-0.054364,-26.089831,188.571169,0
0.066667,-119.468106,-61.429938,180.548471,6.490698,2.993900,1.596250,-4.450199,-2.830198,-1.424477,4.443412,-0.227071,0.409087,-0.058098,-25.456471,188.495627,0
0.067708,-45.038618,-119.418757,182.900289,6.558558,1.428227,3.059229,-4.309154,-1.198165,-2.846652,4.211192,-0.234377,0.408368,-0.043161,-12.144601,188.498492,0
0.068750,23.492770,-166.598308,155.860289,6.004368,-0.183599,3.752620,-3.251310,0.397111,-3.676590,3.305150,-0.183235,0.400595,-0.035692,-1.151282,188.646478,0
0.069792,78.401815,-183.457450,88.295745,4.681098,-2.139802,4.194561,-1.719396,2.290122,-4.107674,1.770971,-0.172276,0.394650,-0.035692,6.516898,188.571156,0
0.070833,134.422425,-179.467611,17.516654,3.278658,-3.520861,4.076456,-0.258005,3.767773,-4.111703,0.339578,-0.121134,0.395303,0.005384,15.598828,188.495593,0
0.071875,169.164504,-133.258881,-44.800618,2.057178,-4.383578,3.234481,1.571672,4.543357,-3.213275,-1.384945,-0.106522,0.401378,-0.035692,22.599718,188.571141,0
0.072917,195.014063,-60.849813,-97.426981,1.016658,-4.649849,1.801981,3.103586,4.914607,-1.827359,-3.037138,-0.062686,0.405755,-0.020755,28.627948,188.646520,0
0.073958,168.177707,2.786345,-156.210617,-0.103032,-3.836835,0.323763,3.746128,4.131673,-0.421299,-3.615786,-0.040768,0.414378,-0.050629,30.923878,188.571205,0
0.075000,119.110050,62.184039,-180.426071,-0.645912,-2.885361,-1.375426,4.361245,3.179653,1.311096,-4.346710,-0.037115,0.413986,-0.028224,28.299958,188.495711,0
0.076042,44.260889,120.101822,-183.096980,-0.713772,-1.280635,-2.842214,4.228035,1.602757,2.753415,-4.179207,-0.040768,0.409544,-0.050629,17.351878,188.571035,0
0.077083,-24.497349,166.428945,-155.867889,-0.182202,0.285038,-3.539415,3.166273,-0.025601,3.587382,-3.227483,-0.066339,0.406866,-0.035692,5.566858,188.646574,0
0.078125,-78.782557,184.128676,-87.227890,1.163688,2.283844,-4.034695,1.618688,-1.925964,4.042639,-1.716145,-0.088257,0.393866,-0.009553,-1.920362,188.571073,0
0.079167,-134.610344,179.416640,-16.236073,2.532198,3.608098,-3.889921,0.180804,-3.366858,4.010408,-0.277139,-0.113828,0.390992,-0.058098,-10.515961,188.495712,0
0.080208,-169.987603,132.592268,45.218472,3.787608,4.506318,-3.066995,-1.625366,-4.215956,3.176442,1.428351,-0.164970,0.399353,-0.024490,-17.856151,188.495725,0
0.081250,-195.224667,60.159521,97.561199,4.828128,4.751288,-1.577347,-3.180787,-4.543098,1.734122,3.145261,-0.190541,0.403012,-0.020755,-23.465911,188.571114,0
0.082292,-168.320256,-3.559512,156.368471,6.004368,3.998629,-0.156277,-3.850755,-3.774866,0.352235,3.716295,-0.208806,0.411504,-0.017021,-25.852321,188.571071,0
0.083333,-118.900981,-62.448117,180.004835,6.456768,2.933545,1.588630,-4.477625,-2.778738,-1.472823,4.416764,-0.230724,0.408499,-0.054364,-25.490401,188.495674,0
0.084375,-43.348585,-120.069918,183.278471,6.524628,1.367873,3.047799,-4.324825,-1.245950,-2.862767,4.226419,-0.241683,0.409348,-0.050629,-12.336871,188.495615,0
0.085417,25.250858,-166.065540,155.659380,6.038298,-0.240404,3.714521,-3.251310,0.415489,-3.660475,3.267081,-0.212459,0.390077,-0.031958,-1.106042,188.646473,0
0.086458,78.957598,-184.416432,86.440290,4.647168,-2.189506,4.213610,-1.703724,2.290122,-4.091559,1.759551,-0.183235,0.389359,-0.039427,7.048468,188.571031,0
0.087500,134.172890,-179.005879,15.873927,3.244728,-3.524411,4.065027,-0.238415,3.775125,-4.071415,0.297703,-0.132093,0.390861,-0.013287,16.017298,188.495604,0
0.088542,169.708944,-132.205185,-45.604254,2.045868,-4.411980,3.226862,1.536411,4.587466,-3.225362,-1.373525,-0.110175,0.397394,-0.050629,22.520548,188.495656,0
0.089583,194.719158,-59.085760,-97.876072,1.005348,-4.610796,1.798171,3.087915,4.947689,-1.819302,-3.040945,-0.051727,0.384655,-0.058098,29.046418,188.571165,0
0.090625,168.018912,4.550398,-156.269708,-0.136962,-3.854587,0.396150,3.769636,4.087564,-0.457559,-3.619593,-0.044421,0.419212,-0.054364,31.274488,188.571089,0
0.091667,117.919087,63.332449,-180.236980,-0.623292,-2.867609,-1.394475,4.416096,3.223762,1.399730,-4.365745,-0.051727,0.378515,-0.031958,29.159518,188.495740,0
0.092708,42.207896,120.362286,-183.463344,-0.691152,-1.305487,-2.807926,4.231953,1.599081,2.785646,-4.163979,-0.022503,0.397524,-0.028224,16.989958,188.495617,0
0.093750,-26.039929,166.381587,-155.525162,-0.125652,0.288588,-3.508937,3.213289,-0.025601,3.555151,-3.257938,-0.051727,0.392037,-0.031958,5.238868,188.646455,0
0.094792,-79.361024,184.400980,-86.046072,1.220238,2.287395,-4.027075,1.708800,-1.936991,4.006380,-1.697111,-0.066339,0.390992,-0.050629,-1.377482,188.571118,0
0.095833,-134.644372,179.262730,-15.444254,2.566128,3.608098,-3.893731,0.235655,-3.396264,4.006380,-0.250490,-0.106522,0.392429,-0.031958,-10.255831,188.495571,0
0.096875,-169.715383,132.130535,46.069381,3.798918,4.520520,-3.066995,-1.586186,-4.223307,3.184499,1.447385,-0.154011,0.401313,-0.043161,-17.890081,188.495693,0
0.097917,-195.213324,59.165021,97.986654,4.839438,4.790341,-1.645925,-3.188623,-4.590882,1.782468,3.099578,-0.186888,0.409217,-0.061832,-22.945651,188.571207,0
0.098958,-168.025351,-4.435619,156.285744,6.004368,4.034131,-0.217234,-3.850755,-3.800596,0.388495,3.678226,-0.201500,0.410589,-0.050629,-26.101141,188.571085,0
0.100000,-117.925526,-63.111117,180.264835,6.468078,3.001000,1.569581,-4.505050,-2.826522,-1.424477,4.443412,-0.223418,0.391645,-0.005818,-25.365991,188.495731,0
0.101042,-42.599980,-120.377739,183.148471,6.569868,1.477931,3.028750,-4.352251,-1.260653,-2.870825,4.272102,-0.230724,0.395695,-0.024490,-11.918401,188.495678,0
0.102083,25.783955,-166.385201,155.423017,5.981748,-0.148096,3.729761,-3.325751,0.360353,-3.692705,3.381288,-0.197847,0.396610,-0.017021,-0.902462,188.571180,0
0.103125,79.638148,-184.238843,86.416654,4.658478,-2.168205,4.255519,-1.797755,2.301149,-4.143934,1.835688,-0.183235,0.401248,-0.046895,6.697858,188.571038,0
0.104167,134.705988,-178.840129,16.133927,3.289968,-3.506660,4.122174,-0.285431,3.760422,-4.111703,0.358613,-0.124787,0.399353,-0.009553,15.836338,188.495656,0
0.105208,169.879082,-132.015756,-45.663345,2.057178,-4.433282,3.291629,1.516821,4.569087,-3.285794,-1.354490,-0.091910,0.407062,-0.031958,22.735438,188.495731,0
0.106250,194.696473,-59.464617,-98.289708,1.016658,-4.664050,1.828650,3.099668,4.958716,-1.855561,-3.040945,-0.088257,0.403142,-0.069301,28.650568,188.571122,0
0.107292,167.610582,3.970273,-157.026071,-0.193512,-3.939793,0.384721,3.793144,4.146376,-0.425328,-3.634821,-0.040768,0.420519,-0.050629,31.014358,188.571140,0
0.108333,118.225334,63.225896,-180.130616,-0.645912,-2.874710,-1.394475,4.420014,3.161275,1.379586,-4.396200,-0.040768,0.405037,-0.024490,28.186858,188.495745,0
0.109375,43.024556,121.037125,-183.061526,-0.725082,-1.340990,-2.876503,4.271132,1.613784,2.793703,-4.194435,-0.022503,0.411047,-0.073035,17.306638,188.495651,0
0.110417,-25.586229,166.275034,-155.383344,-0.170892,0.306339,-3.543225,3.240714,-0.014573,3.579324,-3.303621,-0.040768,0.399941,-0.020755,5.702578,188.571080,0
0.111458,-79.576532,184.767997,-86.211526,1.186308,2.308696,-4.072793,1.681375,-1.907585,4.054726,-1.792283,-0.095563,0.399615,-0.039427,-1.863812,188.495707,0
0.112502,-135.336264,178.505016,-16.070618,2.577438,3.632950,-3.939449,0.196476,-3.385236,4.062783,-0.311401,-0.091910,0.399876,-0.065566,-10.843951,188.495725,0
0.113542,-171.133196,131.952946,45.253927,3.764988,4.541821,-3.044136,-1.613612,-4.197577,3.132125,1.439771,-0.168623,0.407388,-0.054364,-18.048421,188.495694,0
0.114583,-194.929762,60.171360,98.459381,4.850748,4.783240,-1.604016,-3.188623,-4.616613,1.709949,3.103385,-0.175929,0.407519,-0.005818,-23.477221,188.571194,0
0.115625,-168.070721,-3.334566,157.432108,6.004368,3.995078,-0.167706,-3.866426,-3.826326,0.396552,3.723909,-0.194194,0.419865,-0.031958,-25.863631,188.495673,0
0.116667,-118.980378,-62.909849,179.756653,6.445458,2.993900,1.600060,-4.461953,-2.782413,-1.440592,4.431991,-0.227071,0.415162,-0.046895,-25.445161,188.495776,0
0.117708,-43.575435,-121.218328,183.266653,6.535938,1.389174,3.059229,-4.293482,-1.231247,-2.886940,4.214998,-0.219765,0.409217,-0.046895,-12.257701,188.495801,0
0.118750,25.216830,-165.994505,155.233926,6.004368,-0.215552,3.687852,-3.239556,0.430192,-3.648388,3.312764,-0.190541,0.407127,-0.050629,-1.253072,188.570993,0
0.119792,79.502038,-185.067593,86.026654,4.613238,-2.157554,4.221230,-1.715478,2.323204,-4.111703,1.809040,-0.168623,0.395891,-0.009553,6.991918,188.495747,0
0.120833,135.102975,-178.200808,16.145745,3.301278,-3.510210,4.045977,-0.242333,3.793504,-4.075444,0.335772,-0.128440,0.398112,-0.017021,16.175638,188.495721,0
0.121875,171.001989,-131.767131,-45.426981,2.023248,-4.429732,3.177334,1.622606,4.605844,-3.205217,-1.400173,-0.051727,0.404057,-0.058098,22.656268,188.495734,0
0.122917,194.435595,-59.452777,-98.691526,0.982728,-4.596595,1.790552,3.099668,4.892553,-1.819302,-3.014297,-0.080951,0.409087,-0.028224,29.057728,188.495705,0
0.123958,167.803404,4.325452,-157.427889,-0.204822,-3.911391,0.358052,3.797062,4.120645,-0.425328,-3.657662,-0.051727,0.416926,-0.043161,31.319728,188.495642,0
0.125000,118.225334,63.699467,-179.988798,-0.679842,-2.849858,-1.424954,4.357327,3.128193,1.367499,-4.369552,-0.055380,0.415619,-0.061832,29.091658,188.495671,0
0.126042,42.695624,121.321268,-183.427889,-0.713772,-1.333889,-2.880313,4.239789,1.551296,2.797732,-4.179207,-0.029809,0.415227,-0.017021,16.922098,188.495758,0
0.127083,-26.119327,166.357909,-155.135162,-0.193512,0.324091,-3.581324,3.193699,-0.025601,3.603497,-3.261745,-0.048074,0.405167,-0.043161,5.171008,188.571145,0
