1-Time,2-VGERA,3-VGERB,4-VGERC,5-VN,6-IGERAN,7-IGERBN,8-IGERCN,9-IGERAT,10-IGERBT,11-IGERCT,12-IN,13-IFD,14-IFAULT,15-VFAULT,16-Speed (rad/s),17-Active Power,18-Reactive Power,19-FAULT 
0.000000,122.376690,57.350943,-188.032576,-0.657222,-2.963467,-1.279378,4.117763,3.216411,1.243454,-3.950664,-0.040768,0.416469,-0.043161,117.524546,188.717458,1169.420141,11.244795,0
0.001042,50.590004,113.333853,-189.596023,-0.679842,-1.543356,-2.692194,3.949851,1.804923,2.699706,-3.822582,-0.069992,0.403208,-0.058098,50.331837,188.489287,1168.167489,11.539021,0
0.002083,-14.470579,167.130118,-161.700190,-0.227442,-0.006085,-3.763711,3.352832,0.224350,3.727896,-3.292462,-0.055380,0.404057,-0.031958,-13.547041,188.571038,1167.060246,11.862149,0
0.003125,-73.168019,181.917145,-101.476705,0.926178,1.751303,-4.065324,1.901329,-1.437089,4.021664,-1.947596,-0.084604,0.395891,-0.069301,-66.262950,188.495694,1165.143245,13.298863,0
0.004167,-130.152741,188.211296,-23.378220,2.430408,3.135911,-3.958172,0.472214,-2.837550,4.030058,-0.495995,-0.117481,0.388509,-0.054364,-118.628249,188.722009,1162.840509,14.767603,0
0.005208,-163.465665,145.589866,43.726894,3.708438,3.845967,-2.969994,-1.087498,-3.605781,3.144555,0.966280,-0.161317,0.390665,-0.073035,-150.273628,188.495665,1160.497809,15.938005,0
0.006250,-192.060109,68.501618,95.443750,4.715028,4.403360,-1.719891,-2.736764,-4.171847,1.814204,2.613563,-0.208806,0.386419,-0.054364,-176.535448,188.571089,1158.278537,16.720322,0
0.007292,-169.216313,3.470112,150.829167,5.846028,3.920523,-0.394384,-3.427067,-3.727081,0.559393,3.303785,-0.197847,0.379495,-0.046895,-154.492258,188.495678,1156.875691,18.768894,0
0.008333,-123.381269,-56.668629,187.945645,6.490698,3.114609,1.407354,-4.165878,-2.866956,-1.220005,4.026028,-0.216112,0.395499,-0.043161,-113.018489,188.721869,1154.852959,20.015581,0
0.009375,-51.708008,-112.832751,189.632198,6.502008,1.673196,2.792389,-4.001698,-1.532658,-2.634291,3.926409,-0.216112,0.401966,-0.039427,-45.780541,188.495653,1152.866819,21.562667,0
0.010417,13.817617,-166.991444,161.564016,5.925198,0.139476,3.812315,-3.434530,0.062617,-3.696054,3.360711,-0.212459,0.403600,-0.065566,17.951308,188.571145,1150.410205,22.172439,0
0.011458,72.809962,-181.730147,102.165341,4.873368,-1.578858,4.133771,-2.038998,1.757138,-4.061166,2.054981,-0.183235,0.396348,-0.031958,71.277957,188.495756,1148.840317,23.290953,0
0.012500,129.499780,-187.988055,23.635985,3.369138,-2.991869,4.002807,-0.662122,3.216411,-4.006609,0.646074,-0.139399,0.387595,-0.054364,123.134306,188.721951,1147.545571,23.851009,0
0.013542,162.937471,-145.704891,-43.666099,2.091108,-3.659321,3.141625,0.927441,3.918479,-3.158877,-0.812643,-0.135746,0.392168,-0.013287,154.587415,188.495712,1145.910391,24.522641,0
0.014583,191.361778,-68.338782,-95.579925,1.095828,-4.280620,1.907395,2.580438,4.462490,-1.878886,-2.413674,-0.059033,0.399811,-0.050629,181.437354,188.571152,1143.441898,25.699027,0
0.015625,169.175847,-3.802593,-150.731440,0.032688,-3.808433,0.613637,3.259548,4.087564,-0.649255,-3.139475,-0.069992,0.392168,-0.050629,159.201895,188.495705,1142.833741,26.450713,0
0.016667,123.522282,56.771060,-187.527841,-0.702462,-2.977668,-1.211912,4.054329,3.227438,1.146930,-3.872392,-0.015197,0.404841,-0.054364,118.282316,188.721949,1141.698089,27.397351,0
0.017708,52.064529,112.959345,-189.817614,-0.747702,-1.571758,-2.632665,3.920000,1.826977,2.594789,-3.822582,-0.077298,0.407846,-0.084238,50.512797,188.495756,1141.123188,28.097625,0
0.018750,-13.937481,166.973066,-161.490910,-0.193512,-0.009635,-3.660528,3.345369,0.316244,3.669142,-3.281789,-0.051727,0.402554,-0.054364,-13.660141,188.568560,1140.280687,29.237937,0
0.019792,-73.145334,182.122520,-101.759849,0.960108,1.719350,-4.041512,1.919986,-1.381953,4.055238,-1.951154,-0.091910,0.395238,-0.046895,-66.308190,188.495655,1140.511480,29.754594,0
0.020833,-129.630986,188.126729,-23.316667,2.430408,3.089757,-3.930392,0.509528,-2.830198,3.958714,-0.531573,-0.121134,0.386550,-0.084238,-118.322879,188.721849,1139.625447,29.874946,0
0.021875,-163.250158,146.061022,43.726894,3.742368,3.806914,-2.997775,-1.035259,-3.605781,3.161342,0.909355,-0.146705,0.389359,-0.061832,-150.092668,188.495794,1139.675512,30.559963,0
0.022917,-191.561039,69.480171,95.579167,4.703718,4.421112,-1.763545,-2.699450,-4.124062,1.877154,2.592216,-0.172276,0.378711,-0.050629,-176.128288,188.570975,1139.321191,31.200256,0
0.023958,-169.658671,4.799011,150.927652,5.732928,3.945375,-0.445975,-3.430799,-3.745460,0.592966,3.218397,-0.227071,0.394062,-0.069301,-154.933348,188.495680,1138.859199,31.856473,0
0.025000,-124.492834,-56.221635,187.564016,6.434148,3.096858,1.343856,-4.180804,-2.958849,-1.199022,4.040260,-0.223418,0.408891,-0.050629,-113.991149,188.721974,1139.732090,32.498763,0
0.026042,-52.207078,-112.844832,189.804546,6.479388,1.683847,2.804295,-4.005430,-1.536334,-2.672061,3.937082,-0.227071,0.406278,-0.054364,-45.192421,188.495658,1140.255140,32.106290,0
0.027083,14.112522,-166.858554,161.514773,6.015678,0.143027,3.812315,-3.475575,0.055266,-3.717037,3.438984,-0.208806,0.405167,-0.061832,18.573358,188.571078,1141.187944,32.671020,0
0.028125,73.138895,-181.802632,102.066856,4.816818,-1.582409,4.125833,-2.050192,1.727732,-4.027593,2.044308,-0.139399,0.387922,-0.050629,71.447607,188.495662,1140.625689,32.996689,0
0.029167,129.170847,-188.133026,23.611364,3.380448,-2.984769,4.066305,-0.654659,3.227438,-4.031789,0.674537,-0.157664,0.389816,-0.028224,123.021206,188.721962,1141.031080,33.268512,0
0.030208,162.869416,-145.970671,-43.469129,2.125038,-3.684173,3.141625,0.912516,3.951561,-3.188254,-0.791296,-0.139399,0.394258,-0.028224,154.915405,188.495745,1141.614325,33.514498,0
0.031250,191.010160,-69.860976,-95.579925,1.095828,-4.280620,1.919301,2.580438,4.480869,-1.929246,-2.399443,-0.048074,0.385896,0.001650,181.335564,188.571152,1142.081475,33.840561,0
0.032292,169.493437,-5.107330,-150.780682,0.043998,-3.819084,0.554108,3.237159,4.105942,-0.657648,-3.096781,-0.055380,0.403077,-0.061832,159.405475,188.495709,1141.981605,33.942041,0
0.033333,124.191490,56.481118,-187.330872,-0.634602,-2.984769,-1.172226,4.013284,3.267871,1.121750,-3.872392,-0.077298,0.403991,-0.043161,118.022186,188.721898,1142.255568,34.355818,0
0.034375,51.883049,112.923102,-189.854546,-0.657222,-1.585959,-2.632665,3.897612,1.867411,2.590592,-3.769214,-0.051727,0.407323,-0.050629,50.275287,188.571096,1141.748293,34.730220,0
0.035417,-14.436551,166.900581,-161.466288,-0.193512,-0.041588,-3.656559,3.341638,0.334623,3.656552,-3.231979,-0.102869,0.390143,-0.046895,-13.818481,188.571132,1141.099437,34.799923,0
0.036458,-73.360841,181.772174,-101.981440,0.926178,1.676747,-3.966109,1.905060,-1.407683,3.979697,-1.944039,-0.062686,0.394389,-0.069301,-66.421290,188.495683,1140.263300,34.519987,0
0.037500,-129.347424,188.066325,-23.562879,2.453028,3.050704,-3.962140,0.550573,-2.797116,3.962911,-0.592057,-0.128440,0.390077,-0.017021,-118.311569,188.721844,1140.105455,35.376905,0
0.038542,-163.068678,147.015413,43.382197,3.753678,3.799813,-3.013649,-1.012871,-3.576375,3.127769,0.852429,-0.135746,0.396087,-0.039427,-149.708128,188.571056,1139.488861,35.631987,0
0.039583,-191.095997,70.990284,95.800758,4.681098,4.403360,-1.807199,-2.628554,-4.113035,1.885548,2.538848,-0.183235,0.396022,-0.046895,-176.105668,188.571107,1139.148630,35.932716,0
0.040625,-170.293851,5.692998,150.681440,5.721618,3.920523,-0.473755,-3.337514,-3.749136,0.634933,3.221955,-0.201500,0.398243,-0.035692,-155.148238,188.495712,1139.385177,36.092212,0
0.041667,-124.436121,-56.318282,187.440910,6.422838,3.075556,1.284327,-4.158416,-2.911065,-1.136071,3.972661,-0.216112,0.407127,-0.043161,-113.176829,188.721920,1137.971634,36.559929,0
0.042708,-51.651295,-112.591133,190.100001,6.502008,1.683847,2.689206,-3.968116,-1.536334,-2.579734,3.944198,-0.205153,0.414509,-0.039427,-45.068011,188.571022,1137.319346,37.452283,0
0.043750,14.475482,-166.725664,161.391667,5.970438,0.196281,3.740881,-3.475575,-0.003546,-3.633103,3.353595,-0.197847,0.412549,-0.043161,18.290608,188.571085,1135.528009,38.083229,0
0.044792,73.161580,-181.790551,102.682387,4.884678,-1.536255,4.125833,-2.091237,1.687299,-4.052773,2.115465,-0.168623,0.394585,-0.039427,71.391057,188.495714,1136.160975,39.055481,0
0.045833,129.102792,-187.927651,24.374621,3.436998,-2.903112,4.058368,-0.714361,3.135544,-4.027593,0.745694,-0.154011,0.392886,-0.046895,123.179546,188.721811,1135.465753,40.379129,0
0.046875,162.994184,-147.009629,-42.927462,2.102418,-3.641570,3.201153,0.837889,3.889073,-3.221828,-0.723697,-0.124787,0.400007,-0.050629,154.542175,188.571132,1135.138956,41.371330,0
0.047917,190.556460,-71.044904,-95.653788,1.073208,-4.255768,1.943112,2.558050,4.466166,-1.954426,-2.381654,-0.051727,0.398374,-0.046895,181.222464,188.571176,1135.023714,41.544518,0
0.048958,170.117274,-5.155654,-150.485228,0.089238,-3.836835,0.625543,3.237159,4.146376,-0.678632,-3.096781,-0.066339,0.409152,-0.028224,159.676915,188.495716,1135.549435,41.873803,0
0.050000,123.896585,56.988516,-187.158523,-0.634602,-2.952816,-1.168257,4.061792,3.278899,1.096569,-3.829697,-0.040768,0.408042,-0.050629,117.931706,188.721898,1134.983849,42.509168,0
0.051042,51.100417,112.621079,-190.248485,-0.702462,-1.582409,-2.589010,3.920000,1.929898,2.586395,-3.836813,-0.059033,0.380409,-0.058098,49.822887,188.571160,1135.931389,43.482323,0
0.052083,-14.561319,166.731448,-161.601705,-0.182202,-0.066440,-3.656559,3.364026,0.393435,3.664945,-3.296020,-0.066339,0.356108,-0.028224,-13.547041,188.571103,1136.597123,44.522215,0
0.053125,-73.088621,182.122520,-102.535417,0.937488,1.619942,-4.033575,1.987151,-1.370925,4.093008,-2.004522,-0.088257,0.397132,-0.073035,-66.115920,188.495664,1138.260170,45.231520,0
0.054167,-129.381451,188.042163,-24.658523,2.430408,3.086207,-4.009763,0.569230,-2.826522,4.021664,-0.606288,-0.146705,0.392037,-0.054364,-118.492529,188.721726,1139.233154,45.130423,0
0.055208,-163.624460,147.269112,42.668182,3.697128,3.824665,-3.053335,-0.990483,-3.620484,3.203309,0.855987,-0.154011,0.395434,-0.020755,-150.115288,188.571103,1140.522502,45.345085,0
0.056250,-191.152709,71.159417,95.628409,4.737648,4.435313,-1.759576,-2.733032,-4.175523,1.893941,2.549522,-0.190541,0.392233,-0.058098,-176.083048,188.571091,1141.357171,45.290737,0
0.057292,-170.135056,5.197681,150.558334,5.778168,3.959576,-0.469787,-3.434530,-3.811623,0.597163,3.289554,-0.208806,0.402032,-0.017021,-155.340508,188.495682,1142.552273,44.844608,0
0.058333,-124.209271,-56.741114,187.330114,6.490698,3.089757,1.363699,-4.177073,-2.892686,-1.182235,4.036702,-0.212459,0.384590,-0.017021,-113.697089,188.721860,1143.281509,44.181457,0
0.059375,-51.061485,-112.591133,190.210796,6.513318,1.694498,2.760641,-4.061400,-1.562064,-2.655274,3.965545,-0.212459,0.413464,-0.050629,-44.819191,188.571236,1144.165043,43.982082,0
0.060417,14.452797,-166.689421,161.736364,5.981748,0.174979,3.788504,-3.553934,-0.014573,-3.700250,3.421194,-0.194194,0.410720,-0.043161,17.951308,188.514952,1145.578232,44.146455,0
0.061458,72.832647,-181.718066,103.359470,4.873368,-1.536255,4.177425,-2.072580,1.735084,-4.077953,2.111907,-0.161317,0.396218,-0.013287,71.051757,188.519989,1146.120201,43.374923,0
0.062500,129.170847,-188.024298,25.457955,3.425688,-2.988319,4.121865,-0.662122,3.220087,-4.086346,0.738578,-0.143052,0.398047,-0.065566,123.145616,188.659136,1147.546010,42.606696,0
0.063542,163.164321,-146.888820,-42.545833,2.091108,-3.712576,3.137656,0.908785,3.955237,-3.247008,-0.745044,-0.128440,0.396871,-0.028224,154.847545,188.571437,1148.520335,42.245419,0
0.064583,190.737940,-70.501264,-95.395265,1.073208,-4.305472,1.923269,2.587901,4.480869,-1.920853,-2.438579,-0.073645,0.397851,-0.043161,181.279014,188.571268,1148.831377,41.421420,0
0.065625,169.867739,-4.346233,-150.251326,0.066618,-3.829735,0.605700,3.289399,4.105942,-0.678632,-3.118128,-0.062686,0.401248,-0.043161,159.518575,188.495930,1148.490397,41.288280,0
0.066667,123.669735,57.169730,-187.293940,-0.657222,-3.020271,-1.200006,4.046867,3.231114,1.121750,-3.929317,-0.044421,0.412222,-0.039427,117.750746,188.722130,1149.373251,40.479239,0
0.067708,50.669402,112.645241,-190.137690,-0.759012,-1.628562,-2.620759,3.920000,1.933574,2.636756,-3.886623,-0.051727,0.384002,-0.031958,50.546727,188.573672,1150.276601,40.311151,0
0.068750,-14.209701,166.888500,-161.638637,-0.148272,-0.073540,-3.684340,3.397608,0.316244,3.677535,-3.313810,-0.040768,0.401378,-0.017021,-12.574381,188.499900,1150.670503,39.409351,0
0.069792,-72.793716,181.760093,-103.520265,0.926178,1.644794,-4.049449,1.957300,-1.389304,4.072025,-1.993848,-0.117481,0.407323,-0.028224,-65.912340,188.496322,1150.457033,38.839718,0
0.070843,-130.198111,187.969678,-24.203030,2.407788,3.125260,-3.958172,0.528185,-2.859604,4.021664,-0.556478,-0.117481,0.395695,-0.039427,-118.956239,188.721318,1150.736625,38.287454,0
0.071884,-163.511035,146.012698,43.862311,3.697128,3.860168,-2.985869,-1.057647,-3.613133,3.144555,0.923586,-0.150358,0.395499,-0.024490,-150.352798,188.571547,1150.087218,37.569727,0
0.072920,-191.277477,70.047974,95.603788,4.692408,4.435313,-1.727828,-2.751689,-4.142441,1.893941,2.599332,-0.179582,0.386876,-0.043161,-176.264008,188.496118,1149.930839,37.314036,0
0.073962,-169.987603,4.182885,150.312122,5.766858,3.952475,-0.414226,-3.464381,-3.800596,0.605556,3.285996,-0.205153,0.395826,-0.028224,-154.910728,188.571590,1149.670529,37.624239,0
0.075000,-123.778256,-56.789438,187.416288,6.490698,3.128811,1.331950,-4.203192,-2.914740,-1.194825,4.061607,-0.234377,0.369696,-0.065566,-113.142899,188.722360,1150.115000,37.710777,0
0.076042,-51.231623,-112.264949,190.309281,6.547248,1.733551,2.780484,-4.098714,-1.525307,-2.672061,3.983334,-0.219765,0.387530,-0.073035,-45.984121,188.571513,1150.298015,37.100152,0
0.077085,13.568082,-166.834392,161.822538,5.947818,0.153677,3.824221,-3.520351,-0.029276,-3.700250,3.471004,-0.205153,0.411700,-0.058098,16.888168,188.496053,1150.831749,37.365617,0
0.078128,72.458345,-181.790551,103.568750,4.895988,-1.582409,4.165519,-2.057654,1.742435,-4.086346,2.119022,-0.164970,0.398112,-0.031958,70.870797,188.577253,1151.021556,37.218234,0
0.079167,129.091450,-188.181350,25.433333,3.403068,-3.016721,4.105991,-0.658391,3.183329,-4.069559,0.667421,-0.154011,0.392233,-0.043161,122.828936,188.646590,1150.392952,36.592471,0
0.080209,163.130294,-146.997548,-42.779735,2.102418,-3.698375,3.220996,0.912516,3.991994,-3.209237,-0.773507,-0.164970,0.394323,-0.028224,154.383835,188.571071,1150.550342,35.870488,0
0.081250,191.010160,-69.957623,-95.025947,1.118448,-4.312573,1.939144,2.617752,4.576438,-1.946033,-2.449253,-0.073645,0.394715,-0.058098,181.505214,188.495662,1151.783632,36.131653,0
0.082292,170.094589,-4.056292,-150.152841,0.043998,-3.879439,0.609668,3.293130,4.212539,-0.640861,-3.199958,-0.048074,0.378515,-0.069301,159.801325,188.571075,1153.680227,35.720615,0
0.083334,123.578995,56.976435,-187.503220,-0.691152,-3.052224,-1.215880,4.136420,3.297277,1.125946,-3.947106,-0.044421,0.386354,-0.061832,118.406726,188.646493,1154.426413,36.168233,0
0.084375,51.678884,112.343219,-190.346970,-0.679842,-1.607261,-2.644571,3.990896,1.933574,2.640952,-3.893739,-0.048074,0.399288,-0.039427,51.281877,188.571060,1154.653334,35.827722,0
0.085417,-13.132164,166.936824,-162.094129,-0.204822,-0.038038,-3.751805,3.438653,0.294190,3.744683,-3.356504,-0.048074,0.395956,-0.058098,-12.269011,188.495602,1155.892963,35.164646,0
0.086459,-72.305989,182.291653,-103.237122,0.937488,1.726451,-4.144695,1.979688,-1.437089,4.151762,-1.983175,-0.102869,0.400007,-0.031958,-65.640900,188.571082,1157.031545,34.462155,0
0.087504,-129.642329,188.489156,-24.363068,2.419098,3.178514,-4.005795,0.516991,-2.922092,4.126582,-0.574268,-0.102869,0.392756,-0.043161,-118.402049,188.571080,1158.783476,34.396378,0
0.088542,-163.352240,146.834199,42.877462,3.685818,3.952475,-3.049366,-1.098692,-3.697675,3.241079,0.966280,-0.164970,0.392886,-0.013287,-150.058738,188.571093,1160.702279,33.923980,0
0.089584,-191.889972,69.987569,94.889773,4.703718,4.552472,-1.751639,-2.789003,-4.252713,1.923318,2.684720,-0.190541,0.385504,-0.058098,-176.444968,188.495553,1162.718145,33.326682,0
0.090625,-169.987603,4.448665,150.385985,5.732928,4.034131,-0.418195,-3.565128,-3.837354,0.580376,3.396289,-0.212459,0.409283,-0.028224,-155.329198,188.646442,1164.183278,32.436379,0
0.091667,-124.209271,-56.124988,187.834849,6.411528,3.192716,1.383542,-4.311402,-2.988255,-1.232595,4.200363,-0.230724,0.416534,-0.039427,-114.409619,188.571038,1166.631070,32.095241,0
0.092709,-52.365873,-112.192463,190.223107,6.524628,1.690948,2.883667,-4.139759,-1.528983,-2.751798,4.036702,-0.227071,0.405951,-0.091706,-46.300801,188.518554,1167.962495,31.272210,0
0.093750,12.796792,-166.846473,162.438069,6.004368,0.146577,3.935341,-3.568859,0.077320,-3.826151,3.517256,-0.183235,0.405886,-0.050629,17.216158,188.521108,1169.915529,29.419780,0
0.094792,72.106727,-182.152978,103.187122,4.839438,-1.656965,4.292514,-2.065117,1.815950,-4.203854,2.143927,-0.157664,0.398700,-0.073035,70.565427,188.580115,1171.803308,28.822340,0
0.095834,129.068765,-188.773314,24.793182,3.425688,-3.098378,4.177425,-0.613614,3.297277,-4.136707,0.667421,-0.146705,0.392886,-0.013287,122.693216,188.504086,1173.618194,28.312774,0
0.096875,163.005526,-146.381422,-42.742803,2.102418,-3.822634,3.217028,1.016994,4.061833,-3.221828,-0.816201,-0.091910,0.392952,-0.031958,154.994575,188.581502,1174.413981,27.726232,0
0.097917,191.804135,-69.341497,-94.558144,1.095828,-4.458134,1.919301,2.673723,4.631575,-1.899869,-2.531083,-0.124787,0.401901,-0.031958,181.957614,188.502540,1175.409081,26.524992,0
0.098959,169.720287,-4.539528,-150.374432,0.055308,-3.957545,0.609668,3.449848,4.186809,-0.598895,-3.231979,-0.026156,0.412876,-0.080503,159.710845,188.581497,1175.393821,25.646256,0
0.100000,124.089407,56.034125,-188.044887,-0.657222,-3.066425,-1.255566,4.218510,3.326683,1.188897,-4.032495,-0.040768,0.410001,-0.039427,118.746026,188.508737,1177.007157,24.693971,0
0.101042,52.801792,112.319057,-190.088448,-0.725082,-1.628562,-2.751722,4.091643,1.900492,2.741673,-3.929317,-0.011544,0.406866,-0.050629,51.530697,188.514760,1178.113012,23.273419,0
0.102095,-14.345811,167.323413,-162.217235,-0.193512,0.072021,-3.870863,3.449848,0.250081,3.832813,-3.349388,-0.059033,0.405690,-0.024490,-14.248261,188.513093,1179.094876,22.632446,0
0.103136,-72.975196,182.412462,-100.984281,0.971418,1.829409,-4.148664,1.912523,-1.503252,4.176942,-1.922691,-0.051727,0.396022,-0.054364,-66.308190,188.582196,1179.111738,22.004859,0
0.104183,-130.209454,188.622046,-22.639583,2.453028,3.309875,-4.077229,0.490871,-3.013986,4.134975,-0.481764,-0.164970,0.388575,-0.069301,-118.967549,188.500213,1179.845593,20.800835,0
0.105217,-163.420295,145.710675,43.529924,3.731058,3.987978,-3.081115,-1.158394,-3.749136,3.190719,0.976954,-0.161317,0.394977,-0.028224,-150.601618,188.577496,1179.806712,20.453177,0
0.106261,-192.740659,68.803640,95.271402,4.715028,4.563123,-1.791325,-2.878556,-4.362986,1.877154,2.748761,-0.175929,0.398243,-0.050629,-176.852128,188.495790,1181.388771,19.765651,0
0.107296,-170.101028,5.342652,150.656819,5.755548,4.101587,-0.390415,-3.636024,-3.903517,0.534213,3.449657,-0.197847,0.392886,-0.050629,-155.182168,188.646321,1182.671815,18.993140,0
0.108338,-124.322696,-55.593428,188.536554,6.456768,3.192716,1.486725,-4.356178,-2.995607,-1.270365,4.186131,-0.230724,0.407192,-0.058098,-113.629229,188.495665,1182.863748,18.540514,0
0.109375,-53.012396,-111.890441,190.260038,6.479388,1.747752,2.943195,-4.139759,-1.576767,-2.806355,4.090070,-0.219765,0.407323,-0.046895,-46.232941,188.571102,1184.109306,18.475021,0
0.110417,13.227807,-166.846473,162.511932,6.004368,0.096873,3.982964,-3.557665,0.069969,-3.855528,3.481678,-0.227071,0.407323,-0.031958,17.464978,188.495718,1184.078477,18.279016,0
