1-Time,2-VGERA,3-VGERB,4-VGERC,5-VN,6-IGERAN,7-IGERBN,8-IGERCN,9-IGERAT,10-IGERBT,11-IGERCT,12-IN,13-IFD,14-IFAULT,15-VFAULT,16-Speed (rad/s),17-Active Power,18-Reactive Power,19-FAULT 
0.000000,99.391245,75.988807,-189.719035,-3.423819,-3.333498,-2.481276,5.708982,3.587367,2.690130,-5.761791,-0.097641,0.480598,-0.040740,-113.758902,188.495705,1611.836497,-7.965144,0
0.001042,28.314714,132.047740,-189.135755,-3.333744,-1.498761,-4.292319,5.465416,1.673222,4.346614,-5.369584,-0.090349,0.478324,-0.014723,-114.895993,188.495674,1611.844988,-8.469957,0
0.002083,-35.337765,172.826415,-141.732084,-2.433000,0.838693,-5.326616,4.100674,-0.685277,5.442309,-4.040647,-0.046595,0.471227,-0.037023,-91.985302,188.495734,1611.673780,-8.098761,0
0.003125,-88.221416,197.819797,-65.929956,-1.003069,3.183486,-5.792664,2.260397,-3.009595,5.709763,-2.083416,-0.024718,0.460272,-0.022156,-48.404327,188.495716,1610.849145,-7.306735,0
0.004167,-147.625123,166.871695,-4.369587,0.167898,4.658614,-5.028183,0.056705,-4.627503,5.023875,0.106093,0.008098,0.452418,-0.025873,-11.916097,188.420276,1610.889067,-6.485758,0
0.005208,-186.485566,119.339639,56.510288,1.338865,5.719092,-3.732245,-2.166317,-5.611161,3.600333,2.295602,0.062790,0.454898,0.003860,26.846314,188.495586,1610.823893,-5.679178,0
0.006250,-188.734251,42.033983,115.470199,2.521092,5.766795,-1.761765,-4.033657,-5.740290,1.693651,4.150021,0.091960,0.462753,-0.051890,63.323286,188.495622,1610.970449,-5.238104,0
0.007292,-163.569318,-21.342092,164.453588,3.410576,5.231052,0.278213,-5.328809,-5.144018,-0.389896,5.311413,0.099252,0.465853,-0.025873,92.651222,188.495647,1611.321626,-6.075004,0
0.008333,-99.295342,-75.815448,189.874885,3.917245,3.583458,2.522598,-5.757949,-3.472940,-2.719327,5.844511,0.113837,0.483216,-0.025873,113.467864,188.420249,1611.607620,-7.292076,0
0.009375,-28.817708,-132.038812,189.352363,3.883467,1.756061,4.296847,-5.491186,-1.608168,-4.319733,5.395185,0.139360,0.473088,-0.040740,115.404296,188.495711,1611.507221,-7.781323,0
0.010417,34.518373,-172.688292,142.872219,3.016501,-0.519012,5.335233,-4.196034,0.830087,-5.398173,4.062441,0.077375,0.472054,-0.037023,93.394271,188.495647,1611.305792,-9.510606,0
0.011458,88.339918,-197.693418,67.835646,1.586570,-2.819772,5.784927,-2.270703,3.101235,-5.734647,2.105210,0.055498,0.461444,0.022444,50.038463,188.495712,1611.440141,-9.602201,0
0.012500,147.754925,-167.367802,5.886424,0.449381,-4.283891,5.028623,-0.097940,4.677366,-4.979738,-0.099531,-0.013779,0.457447,-0.025873,13.595266,188.344887,1610.677626,-10.351899,0
0.013542,186.637968,-120.105881,-55.892675,-0.766624,-5.351708,3.740861,2.078689,5.706598,-3.620904,-2.250961,-0.075764,0.454967,-0.011006,-27.340002,188.495685,1610.101658,-10.936644,0
0.014583,188.931853,-42.541835,-114.803979,-1.915073,-5.399411,1.811263,3.899635,5.782556,-1.701280,-4.071110,-0.057533,0.446699,-0.048173,-61.610342,188.495723,1609.573505,-10.677024,0
0.015625,163.258423,21.668135,-164.273435,-2.860854,-4.911371,-0.228715,5.210252,5.209072,0.308933,-5.221078,-0.130457,0.465233,-0.029590,-93.561467,188.495562,1608.289132,-10.031644,0
0.016667,99.097447,76.188472,-189.281575,-3.333744,-3.285795,-2.452659,5.650990,3.556983,2.612482,-5.651364,-0.119518,0.443943,-0.011006,-112.734394,188.495689,1606.198635,-9.301580,0
0.017708,27.399420,131.754115,-189.354485,-3.378782,-1.513439,-4.222821,5.399692,1.711201,4.221515,-5.342929,-0.086703,0.478875,-0.055607,-116.145667,188.495698,1604.799409,-7.817135,0
0.018750,-35.767162,171.698894,-142.631308,-2.433000,0.776312,-5.293911,4.131603,-0.613117,5.287014,-4.059686,-0.079410,0.444494,-0.037023,-94.338292,188.495629,1602.975491,-6.501264,0
0.019792,-88.108416,197.890267,-67.096516,-1.014329,3.132113,-5.747694,2.256531,-2.945031,5.675253,-2.106263,-0.057533,0.460892,-0.025873,-50.295726,188.495732,1602.449326,-6.093140,0
0.020833,-147.014927,167.036125,-5.815636,0.156639,4.566877,-4.999566,0.103099,-4.505970,4.997992,0.075630,0.033621,0.462615,0.000144,-12.692922,188.495693,1600.913718,-5.757229,0
0.021875,-187.140962,120.572865,55.623216,1.316347,5.693405,-3.728157,-2.081263,-5.576980,3.621902,2.208022,0.040913,0.456207,-0.055607,26.598631,188.495687,1600.740965,-5.078324,0
0.022917,-188.553453,44.030635,114.826161,2.487314,5.708083,-1.851704,-3.890610,-5.649140,1.749730,4.028170,0.088314,0.462753,-0.025873,61.533213,188.495629,1598.938814,-4.411566,0
0.023958,-163.648417,-19.721280,165.036868,3.466873,5.209035,0.192362,-5.259219,-5.147816,-0.312248,5.273334,0.099252,0.477635,-0.022156,93.653213,188.495615,1598.675454,-3.806018,0
0.025000,-101.069431,-75.838938,188.440988,3.973542,3.616484,2.412218,-5.676760,-3.453950,-2.602856,5.734083,0.168530,0.477773,-0.022156,112.837398,188.495779,1596.537104,-3.216465,0
0.026042,-28.580410,-132.109282,189.607548,3.951023,1.763400,4.194644,-5.437060,-1.611966,-4.224830,5.368530,0.088314,0.476808,-0.040740,117.059270,188.495711,1595.497261,-2.502931,0
0.027083,35.411067,-171.008755,143.406892,3.072797,-0.478648,5.216677,-4.157373,0.704756,-5.298957,4.031978,0.102898,0.469436,-0.018440,94.396262,188.495669,1593.494628,-0.952910,0
0.028125,88.351218,-198.127983,67.021484,1.586570,-2.786746,5.666372,-2.286167,3.051862,-5.652685,2.128057,0.008098,0.454691,-0.066757,50.015947,188.495693,1592.403917,-0.047037,0
0.029167,146.624933,-167.273842,5.254537,0.415603,-4.170138,4.979565,-0.128869,4.612801,-4.936601,-0.023374,-0.006487,0.450695,-0.003573,13.966791,188.495660,1591.045951,1.025515,0
0.030208,187.259464,-119.800511,-55.698248,-0.755365,-5.322352,3.761302,2.047760,5.638236,-3.595021,-2.148149,-0.035656,0.451867,-0.029590,-26.473111,188.495665,1589.807877,2.177587,0
0.031250,188.513756,-42.318680,-114.366519,-1.903813,-5.388403,1.835791,3.837777,5.752173,-1.735790,-3.941643,-0.090349,0.465509,-0.003573,-61.396434,188.495609,1588.294710,3.606413,0
0.032292,163.303622,20.928200,-164.492165,-2.872113,-4.973752,-0.171482,5.175457,5.235658,0.248541,-5.175384,-0.108580,0.473226,-0.014723,-92.266760,188.495696,1588.085086,4.464169,0
0.033333,100.442138,76.059277,-188.127166,-3.367522,-3.315150,-2.366809,5.589132,3.560781,2.508952,-5.681827,-0.119518,0.469849,-0.044457,-112.610553,188.571132,1587.790656,5.113275,0
0.034375,28.823211,131.671900,-189.463850,-3.378782,-1.524448,-4.186027,5.426755,1.752978,4.247397,-5.323890,-0.123164,0.479358,-0.037023,-115.199967,188.495669,1588.065321,4.789246,0
0.035417,-34.784069,171.064664,-143.421166,-2.511815,0.695583,-5.236678,4.147067,-0.556148,5.295642,-4.006376,-0.057533,0.472537,-0.025873,-92.525702,188.495741,1587.522325,4.373896,0
0.036458,-88.232715,197.596641,-68.129408,-1.070625,3.066063,-5.727253,2.287460,-2.876669,5.632115,-2.102455,-0.042949,0.463786,-0.025873,-49.777843,188.495656,1586.638366,4.669196,0
0.037500,-147.150526,166.965655,-6.168034,0.134120,4.500827,-4.966861,0.164957,-4.464193,4.937599,0.064207,-0.035656,0.459859,0.011294,-13.064446,188.420316,1585.646106,4.677919,0
0.038542,-186.960163,120.737295,55.659671,1.316347,5.653041,-3.728157,-2.116058,-5.508617,3.578764,2.219445,0.048206,0.455656,-0.025873,26.305915,188.494444,1584.570816,4.293038,0
0.039583,-188.406553,43.478619,114.425155,2.464795,5.660380,-1.786294,-3.921539,-5.592171,1.710906,4.028170,0.084667,0.455036,-0.014723,62.580237,188.495620,1583.567883,3.838525,0
0.040625,-163.467618,-20.672626,164.380678,3.433095,5.220043,0.196450,-5.239888,-5.113635,-0.294993,5.227640,0.102898,0.461168,-0.029590,92.403539,188.495660,1582.489843,4.330055,0
0.041667,-100.323636,-75.979879,188.428836,3.973542,3.594467,2.440835,-5.657430,-3.476738,-2.568346,5.699813,0.099252,0.490588,-0.014723,112.409582,188.495716,1581.910015,5.181992,0
0.042708,-27.631216,-131.510286,189.972098,3.973542,1.756061,4.206908,-5.448659,-1.592977,-4.203261,5.357107,0.084667,0.468403,-0.018440,115.978470,188.495620,1581.415234,5.228753,0
0.043750,35.908264,-170.914795,143.722836,3.027760,-0.463970,5.212589,-4.138042,0.697161,-5.290329,4.077672,0.070083,0.477084,-0.018440,93.743279,188.495589,1581.773933,5.787756,0
0.044792,88.046120,-198.221944,67.701978,1.597829,-2.790416,5.707253,-2.282301,3.048064,-5.669940,2.139480,0.051852,0.463511,-0.025873,50.455021,188.495734,1582.077760,5.638296,0
0.045833,146.387634,-167.590957,6.190216,0.426862,-4.170138,5.040887,-0.244853,4.536843,-4.936601,0.064207,-0.002841,0.458963,-0.033307,14.631032,188.420226,1581.449103,6.725046,0
0.046875,186.897866,-120.951522,-55.175726,-0.744105,-5.285657,3.736773,2.016831,5.596459,-3.659727,-2.110071,-0.053887,0.458894,-0.033307,-26.765827,188.495656,1581.379184,7.305372,0
0.047917,188.604155,-44.303586,-114.245003,-1.926332,-5.366386,1.876673,3.787517,5.714194,-1.735790,-3.892141,-0.053887,0.463442,-0.014723,-61.160009,188.495671,1580.784882,6.968875,0
0.048958,163.653920,19.272153,-164.759502,-2.894632,-4.929719,-0.110160,5.125197,5.224264,0.265796,-5.148729,-0.072118,0.470263,-0.048173,-93.797892,188.495700,1580.567570,6.234836,0
0.050000,102.374425,75.589477,-187.628948,-3.367522,-3.366523,-2.325927,5.562069,3.594963,2.521893,-5.598054,-0.086703,0.482940,-0.029590,-111.754920,188.571051,1580.071141,5.796218,0
0.051042,29.422107,131.601430,-189.779794,-3.412560,-1.517109,-4.096089,5.357165,1.790957,4.174064,-5.289619,-0.112226,0.478186,-0.022156,-116.438383,188.495631,1579.288807,6.379621,0
0.052083,-35.089167,169.866673,-144.150267,-2.545593,0.644211,-5.134474,4.143201,-0.556148,5.213680,-3.979721,-0.046595,0.473088,0.000144,-94.946241,188.495774,1577.957343,6.260936,0
0.053125,-88.040617,197.913757,-67.594735,-1.070625,3.007351,-5.686372,2.299059,-2.834892,5.610546,-2.148149,-0.050241,0.459514,-0.018440,-50.442084,188.495566,1577.686414,7.234616,0
0.054167,-145.862335,167.224045,-5.511844,0.122861,4.445785,-4.970949,0.180421,-4.384437,4.898775,-0.004334,0.000805,0.451109,-0.018440,-12.557822,188.495593,1576.293889,8.260829,0
0.055208,-187.095762,120.091320,55.611064,1.350125,5.561304,-3.707716,-2.007806,-5.466840,3.608961,2.139480,0.048206,0.449317,-0.014723,26.677440,188.495702,1575.637430,9.679334,0
0.056250,-188.350054,42.879624,113.659600,2.509832,5.601669,-1.855792,-3.797823,-5.527607,1.766985,3.906319,0.095606,0.465302,-0.014723,61.004071,188.495718,1573.882965,11.235607,0
0.057292,-162.993021,-20.437726,164.866745,3.478132,5.165001,0.171922,-5.178030,-5.113635,-0.264797,5.174330,0.088314,0.467231,-0.011006,93.506855,188.495674,1573.299745,11.924648,0
0.058333,-101.600527,-76.015114,187.250124,3.962282,3.587128,2.330456,-5.599438,-3.484334,-2.499326,5.669350,0.084667,0.478393,-0.014723,112.049315,188.495693,1572.511437,12.374471,0
0.059375,-28.636909,-131.557266,190.130070,3.996060,1.803764,4.108793,-5.429328,-1.676531,-4.112672,5.334260,0.099252,0.471365,-0.048173,117.351986,188.495711,1571.839202,13.554595,0
0.060417,35.264168,-169.434924,145.047368,3.072797,-0.361225,5.151267,-4.176703,0.640192,-5.221309,4.085288,0.070083,0.475293,-0.048173,94.959178,188.495653,1570.856519,13.786608,0
0.061458,88.249518,-197.963553,69.111572,1.642866,-2.695010,5.703165,-2.363490,2.918935,-5.626803,2.204214,0.066437,0.463304,-0.022156,51.231846,188.495785,1570.028850,15.302664,0
0.062500,146.071236,-167.661427,7.368928,0.438121,-4.111426,5.024535,-0.298978,4.468481,-4.940915,0.102285,0.000805,0.462202,-0.007290,15.452890,188.495683,1569.388817,15.725682,0
0.063542,187.361163,-121.068972,-54.762570,-0.755365,-5.241624,3.761302,1.962706,5.543288,-3.629531,-2.098647,-0.032010,0.455174,-0.033307,-25.955228,188.495720,1568.649788,15.602470,0
0.064583,188.321657,-44.550232,-113.771087,-1.926332,-5.340699,1.905290,3.760455,5.653427,-1.761672,-3.903565,-0.083057,0.457792,-0.011006,-60.912326,188.495778,1567.943585,15.471965,0
0.065625,163.439221,19.624504,-164.759502,-2.883372,-4.962744,-0.118336,5.098134,5.205275,0.175207,-5.125882,-0.101287,0.478669,-0.025873,-92.266760,188.495711,1567.376387,16.668103,0
0.066667,102.114527,75.894847,-187.179336,-3.367522,-3.359184,-2.276870,5.500211,3.568377,2.491697,-5.594246,-0.130457,0.468196,-0.044457,-111.923795,188.571183,1566.826732,16.892574,0
0.067708,28.484213,131.213844,-189.986372,-3.423819,-1.553803,-4.087912,5.364897,1.760574,4.130926,-5.285811,-0.104934,0.483285,-0.033307,-115.807917,188.495671,1566.203416,17.062175,0
0.068750,-35.688063,169.631772,-144.271783,-2.523075,0.688244,-5.142650,4.096808,-0.533361,5.209366,-3.975913,-0.050241,0.456690,-0.014723,-92.807160,188.495615,1566.052803,17.466123,0
0.069792,-87.803318,198.007717,-67.509673,-1.036847,3.047715,-5.653667,2.271996,-2.850083,5.632115,-2.159573,-0.039302,0.455518,-0.077907,-49.811618,188.495700,1566.434196,17.407366,0
0.070833,-145.704136,167.400221,-6.070821,0.111601,4.438446,-4.966861,0.172689,-4.365448,4.933286,-0.000527,0.011744,0.456758,-0.044457,-13.447229,188.420287,1566.616425,17.410128,0
0.071875,-186.779364,120.772530,55.173604,1.293828,5.579652,-3.728157,-2.015538,-5.482032,3.665040,2.139480,0.026329,0.454002,-0.011006,25.844324,188.495644,1567.197409,17.510927,0
0.072917,-188.270954,44.429965,113.878330,2.464795,5.634694,-1.868056,-3.805555,-5.588373,1.719533,3.952013,0.077375,0.462133,-0.011006,62.152420,188.495584,1568.274685,16.264812,0
0.073958,-163.761416,-18.887384,164.793835,3.511910,5.183349,0.126952,-5.193494,-5.102241,-0.230287,5.162907,0.135714,0.470607,-0.018440,92.696255,188.495658,1568.199124,15.970426,0
0.075000,-102.900019,-75.404373,187.359489,3.962282,3.605475,2.289574,-5.611036,-3.434961,-2.495012,5.657926,0.132068,0.472950,-0.029590,111.587724,188.495682,1567.954220,15.000384,0
0.076042,-29.857301,-131.228406,190.069312,3.996060,1.814773,4.133322,-5.433194,-1.638551,-4.181693,5.280950,0.132068,0.466956,-0.022156,116.237412,188.495598,1567.890001,13.366222,0
0.077083,34.653972,-169.752039,145.010913,3.095316,-0.368564,5.175796,-4.168971,0.632596,-5.212682,4.031978,0.059144,0.464613,-0.014723,94.171096,188.495693,1567.383119,12.902063,0
0.078125,87.910521,-198.045768,68.625505,1.631607,-2.735374,5.699077,-2.324829,3.010085,-5.618175,2.135673,0.040913,0.458619,-0.029590,50.736479,188.495693,1567.401459,11.333172,0
0.079167,145.720939,-167.837602,6.651979,0.426862,-4.122434,4.950948,-0.252585,4.479875,-4.889149,0.064207,-0.013779,0.452900,-0.025873,14.754874,188.420334,1566.903825,10.691422,0
0.080208,186.965666,-120.716622,-54.871935,-0.755365,-5.245293,3.777654,1.974304,5.573671,-3.603648,-2.106263,-0.035656,0.449042,-0.029590,-26.810861,188.495711,1566.880457,10.392138,0
0.081250,188.604155,-43.587141,-113.090594,-1.892554,-5.292996,1.876673,3.760455,5.699002,-1.765986,-3.880717,-0.079410,0.443874,-0.003573,-60.507026,188.495656,1567.067030,10.865454,0
0.082292,163.168023,20.188264,-164.467862,-2.883372,-4.878346,-0.097895,5.090402,5.190083,0.201089,-5.114458,-0.093995,0.434779,-0.018440,-93.595242,188.495569,1566.654032,10.734846,0
0.083333,101.899828,75.753907,-187.179336,-3.367522,-3.351845,-2.305487,5.507944,3.598760,2.457186,-5.613285,-0.126811,0.455449,-0.040740,-111.360879,188.571062,1566.828576,11.379212,0
0.084375,28.642412,131.119884,-190.071434,-3.423819,-1.531787,-4.096089,5.411291,1.787159,4.139553,-5.316274,-0.104934,0.447181,-0.007290,-116.596000,188.495669,1567.326720,11.642433,0
0.085417,-35.179566,169.197207,-145.158855,-2.579371,0.633202,-5.109945,4.154799,-0.506776,5.209366,-4.002568,-0.086703,0.473019,0.000144,-95.419091,188.495729,1567.567861,11.701567,0
0.086458,-87.848518,197.913757,-68.955722,-1.081884,2.985334,-5.686372,2.299059,-2.869073,5.649370,-2.148149,-0.021072,0.462959,-0.011006,-51.354008,188.495611,1567.998680,10.959103,0
0.087500,-145.760635,167.564651,-7.322443,0.122861,4.420098,-5.003654,0.234547,-4.354054,4.950541,-0.030989,0.008098,0.457792,-0.022156,-13.773721,188.495526,1568.162302,11.026902,0
0.088542,-187.457360,121.524211,54.493111,1.338865,5.586991,-3.756774,-2.023271,-5.451649,3.643471,2.120441,0.044560,0.456069,-0.029590,25.900615,188.495633,1567.902405,10.777251,0
0.089583,-188.451753,45.205136,113.489477,2.476055,5.649372,-1.900761,-3.793957,-5.550394,1.792867,3.963437,0.070083,0.465095,-0.018440,60.722613,188.495611,1567.873106,11.043143,0
0.090625,-163.558018,-18.746444,165.085475,3.455614,5.198027,0.118776,-5.162565,-5.098443,-0.247542,5.246679,0.099252,0.479082,-0.044457,93.439305,188.495513,1568.753211,10.411772,0
0.091667,-102.967818,-75.451353,187.043546,3.928504,3.660517,2.310015,-5.599438,-3.484334,-2.490698,5.646503,0.102898,0.463648,-0.025873,111.857924,188.571100,1568.838291,10.930034,0
0.092708,-28.987207,-131.228406,190.470317,3.996060,1.840459,4.145586,-5.417730,-1.657541,-4.181693,5.353299,0.117483,0.449731,-0.051890,117.610928,188.495577,1569.729731,11.660442,0
0.093750,35.546667,-168.965123,145.399767,3.106575,-0.342877,5.192148,-4.184435,0.640192,-5.229937,4.089095,0.066437,0.440291,-0.014723,95.218120,188.495602,1570.311347,12.083271,0
0.094792,87.763622,-198.527314,68.236651,1.631607,-2.709687,5.727694,-2.344159,2.968308,-5.648371,2.227061,0.055498,0.459583,-0.007290,50.995421,188.495609,1570.959853,13.543342,0
0.095833,145.099443,-167.919818,6.530462,0.449381,-4.144451,4.987742,-0.260317,4.479875,-4.945228,0.106093,-0.013779,0.457999,-0.007290,15.385340,188.571136,1571.420518,14.212455,0
0.096875,187.180365,-120.857562,-54.495233,-0.777883,-5.326022,3.781743,1.970438,5.626842,-3.694237,-2.064377,-0.032010,0.453658,-0.033307,-25.583703,188.495562,1572.604399,15.194407,0
0.097917,188.592855,-44.503252,-113.127049,-1.926332,-5.384733,1.901202,3.795250,5.725588,-1.813437,-3.911180,-0.079410,0.449731,-0.014723,-60.563318,188.495506,1573.421227,15.207047,0
0.098958,163.687820,18.661413,-164.881018,-2.827076,-4.962744,-0.089719,5.132929,5.269839,0.209717,-5.198231,-0.072118,0.469367,-0.022156,-92.368085,188.495613,1575.353166,14.607976,0
0.100000,103.425318,75.178401,-187.021364,-3.345004,-3.436243,-2.289134,5.612329,3.625346,2.431304,-5.678019,-0.123164,0.476119,-0.014723,-111.732403,188.571038,1576.353099,14.465517,0
0.101042,30.439100,131.025924,-190.241557,-3.401300,-1.590498,-4.128794,5.465416,1.828936,4.165436,-5.327697,-0.072118,0.474741,-0.022156,-115.897983,188.495638,1577.026425,14.122229,0
0.102083,-34.207772,169.467342,-145.243917,-2.545593,0.592838,-5.228501,4.208925,-0.506776,5.278386,-4.059686,-0.086703,0.472537,-0.025873,-93.111134,188.495631,1578.357312,13.971937,0
0.103125,-87.543420,198.101677,-69.174452,-1.093144,3.022029,-5.751782,2.333854,-2.888062,5.666625,-2.178612,-0.068472,0.463304,0.000144,-50.475859,188.495624,1578.875722,13.946259,0
0.104167,-145.692836,167.776061,-6.957893,0.100342,4.478810,-4.991390,0.192020,-4.433810,5.045443,0.007089,0.026329,0.458136,-0.014723,-13.649879,188.495694,1580.623494,13.541725,0
0.105208,-187.050562,121.183606,54.772599,1.316347,5.638363,-3.801743,-2.077397,-5.539001,3.621902,2.173751,0.077375,0.451660,-0.007290,25.821807,188.495617,1581.466906,12.680427,0
0.106250,-188.598652,43.948419,113.234292,2.487314,5.689736,-1.872145,-3.902208,-5.645342,1.745416,3.982476,0.077375,0.461168,0.000144,61.814671,188.495638,1582.375759,12.526923,0
0.107292,-163.682317,-19.744770,164.368526,3.433095,5.256738,0.143305,-5.263085,-5.181997,-0.243228,5.258103,0.081021,0.456690,-0.018440,92.403539,188.495591,1583.138231,13.262567,0
0.108333,-101.792626,-75.345648,187.699736,3.951023,3.689873,2.367249,-5.680626,-3.552696,-2.533836,5.734083,0.099252,0.421413,-0.029590,111.700307,188.571040,1584.787856,13.699859,0
0.109375,-28.331811,-130.970016,190.652592,3.996060,1.822112,4.182379,-5.479588,-1.725903,-4.220516,5.391377,0.128422,0.461926,-0.014723,116.507612,188.495687,1585.646264,14.469894,0
0.110417,35.049470,-169.752039,145.266098,3.117835,-0.394250,5.253470,-4.234695,0.636394,-5.337781,4.134790,0.055498,0.459308,-0.044457,94.418779,188.495736,1587.427116,14.419467,0
0.111458,87.322924,-198.245434,69.378908,1.665385,-2.772068,5.821721,-2.382821,3.010085,-5.717392,2.200406,0.044560,0.468334,-0.033307,51.434495,188.495658,1588.325241,13.281391,0
