1-Time,2-VGERA,3-VGERB,4-VGERC,5-VN,6-IGERAN,7-IGERBN,8-IGERCN,9-IGERAT,10-IGERBT,11-IGERCT,12-IN,13-IFD,14-IFAULT,15-VFAULT,16-Speed (rad/s),17-Active Power,18-Reactive Power,19-FAULT 
0.000000,-148.856815,176.502603,-2.315955,0.190417,2.442196,-6.427053,3.470760,-2.308115,6.420231,-3.498722,-0.039809,0.625219,-0.074856,-54.269914,188.571192,1548.510208,946.679513,0
0.001042,-178.451319,128.841352,67.641219,1.564051,4.651219,-5.928236,0.893217,-4.299338,5.989027,-0.936280,-0.109087,0.609303,-0.037689,-62.285842,188.495758,1547.302480,947.231616,0
0.002083,-193.615819,47.495413,121.327305,2.532351,6.060297,-4.761646,-1.472369,-5.837186,4.868743,1.607236,-0.145548,0.609579,-0.052556,-59.775235,188.495653,1547.672734,947.142977,0
0.003125,-160.043741,-20.813566,168.803886,3.568207,6.577692,-2.850853,-3.716837,-6.203513,3.025559,3.749543,-0.225764,0.585877,-0.086006,-41.322841,188.562601,1547.189068,947.309881,0
0.004167,-111.849559,-88.077239,181.988450,3.793393,6.041949,-0.296424,-5.435199,-5.800916,0.442565,5.604191,-0.229410,0.611715,-0.112023,-19.774408,188.570852,1546.108020,947.415117,0
0.005208,-29.055007,-137.147891,186.132170,3.939764,4.636541,2.229845,-6.294380,-4.433537,-1.941737,6.512590,-0.265872,0.616124,-0.108307,8.101204,188.495577,1545.780820,947.045134,0
0.006250,47.321189,-166.921492,157.077523,3.399317,2.629340,4.297525,-6.101348,-2.543870,-4.131575,6.501235,-0.258580,0.627837,-0.093440,30.032420,188.495508,1545.720576,946.546448,0
0.007292,105.165507,-186.242033,80.412626,1.879312,-0.115426,5.995113,-5.015071,0.034927,-5.754930,5.346811,-0.251287,0.633763,-0.097156,46.582158,188.570908,1545.586430,946.136882,0
0.008333,148.930117,-176.387970,2.435349,0.269232,-2.401508,6.481863,-3.281569,2.261905,-6.405963,3.673843,-0.203887,0.625495,-0.056273,54.429210,188.495542,1545.322154,946.536224,0
0.009375,178.253424,-129.196519,-67.388156,-1.070625,-4.551819,5.983045,-0.722951,4.314787,-5.928257,1.031917,-0.145548,0.612197,-0.082290,62.816662,188.495446,1545.610690,945.721110,0
0.010417,193.406623,-47.650914,-121.171455,-2.005147,-6.001261,4.856683,1.653990,5.896159,-4.862930,-1.382910,-0.068979,0.578229,-0.082290,59.563006,188.495472,1545.689545,946.127116,0
0.011458,160.263942,20.681554,-168.271335,-2.950928,-6.555351,2.929799,3.864394,6.273367,-2.985927,-3.631197,-0.043455,0.594007,-0.074856,41.358295,188.570881,1546.018865,946.365244,0
0.012500,111.866362,87.827777,-181.929814,-3.176114,-6.004930,0.335143,5.631960,5.849008,-0.390250,-5.516124,-0.003348,0.588013,-0.086006,17.378063,188.563003,1545.818481,946.538880,0
0.013542,29.275208,136.792724,-185.964169,-3.378782,-4.632547,-2.166990,6.498710,4.438105,1.998280,-6.326113,0.007591,0.623703,-0.074856,-7.694225,188.493675,1545.522493,946.733634,0
0.014583,-46.942788,166.989145,-157.201162,-2.748261,-2.573973,-4.250760,6.320818,2.581081,4.175435,-6.326113,0.007591,0.637070,-0.086006,-29.850608,188.495816,1545.046026,947.399650,0
0.015625,-105.058304,185.511026,-80.560569,-1.295811,0.130429,-5.956395,5.230756,-0.030359,5.832610,-5.205755,0.029468,0.627699,-0.056273,-45.814913,188.571111,1545.384575,948.058954,0
0.016667,-148.811615,176.714014,-2.303803,0.190417,2.412841,-6.410962,3.485900,-2.268218,6.466733,-3.529002,-0.039809,0.621292,-0.082290,-52.941432,188.571187,1545.570549,948.921827,0
0.017708,-177.818523,129.123233,67.823495,1.564051,4.585169,-5.952372,0.915927,-4.284830,5.984800,-0.917355,-0.109087,0.612679,-0.097156,-62.353392,188.495743,1545.365758,948.564158,0
0.018750,-193.774018,47.730313,121.205788,2.588648,6.060297,-4.805896,-1.438304,-5.768273,4.894108,1.523966,-0.145548,0.576576,-0.093440,-58.063970,188.495743,1544.115832,949.342953,0
0.019792,-160.066341,-20.743096,168.475791,3.568207,6.563014,-2.862921,-3.667633,-6.196259,3.101654,3.726833,-0.207533,0.605031,-0.093440,-39.881776,188.495796,1543.674041,950.163233,0
0.020833,-111.759160,-87.936299,182.365152,3.838430,6.056627,-0.276311,-5.416274,-5.771900,0.501750,5.623116,-0.218472,0.602206,-0.067423,-19.706858,188.571158,1543.497630,950.516155,0
0.021875,-29.122806,-136.807286,185.937743,3.939764,4.680575,2.157436,-6.267885,-4.451672,-1.929055,6.440675,-0.233057,0.603722,-0.086006,8.360145,188.495700,1542.512698,950.380678,0
0.022917,47.117790,-167.203372,157.296253,3.444354,2.607323,4.233161,-6.097563,-2.605529,-4.110438,6.459600,-0.262226,0.634727,-0.048839,30.685403,188.495769,1541.953072,950.834680,0
0.023958,105.527104,-185.537333,80.959452,1.856793,-0.075062,5.934773,-5.030210,0.009538,-5.691518,5.278681,-0.236703,0.630318,-0.067423,47.674215,188.495676,1540.620399,950.177468,0
0.025000,149.009217,-176.904750,2.690534,0.336788,-2.361143,6.469795,-3.364838,2.229262,-6.401736,3.681413,-0.207533,0.627148,-0.071140,55.025901,188.571225,1540.533386,950.415950,0
0.026042,177.756227,-129.349204,-67.546128,-1.070625,-4.522463,6.011204,-0.730521,4.271263,-5.945167,1.088692,-0.141902,0.613988,-0.078573,62.096129,188.495703,1539.847358,951.210789,0
0.027083,193.576122,-47.921049,-121.122849,-1.993888,-6.008599,4.864728,1.646420,5.863516,-4.867158,-1.409405,-0.083563,0.587531,-0.071140,60.384864,188.495535,1539.832718,950.880719,0
0.028125,159.924945,20.658064,-168.380700,-3.007225,-6.522326,2.929799,3.879533,6.258859,-2.981699,-3.574422,-0.025225,0.588702,-0.082290,41.302003,188.476727,1538.982332,951.059028,0
0.029167,111.809863,87.968717,-181.881207,-3.243670,-5.949888,0.270779,5.594110,5.780095,-0.381795,-5.497199,-0.010640,0.608890,-0.078573,19.269462,188.543303,1538.309638,950.359871,0
0.030208,28.958810,137.039369,-185.879107,-3.277448,-4.610530,-2.154922,6.498710,4.448986,2.049010,-6.307188,0.018530,0.615849,-0.078573,-7.480317,188.472727,1538.478175,950.203215,0
0.031250,-47.180087,167.071360,-157.176859,-2.714483,-2.551956,-4.234670,6.362453,2.537557,4.196573,-6.310973,0.025822,0.626252,-0.093440,-30.627433,188.560213,1538.654478,949.615483,0
0.032292,-105.080904,185.757671,-80.220322,-1.284552,0.145106,-5.859849,5.177767,-0.052121,5.781880,-5.171690,-0.032517,0.624254,-0.074856,-45.409613,188.481912,1538.005532,949.122678,0
0.033333,-148.992414,176.584818,-2.267348,0.224195,2.460544,-6.439121,3.440481,-2.289980,6.432913,-3.498722,-0.014286,0.622256,-0.093440,-54.314948,188.490208,1537.813573,948.514151,0
0.034375,-178.315720,128.970548,67.483248,1.507755,4.621863,-5.875940,0.866723,-4.299338,5.929842,-0.871935,-0.098148,0.607512,-0.078573,-62.252067,188.492394,1537.843658,947.502557,0
0.035417,-193.502820,47.753803,121.327305,2.611166,6.052958,-4.729464,-1.472369,-5.819051,4.860288,1.599666,-0.167425,0.617847,-0.108307,-59.820268,188.495551,1538.830916,946.570063,0
0.036458,-159.987241,-20.754841,168.803886,3.568207,6.563014,-2.866944,-3.675203,-6.218021,3.012877,3.719263,-0.222118,0.617502,-0.048839,-41.300324,188.495736,1539.089822,945.834701,0
0.037500,-111.555761,-88.265159,181.842630,3.838430,6.012594,-0.276311,-5.431414,-5.746511,0.438337,5.611761,-0.254934,0.603653,-0.048839,-19.583016,188.495740,1538.861735,944.982183,0
0.038542,-28.795108,-137.053931,186.047108,4.007319,4.599847,2.221800,-6.267885,-4.390013,-1.950192,6.417965,-0.247641,0.608201,-0.078573,8.236304,188.495845,1538.636813,944.208714,0
0.039583,47.626287,-166.886257,156.992461,3.365539,2.570628,4.245229,-6.093778,-2.536616,-4.072391,6.436890,-0.236703,0.631558,-0.056273,30.032420,188.495770,1537.893595,943.480643,0
0.040625,105.357605,-186.206798,80.145290,1.868052,-0.097079,5.966954,-4.992361,0.016792,-5.729565,5.293821,-0.222118,0.628664,-0.078573,46.627191,188.495846,1538.432866,943.853438,0
0.041667,149.009217,-176.305755,2.641928,0.325528,-2.386830,6.421522,-3.277784,2.247397,-6.355233,3.598144,-0.211179,0.627148,-0.082290,54.474243,188.495792,1537.820084,942.494610,0
0.042708,178.377723,-129.114304,-67.303095,-1.003069,-4.606861,5.970977,-0.700241,4.293025,-5.902892,1.047057,-0.152841,0.613782,-0.067423,62.794145,188.495749,1538.012331,941.705813,0
0.043750,193.384024,-47.721384,-121.268669,-2.050184,-5.986583,4.816456,1.616141,5.794603,-4.812201,-1.435900,-0.072625,0.613713,-0.078573,59.551747,188.495718,1537.110884,940.776639,0
0.044792,160.150943,20.564104,-168.490065,-2.995965,-6.485631,2.873481,3.860609,6.146422,-2.956334,-3.608487,-0.006994,0.635416,-0.082290,41.313262,188.495758,1536.528823,939.563291,0
0.045833,111.595164,87.956972,-181.711084,-3.277448,-5.979244,0.290893,5.605465,5.751079,-0.352203,-5.444209,0.007591,0.611508,-0.063706,17.186672,188.495712,1535.729578,938.998160,0
0.046875,28.811911,136.910174,-185.988472,-3.378782,-4.577505,-2.175036,6.479786,4.445359,2.057465,-6.322328,0.000299,0.607512,-0.071140,-7.829325,188.495723,1535.954112,938.949481,0
0.047917,-47.485185,166.965655,-156.909522,-2.782039,-2.548287,-4.206511,6.271614,2.523049,4.120478,-6.276908,0.011237,0.620396,-0.086006,-29.929417,188.495769,1534.660596,938.885604,0
0.048958,-105.160004,185.581496,-80.196018,-1.250774,0.156115,-5.896054,5.170197,-0.019478,5.752288,-5.171690,0.003945,0.625426,-0.063706,-45.871204,188.420365,1534.029756,939.182666,0
0.050000,-148.902015,176.479113,-2.388865,0.167898,2.412841,-6.378781,3.489685,-2.246456,6.437141,-3.460872,-0.068979,0.618605,-0.063706,-52.986465,188.495709,1533.587811,938.960296,0
0.051042,-177.908923,128.958803,67.689826,1.473977,4.621863,-5.888008,0.908357,-4.241306,5.955207,-0.902215,-0.087210,0.607029,-0.052556,-62.398425,188.495741,1532.859184,939.628374,0
0.052083,-193.649719,47.929978,121.315153,2.611166,6.045619,-4.733487,-1.434519,-5.779154,4.830696,1.535321,-0.171072,0.615022,-0.086006,-57.973903,188.495718,1531.885938,939.752760,0
0.053125,-159.953342,-20.696116,168.633763,3.545688,6.537328,-2.826717,-3.633568,-6.225275,3.050924,3.707908,-0.211179,0.627493,-0.056273,-39.848001,188.345008,1531.756952,940.224809,0
0.054167,-111.567061,-87.959789,182.353000,3.782133,5.986907,-0.264243,-5.370855,-5.684852,0.425655,5.585266,-0.229410,0.607443,-0.093440,-19.616791,188.495731,1531.294853,939.490806,0
0.055208,-28.648209,-136.830776,185.852682,3.962282,4.603516,2.157436,-6.245175,-4.408148,-1.907918,6.402825,-0.247641,0.625219,-0.123173,8.529020,188.495680,1530.643634,939.903879,0
0.056250,47.603687,-167.238607,157.053220,3.297983,2.592645,4.249252,-6.055929,-2.511227,-4.076618,6.395255,-0.265872,0.622876,-0.089723,30.764211,188.495731,1530.497339,939.357663,0
0.057292,105.538404,-185.549078,80.424778,1.924349,-0.100748,5.914659,-4.973436,-0.033986,-5.695745,5.282466,-0.218472,0.630386,-0.086006,47.640440,188.344976,1529.566646,939.588111,0
0.058333,149.088316,-176.716830,2.824203,0.370565,-2.309771,6.421522,-3.315634,2.258278,-6.342551,3.647348,-0.200241,0.624392,-0.082290,55.048418,188.492546,1529.791543,940.014795,0
0.059375,177.948326,-129.302224,-67.376005,-1.003069,-4.526132,5.958909,-0.730521,4.278517,-5.924030,1.069767,-0.138256,0.611370,-0.115740,62.163679,188.495683,1529.644445,940.377771,0
0.060417,193.485723,-48.061990,-121.232214,-2.061443,-5.971905,4.784274,1.646420,5.809111,-4.795291,-1.394265,-0.087210,0.606685,-0.086006,60.328572,188.495801,1529.557881,940.509869,0
0.061458,160.060544,20.528869,-168.441458,-2.995965,-6.496639,2.865435,3.853039,6.204454,-2.952107,-3.563067,-0.047102,0.592491,-0.056273,41.268228,188.344923,1529.602572,941.053585,0
0.062500,111.470865,87.980462,-181.893359,-3.232411,-5.913193,0.262734,5.605465,5.758333,-0.356430,-5.482059,0.007591,0.588909,-0.082290,19.123104,188.495817,1530.095476,941.208021,0
0.063542,28.540713,137.027624,-185.684680,-3.345004,-4.526132,-2.183081,6.449506,4.430851,2.053237,-6.337468,-0.003348,0.592836,-0.067423,-7.649192,188.420345,1530.014422,941.227572,0
0.064583,-47.564284,166.895185,-156.775853,-2.725742,-2.529939,-4.214556,6.267829,2.501287,4.183890,-6.261768,0.029468,0.607098,-0.063706,-30.638691,188.495864,1530.550513,940.647172,0
0.065625,-105.182603,185.828141,-79.722103,-1.307070,0.174462,-5.875940,5.143703,-0.041240,5.786108,-5.095990,-0.006994,0.622532,-0.078573,-45.432130,188.269556,1530.623170,939.816703,0
0.066667,-148.992414,176.326428,-2.425320,0.167898,2.434858,-6.366712,3.459405,-2.250083,6.394866,-3.434377,-0.079917,0.613988,-0.093440,-54.314948,188.495778,1530.161545,939.268757,0
0.067708,-178.451319,128.641687,67.434641,1.530273,4.614524,-5.904099,0.840228,-4.259441,5.887567,-0.879505,-0.083563,0.603722,-0.104590,-62.229550,188.420412,1529.993867,938.460417,0
0.068750,-193.344621,47.847763,121.315153,2.622425,5.990577,-4.661078,-1.514003,-5.771900,4.822241,1.576956,-0.163779,0.609096,-0.067423,-59.763977,188.495761,1530.075630,937.952144,0
0.069792,-159.829042,-20.801821,168.755280,3.545688,6.474947,-2.798558,-3.656278,-6.072941,2.987512,3.730618,-0.214826,0.559833,-0.059989,-41.210258,188.269528,1528.848161,936.164445,0
0.070833,-111.318463,-88.241669,181.794023,3.860949,5.909848,-0.171720,-5.359500,-5.615939,0.412973,5.520921,-0.229410,0.553287,-0.082290,-19.436658,188.495817,1527.411532,935.426691,0
0.071875,-28.365711,-137.030441,185.962047,3.951023,4.504440,2.237891,-6.252745,-4.292084,-1.941737,6.395255,-0.262226,0.592423,-0.048839,8.326370,188.420339,1527.357355,933.953126,0
0.072917,47.886185,-166.698336,156.737276,3.365539,2.548611,4.217070,-5.995370,-2.482211,-4.080846,6.357405,-0.251287,0.611026,-0.048839,30.021162,188.495783,1526.827892,933.268933,0
0.073958,105.165507,-186.359483,79.853649,1.845534,-0.196154,5.906614,-4.943157,0.067570,-5.649243,5.206766,-0.233057,0.622601,-0.078573,46.548383,188.269581,1526.667490,931.553378,0
0.075000,149.020517,-176.012129,2.593321,0.348047,-2.397838,6.397386,-3.266429,2.247397,-6.312958,3.537584,-0.192949,0.622807,-0.104590,54.485501,188.420392,1525.837011,930.194325,0
0.076042,178.490722,-128.996854,-67.242336,-1.048106,-4.537141,5.906614,-0.632113,4.264009,-5.797205,1.028132,-0.138256,0.607236,-0.086006,62.805403,188.420287,1524.914176,928.766141,0
0.077083,193.146725,-48.085480,-121.207910,-2.050184,-5.935210,4.715888,1.627495,5.780095,-4.731878,-1.379125,-0.072625,0.603033,-0.089723,59.472939,188.495734,1524.116027,928.062782,0
0.078125,160.015344,20.470144,-168.526520,-2.995965,-6.419580,2.841299,3.890888,6.164557,-2.884467,-3.566852,-0.039809,0.610819,-0.059989,41.279487,188.269539,1523.842383,927.000134,0
0.079167,111.244866,87.980462,-181.528809,-3.254929,-5.869160,0.254689,5.556261,5.671285,-0.331065,-5.440424,0.014883,0.607718,-0.052556,16.995280,188.420372,1522.709949,925.862836,0
0.080208,28.540713,136.780979,-185.830500,-3.311226,-4.482099,-2.187104,6.445721,4.351057,2.070147,-6.250413,0.018530,0.576851,-0.100873,-7.953167,188.420182,1521.727189,924.386811,0
0.081250,-47.711183,166.742500,-156.569275,-2.759520,-2.485906,-4.202488,6.267829,2.468644,4.145843,-6.220133,0.029468,0.612817,-0.104590,-29.940675,188.495778,1520.869532,923.840680,0
0.082292,-104.934005,185.910356,-79.758558,-1.239515,0.211157,-5.851804,5.105853,-0.033986,5.722695,-5.103560,-0.006994,0.623979,-0.048839,-45.814913,188.269509,1520.166361,923.844207,0
0.083333,-148.935914,176.314683,-2.510381,0.224195,2.423849,-6.326485,3.410201,-2.268218,6.377956,-3.400312,-0.039809,0.613368,-0.097156,-53.020240,188.344939,1520.150958,923.181572,0
0.084375,-178.123621,129.005783,67.337428,1.564051,4.625533,-5.835713,0.828873,-4.237679,5.883340,-0.871935,-0.090856,0.607994,-0.093440,-62.432200,188.420365,1519.950092,922.933906,0
0.085417,-193.480220,48.082663,121.363760,2.588648,5.953882,-4.612806,-1.479939,-5.717495,4.788421,1.611021,-0.178364,0.607167,-0.082290,-57.861320,188.495725,1519.590928,922.104041,0
0.086458,-159.862942,-20.496451,168.743128,3.489392,6.427244,-2.738217,-3.633568,-6.058433,2.928327,3.726833,-0.192949,0.579263,-0.056273,-39.859259,188.269487,1519.527115,921.228877,0
0.087500,-111.284563,-87.948044,182.195029,3.759615,5.876823,-0.183788,-5.336790,-5.601431,0.400290,5.539846,-0.258580,0.584844,-0.045123,-19.459175,188.269537,1519.857841,920.914894,0
0.088542,-28.365711,-136.772051,185.901288,3.951023,4.511779,2.237891,-6.142982,-4.259441,-1.971330,6.380115,-0.211179,0.591596,-0.093440,8.619087,188.420377,1519.820000,920.153100,0
0.089583,47.920085,-166.862767,156.591456,3.365539,2.522925,4.261320,-5.987800,-2.398790,-4.068163,6.311985,-0.236703,0.613713,-0.056273,30.741695,188.495830,1519.453244,918.947387,0
0.090625,105.278506,-185.748743,79.732133,1.935608,-0.155790,5.878454,-4.916662,0.060316,-5.666153,5.225691,-0.254934,0.619983,-0.082290,47.617923,188.269572,1519.444871,919.201821,0
0.091667,148.907517,-176.164815,2.812051,0.359306,-2.350135,6.369227,-3.209655,2.240143,-6.274911,3.522444,-0.185656,0.620465,-0.093440,54.969609,188.269608,1519.057836,918.756777,0
0.092708,178.287323,-128.938129,-67.230185,-1.093144,-4.559158,5.858341,-0.651037,4.234993,-5.818342,1.020562,-0.134610,0.609785,-0.086006,62.174937,188.420336,1518.834380,918.870796,0
0.093750,193.214525,-48.097225,-121.329427,-2.038925,-5.938879,4.707842,1.688054,5.743825,-4.731878,-1.420760,-0.083563,0.604687,-0.078573,60.238505,188.495779,1518.782632,918.467285,0
0.094792,159.845845,20.575849,-168.696643,-2.939669,-6.382886,2.784981,3.871964,6.124660,-2.867557,-3.581992,-0.025225,0.600622,-0.078573,41.223195,188.269566,1518.527050,918.019892,0
0.095833,111.278766,87.968717,-181.650325,-3.243670,-5.858151,0.186302,5.541121,5.689420,-0.271880,-5.440424,-0.010640,0.586704,-0.078573,18.976746,188.269541,1519.012176,917.601336,0
0.096875,28.156515,136.910174,-185.696832,-3.345004,-4.438065,-2.191127,6.362453,4.311160,2.091285,-6.242843,0.011237,0.584430,-0.078573,-7.773034,188.420327,1518.884375,917.091995,0
0.097917,-48.038881,166.719010,-156.314090,-2.782039,-2.441872,-4.190420,6.207270,2.392477,4.166980,-6.159573,0.007591,0.617158,-0.100873,-30.661208,188.420403,1518.605680,915.787030,0
0.098958,-104.945305,186.250962,-78.993003,-1.228255,0.251521,-5.859849,5.083144,-0.186320,5.722695,-5.043000,-0.025225,0.619707,-0.082290,-45.364580,188.269612,1519.172338,913.890288,0
0.100000,-148.777715,175.927098,-2.534685,0.201676,2.456874,-6.282235,3.323148,-2.282726,6.318771,-3.324612,-0.032517,0.616813,-0.082290,-54.303689,188.194134,1518.478171,912.507094,0
0.101042,-178.835517,128.312827,67.228063,1.575311,4.621863,-5.803531,0.779669,-4.324727,5.815700,-0.765956,-0.076271,0.603309,-0.067423,-62.319617,188.420301,1519.332763,910.755870,0
0.102083,-193.197722,48.023938,121.533883,2.577388,5.979568,-4.616828,-1.536713,-5.706614,4.741919,1.584526,-0.160133,0.593869,-0.052556,-59.662652,188.344941,1518.729384,910.491300,0
0.103125,-159.862942,-20.743096,169.022616,3.545688,6.441922,-2.681899,-3.701697,-6.101957,2.902962,3.791178,-0.218472,0.593869,-0.108307,-41.199000,188.269568,1519.892238,910.327811,0
0.104167,-111.137664,-88.347374,181.830478,3.815911,5.851137,-0.107356,-5.378425,-5.536145,0.260783,5.592836,-0.225764,0.578849,-0.041406,-19.279042,188.194125,1520.653018,908.302474,0
0.105208,-27.800715,-137.218361,186.205080,3.939764,4.471415,2.253982,-6.158122,-4.212290,-2.022060,6.330910,-0.251287,0.582570,-0.056273,8.540279,188.420321,1520.468507,907.517669,0
0.106250,48.417282,-166.721826,156.445636,3.309243,2.456874,4.249252,-5.934811,-2.297234,-4.114665,6.277920,-0.258580,0.588702,-0.089723,30.122487,188.420388,1520.757633,906.053981,0
0.107292,104.962108,-186.911499,78.893667,1.913090,-0.225510,5.866386,-4.840964,0.121975,-5.687290,5.142421,-0.251287,0.620120,-0.093440,46.503349,188.278051,1521.119063,904.853833,0
0.108333,148.986617,-175.589309,2.629776,0.325528,-2.430863,6.345090,-3.183161,2.327191,-6.258001,3.477024,-0.182010,0.613093,-0.112023,54.474243,188.194343,1521.519748,903.734666,0
0.109375,179.089618,-128.456584,-67.084365,-1.048106,-4.533471,5.822136,-0.582908,4.307533,-5.763385,0.929722,-0.149195,0.601862,-0.063706,62.951762,188.420481,1522.351009,902.281933,0
0.110417,192.920727,-47.850579,-121.402337,-2.038925,-5.924202,4.679683,1.688054,5.754706,-4.706513,-1.432115,-0.109087,0.606754,-0.071140,59.337839,188.420477,1522.307012,901.976082,0
