1-Time,2-VGERA,3-VGERB,4-VGERC,5-VN,6-IGERAN,7-IGERBN,8-IGERCN,9-IGERAT,10-IGERBT,11-IGERCT,12-IN,13-IFD,14-IFAULT,15-VFAULT,16-Speed (rad/s),17-Active Power,18-Reactive Power,19-FAULT 
0.000000,-123.959736,-55.339729,190.666288,6.524628,4.094486,1.931207,-5.662158,-4.028493,-1.841116,5.520324,-0.259948,0.473955,-0.043161,-115.778129,188.495633,1598.157668,1.971234,0
0.001042,-48.985808,-113.787143,195.048864,6.626418,2.170235,3.967090,-5.602456,-2.050939,-3.796774,5.463398,-0.285519,0.458015,-0.028224,-41.279161,188.571207,1598.377543,3.212807,0
0.002083,16.517133,-165.638383,167.116099,6.083538,0.068471,5.260848,-4.692002,0.055266,-5.198470,4.630862,-0.219765,0.455010,-0.061832,23.187838,188.495653,1598.165824,3.116577,0
0.003125,69.554665,-192.772093,97.524243,4.748958,-2.356369,5.737078,-2.755421,2.418773,-5.664303,2.805687,-0.223418,0.444493,-0.054364,73.924497,188.495676,1598.713343,3.731020,0
0.004167,129.908110,-191.177414,25.162500,3.403068,-4.067603,5.459278,-0.774063,4.271351,-5.467058,0.877334,-0.168623,0.441292,-0.061832,132.476366,188.495691,1598.274083,4.401639,0
0.005208,171.546429,-141.114148,-38.409470,2.192898,-5.296000,4.217111,1.490878,5.363049,-4.266804,-1.289395,-0.110175,0.437438,-0.024490,175.997245,188.571154,1597.967108,4.467322,0
0.006250,198.133250,-66.140057,-91.997538,1.186308,-5.761086,2.359814,3.528206,5.954845,-2.428653,-3.384967,-0.091910,0.443774,-0.043161,194.489094,188.495736,1597.662374,4.731903,0
0.007292,168.937654,-3.790512,-155.606440,-0.069102,-5.260497,0.347742,4.908813,5.326291,-0.464600,-4.583961,-0.051727,0.467422,-0.054364,166.055755,188.495801,1596.340803,4.528316,0
0.008333,124.316257,55.720021,-190.507008,-0.702462,-4.014349,-1.850854,5.569266,4.219891,1.751253,-5.370245,-0.044421,0.450503,-0.028224,121.369946,188.495664,1595.643777,4.108759,0
0.009375,49.875426,114.747318,-195.221970,-0.792942,-2.043945,-3.910549,5.498370,2.268067,3.811830,-5.309762,-0.037115,0.461804,-0.054364,46.305477,188.571089,1596.599531,3.372468,0
0.010417,-16.739079,165.632086,-167.030682,-0.272682,0.096873,-5.160653,4.513288,0.143484,5.205132,-4.452321,-0.048074,0.457297,-0.050629,-18.998461,188.495709,1596.733037,2.894618,0
0.011458,-69.924064,193.925563,-95.592235,1.084518,2.475559,-5.708317,2.576707,-2.223699,5.620604,-2.548873,-0.106522,0.438614,-0.028224,-69.271410,188.495640,1596.862351,2.217431,0
0.012500,-130.005289,190.989904,-23.735227,2.441718,4.215196,-5.343208,0.617738,-4.050547,5.410770,-0.688119,-0.164970,0.437830,0.005384,-127.811969,188.495680,1596.581648,1.276027,0
0.013542,-172.698461,140.358835,38.568750,3.617958,5.440042,-4.061355,-1.684517,-5.171651,4.231499,1.471494,-0.197847,0.435739,-0.050629,-172.045378,188.495716,1597.036033,0.890456,0
0.014583,-198.128347,66.979424,92.267614,4.681098,5.816371,-2.231838,-3.718114,-5.745068,2.359774,3.538603,-0.230724,0.443056,-0.028224,-189.281817,188.495622,1596.979742,0.080927,0
0.015625,-169.295711,5.040629,156.528978,5.857338,5.329983,-0.168174,-5.065139,-5.182678,0.387328,4.801639,-0.241683,0.454096,-0.024490,-161.368738,188.495725,1598.612271,-1.669689,0
0.016667,-125.071301,-55.267244,190.296970,6.490698,4.066084,1.986767,-5.684546,-4.024817,-1.782362,5.538113,-0.248989,0.460171,-0.058098,-115.936469,188.495627,1598.712765,-1.418441,0
0.017708,-48.974465,-114.681130,195.492046,6.649038,2.077928,4.046462,-5.636038,-1.929639,-3.859725,5.438493,-0.274560,0.443774,-0.002084,-40.125541,188.495631,1598.805784,-3.148937,0
0.018750,17.934945,-165.082661,166.426705,6.072228,-0.027387,5.296566,-4.650957,0.128781,-5.219453,4.591726,-0.252642,0.448674,-0.054364,24.759928,188.495712,1598.323292,-3.796343,0
0.019792,69.815542,-194.258044,95.172917,4.715028,-2.469978,5.828356,-2.691987,2.499640,-5.664303,2.730972,-0.183235,0.434172,-0.031958,74.150697,188.495656,1598.393649,-4.560858,0
0.020833,129.760657,-190.355912,24.608523,3.403068,-4.113757,5.423560,-0.740481,4.289730,-5.446075,0.866660,-0.154011,0.441161,-0.043161,132.906146,188.495693,1597.954492,-4.660589,0
0.021875,172.930214,-140.787963,-37.793940,2.215518,-5.335053,4.197268,1.520729,5.410834,-4.262607,-1.332089,-0.073645,0.440965,-0.054364,177.286585,188.420309,1598.864741,-5.317655,0
0.022917,197.611495,-67.420633,-92.329925,1.152378,-5.743335,2.320128,3.576714,5.991602,-2.428653,-3.413429,-0.084604,0.445408,-0.069301,193.855734,188.495609,1599.560500,-5.891970,0
0.023958,169.130477,-4.140858,-156.258902,-0.069102,-5.210793,0.292181,4.942396,5.429212,-0.422633,-4.615981,-0.040768,0.456382,-0.046895,165.965275,188.495787,1601.191387,-6.117055,0
0.025000,123.715105,56.348228,-190.346970,-0.713772,-3.936243,-1.922288,5.561803,4.179457,1.797417,-5.398708,-0.026156,0.461151,-0.017021,119.797856,188.495779,1601.257260,-6.681812,0
0.026042,47.731694,114.952694,-195.849811,-0.860802,-2.004892,-3.930392,5.498370,2.212931,3.799240,-5.267067,-0.026156,0.457885,-0.024490,44.541117,188.420325,1600.419849,-6.555170,0
0.027083,-18.270317,165.523358,-166.562879,-0.250062,0.103973,-5.164621,4.494631,0.110402,5.154771,-4.434531,-0.059033,0.445212,-0.009553,-19.315141,188.495725,1599.577519,-6.161961,0
0.028125,-70.037489,194.070534,-95.579925,1.084518,2.511062,-5.684506,2.584170,-2.245754,5.628998,-2.588009,-0.128440,0.448021,-0.028224,-69.373200,188.495774,1600.109968,-5.962895,0
0.029167,-130.799264,190.591234,-24.953977,2.396478,4.183243,-5.291616,0.628932,-4.046871,5.456933,-0.705908,-0.102869,0.445146,-0.005818,-128.501879,188.495658,1600.758358,-5.718855,0
0.030208,-173.118133,140.938718,38.297917,3.595338,5.408089,-4.105009,-1.680786,-5.149596,4.210515,1.482168,-0.197847,0.439332,-0.043161,-172.339438,188.495711,1600.630613,-6.095725,0
0.031250,-198.105662,66.665320,92.513826,4.647168,5.812821,-2.208026,-3.691994,-5.697283,2.363971,3.527930,-0.230724,0.437177,-0.069301,-189.338367,188.495756,1600.023378,-5.809809,0
0.032292,-168.785298,3.023118,156.110417,5.868648,5.308681,-0.219766,-5.027825,-5.123866,0.387328,4.758945,-0.212459,0.435413,-0.035692,-160.791928,188.495718,1598.648517,-5.107433,0
0.033333,-123.347241,-56.245797,190.493940,6.524628,4.066084,1.955018,-5.658426,-3.932923,-1.790755,5.509650,-0.256295,0.453508,-0.058098,-115.212629,188.495788,1597.390188,-5.144724,0
0.034375,-48.293915,-114.789858,195.381251,6.615108,2.077928,4.026619,-5.613650,-2.014182,-3.821955,5.442051,-0.270907,0.452463,-0.024490,-40.668421,188.420287,1597.352792,-3.614399,0
0.035417,17.333793,-165.602140,166.488258,6.117468,0.018767,5.288629,-4.617374,0.103051,-5.215257,4.570379,-0.241683,0.455990,-0.039427,23.832508,188.495698,1597.259764,-3.587943,0
0.036458,70.121790,-193.883536,95.800758,4.726338,-2.455777,5.796607,-2.650942,2.470234,-5.647516,2.709625,-0.194194,0.446257,-0.046895,74.467377,188.495703,1596.792889,-3.577923,0
0.037500,130.418522,-190.319670,24.350000,3.391758,-4.110207,5.391812,-0.762869,4.282378,-5.462861,0.827524,-0.154011,0.440900,-0.024490,133.087106,188.495712,1596.972759,-3.656032,0
0.038542,172.839474,-139.954381,-38.667993,2.181588,-5.292449,4.185362,1.572968,5.451267,-4.212247,-1.339205,-0.128440,0.437699,0.001650,177.207415,188.495607,1596.816462,-3.809806,0
0.039583,197.747605,-65.342718,-92.453031,1.174998,-5.778838,2.300285,3.572983,5.958520,-2.416062,-3.381409,-0.066339,0.442795,-0.031958,193.912284,188.495640,1595.908751,-2.950960,0
0.040625,168.563352,-3.186467,-156.615910,-0.046482,-5.249846,0.323930,4.949858,5.399806,-0.435223,-4.662233,-0.048074,0.459583,-0.043161,165.852175,188.495687,1595.970131,-2.774541,0
0.041667,123.975982,56.348228,-190.273107,-0.657222,-3.957545,-1.922288,5.572997,4.216215,1.768040,-5.384476,-0.015197,0.450046,-0.013287,120.589556,188.495685,1596.010551,-2.169944,0
0.042708,49.081451,115.665467,-195.492804,-0.781632,-2.004892,-3.946266,5.517027,2.209255,3.862190,-5.334667,-0.037115,0.456839,-0.058098,45.253647,188.420216,1597.511436,-2.828991,0
0.043750,-17.884671,165.607924,-166.267425,-0.227442,0.146577,-5.160653,4.490900,0.099375,5.217722,-4.438089,-0.051727,0.457297,-0.050629,-19.846711,188.495718,1598.165465,-3.314833,0
0.044792,-70.445819,195.073249,-93.794887,1.129758,2.592718,-5.759909,2.550587,-2.271484,5.683555,-2.527525,-0.106522,0.440639,-0.046895,-69.791670,188.495662,1598.645028,-3.527289,0
0.045833,-130.606441,190.132159,-23.255114,2.464338,4.254249,-5.315427,0.531916,-4.109359,5.393983,-0.673887,-0.128440,0.435935,-0.035692,-128.411399,188.495725,1598.135489,-4.040989,0
0.046875,-174.150301,139.549414,38.617993,3.640578,5.429391,-4.105009,-1.725563,-5.234139,4.185335,1.514188,-0.179582,0.439398,-0.054364,-173.493058,188.344916,1598.923769,-4.358186,0
0.047917,-197.799414,66.363298,93.030871,4.647168,5.830572,-2.192152,-3.759159,-5.734041,2.363971,3.559950,-0.238030,0.443905,-0.028224,-188.840727,188.495649,1599.514335,-4.408102,0
0.048958,-168.921408,4.267451,157.526137,5.902578,5.393888,-0.148331,-5.139766,-5.190030,0.345361,4.812312,-0.223418,0.460367,-0.065566,-161.233018,188.495647,1601.205281,-5.133069,0
0.050000,-124.424779,-56.173311,189.989205,6.490698,4.019930,2.046296,-5.662158,-3.999087,-1.895673,5.530997,-0.281866,0.458864,-0.039427,-115.076909,188.495640,1602.465739,-6.096343,0
0.051042,-47.772160,-115.587197,195.787501,6.615108,2.070828,4.137739,-5.665889,-1.914936,-3.914282,5.463398,-0.256295,0.447433,-0.028224,-38.971921,188.420365,1603.320907,-7.584408,0
0.052083,19.012483,-164.998095,165.749622,6.026988,-0.087742,5.300534,-4.602449,0.205972,-5.248830,4.570379,-0.245336,0.421303,-0.054364,25.461148,188.495774,1603.361034,-8.270123,0
0.053125,70.337297,-195.514458,93.634091,4.703718,-2.544534,5.820419,-2.680793,2.543749,-5.735646,2.702509,-0.175929,0.440769,-0.031958,74.704887,188.495714,1604.961442,-8.406096,0
0.054167,130.429865,-189.353197,24.288447,3.425688,-4.170562,5.403717,-0.695704,4.322812,-5.454468,0.831082,-0.175929,0.443905,-0.054364,133.584746,188.495763,1604.900782,-8.568050,0
0.055208,174.461452,-139.773167,-37.855493,2.226828,-5.359905,4.197268,1.599088,5.480673,-4.245821,-1.389014,-0.080951,0.442272,-0.054364,178.609855,188.420269,1606.064747,-9.009790,0
0.056250,197.214508,-66.442080,-92.957765,1.129758,-5.746885,2.264568,3.617759,5.991602,-2.374096,-3.445450,-0.080951,0.442860,-0.031958,193.267614,188.495770,1606.748241,-10.274848,0
0.057292,168.767517,-3.113981,-157.157576,-0.125652,-5.242746,0.216778,4.979709,5.447591,-0.363880,-4.669349,-0.055380,0.450372,-0.046895,165.761695,188.495705,1607.502973,-10.826188,0
0.058333,122.932472,57.157649,-190.039205,-0.702462,-3.929143,-1.950068,5.554340,4.161079,1.889744,-5.427171,-0.022503,0.462784,-0.050629,119.051396,188.495696,1607.811400,-12.209453,0
0.059375,46.631471,115.895004,-196.059092,-0.804252,-1.976490,-4.013732,5.517027,2.183525,3.862190,-5.323993,-0.040768,0.447302,-0.013287,43.839897,188.344972,1607.511318,-11.677102,0
0.060417,-19.018922,165.426711,-165.898107,-0.261372,0.139476,-5.208276,4.479706,0.040563,5.221918,-4.427416,-0.048074,0.451287,-0.024490,-19.812781,188.495635,1607.342904,-11.985585,0
0.061458,-70.457161,195.375272,-94.164205,1.118448,2.592718,-5.720223,2.554319,-2.289863,5.708735,-2.577335,-0.110175,0.451156,-0.073035,-69.882150,188.495667,1608.230659,-11.797220,0
0.062500,-131.309676,189.709328,-24.313826,2.430408,4.268450,-5.299553,0.565499,-4.090980,5.406573,-0.656098,-0.139399,0.440965,-0.009553,-128.931659,188.495700,1608.259590,-11.952568,0
0.063542,-174.717426,139.549414,38.667235,3.629268,5.457793,-4.085166,-1.762876,-5.230463,4.210515,1.521304,-0.157664,0.440443,-0.065566,-173.798428,188.420399,1608.653344,-11.732653,0
0.064583,-197.810757,65.420987,93.215531,4.658478,5.866075,-2.176278,-3.770353,-5.693607,2.351381,3.584855,-0.216112,0.420519,-0.069301,-188.784177,188.495808,1608.188860,-11.785269,0
0.065625,-168.569791,2.080808,157.218372,5.902578,5.369036,-0.156268,-5.124841,-5.142245,0.404115,4.826544,-0.278213,0.415946,-0.058098,-160.803238,188.495682,1607.620907,-10.650874,0
0.066667,-122.984281,-56.922328,190.284660,6.535938,4.044782,2.046296,-5.699471,-3.973356,-1.824329,5.563018,-0.285519,0.460628,-0.058098,-114.782849,188.495631,1607.348532,-9.512105,0
0.067708,-47.670078,-115.744249,195.689016,6.626418,2.063727,4.094085,-5.680815,-1.995803,-3.931069,5.474072,-0.270907,0.449262,-0.069301,-39.944581,188.420314,1607.897827,-8.660596,0
0.068750,17.957630,-165.529655,165.971213,6.026988,-0.069990,5.300534,-4.602449,0.128781,-5.257224,4.613073,-0.216112,0.456578,-0.065566,24.567658,188.495649,1608.574999,-7.873323,0
0.069792,70.518777,-195.200355,93.929546,4.669788,-2.537434,5.808513,-2.650942,2.536397,-5.760827,2.677604,-0.183235,0.445995,-0.039427,74.919777,188.495756,1608.634963,-8.094674,0
0.070833,130.985648,-189.474006,23.500568,3.380448,-4.202514,5.411655,-0.714361,4.352218,-5.475452,0.802619,-0.161317,0.442076,-0.039427,133.709156,188.495638,1609.212103,-8.172177,0
0.071875,174.359369,-138.746290,-38.963447,2.204208,-5.398958,4.177425,1.599088,5.495376,-4.245821,-1.392572,-0.102869,0.438352,-0.054364,178.655095,188.420242,1609.175828,-7.662627,0
0.072917,197.271220,-64.545378,-93.154735,1.129758,-5.771737,2.272505,3.599102,6.009981,-2.395079,-3.427661,-0.077298,0.434106,-0.050629,193.369404,188.495778,1609.143803,-6.581521,0
0.073958,168.313817,-2.497855,-157.859281,-0.069102,-5.271148,0.248527,5.035680,5.414509,-0.368076,-4.726275,-0.066339,0.458015,-0.031958,165.750385,188.495682,1609.421418,-6.664694,0
0.075000,123.556310,57.097244,-190.100758,-0.702462,-3.946894,-1.954037,5.610311,4.190485,1.826794,-5.423613,-0.044421,0.459191,-0.043161,119.944886,188.495740,1609.525085,-5.887429,0
0.076042,47.924516,116.668182,-195.911364,-0.860802,-1.969389,-4.061355,5.517027,2.165146,3.920944,-5.327551,-0.051727,0.458668,-0.035692,44.100027,188.344827,1610.269660,-6.808287,0
0.077083,-18.792072,165.595843,-165.725758,-0.238752,0.167878,-5.243993,4.472243,0.073645,5.217722,-4.445205,-0.051727,0.456578,-0.076769,-20.615791,188.495658,1610.381656,-6.304697,0
0.078125,-70.922204,196.414229,-92.157576,1.141068,2.656624,-5.783720,2.494617,-2.392784,5.704538,-2.513294,-0.091910,0.450111,-0.058098,-70.221450,188.495667,1610.536157,-7.229874,0
0.079167,-130.980744,189.334820,-22.836553,2.453028,4.300402,-5.323365,0.524454,-4.113035,5.427556,-0.627635,-0.143052,0.436589,-0.028224,-128.988209,188.495665,1610.621144,-7.175553,0
0.080208,-175.726908,138.486295,38.716477,3.629268,5.500396,-4.124852,-1.807653,-5.267220,4.172745,1.592461,-0.190541,0.440247,-0.054364,-174.872878,188.344916,1610.936142,-8.036131,0
0.081250,-197.368399,65.735091,93.683334,4.669788,5.834123,-2.132623,-3.781547,-5.781825,2.305217,3.599087,-0.234377,0.443186,-0.020755,-188.286537,188.495691,1611.809415,-8.571042,0
0.082292,-168.762613,3.409707,158.474054,5.868648,5.404539,-0.120551,-5.165886,-5.204733,0.336968,4.904816,-0.285519,0.455468,-0.043161,-161.029438,188.495600,1613.675101,-9.837791,0
0.083333,-123.562749,-57.188107,189.866099,6.479388,4.016380,2.082013,-5.699471,-3.929247,-1.916656,5.548787,-0.274560,0.461020,-0.069301,-114.138179,188.495707,1613.571221,-11.291154,0
0.084375,-46.785363,-116.577832,196.279925,6.671658,1.999822,4.137739,-5.677083,-1.914936,-3.939462,5.484745,-0.248989,0.456839,-0.054364,-38.101051,188.420327,1613.743567,-11.756988,0
0.085417,19.885855,-165.034337,165.232576,6.038298,-0.094842,5.324346,-4.636031,0.257432,-5.269814,4.541916,-0.238030,0.429795,-0.069301,25.924858,188.495792,1612.929025,-13.001244,0
0.086458,70.825025,-196.686306,92.304546,4.703718,-2.569386,5.864073,-2.658405,2.613588,-5.752433,2.684720,-0.172276,0.445669,-0.046895,75.134667,188.495636,1613.574218,-13.106508,0
0.087500,131.110415,-188.567939,23.820644,3.403068,-4.191863,5.395780,-0.691973,4.374272,-5.446075,0.784830,-0.154011,0.446518,-0.054364,134.285966,188.495747,1613.143427,-13.569680,0
0.088542,175.879264,-138.842938,-38.237121,2.181588,-5.384757,4.189331,1.658790,5.517430,-4.224837,-1.406804,-0.106522,0.445081,-0.031958,179.842645,188.420278,1613.715274,-14.053246,0
0.089583,196.772150,-65.378960,-93.585606,1.107138,-5.732684,2.248693,3.614028,6.002629,-2.357309,-3.434776,-0.088257,0.445016,-0.024490,192.849144,188.495761,1613.527062,-14.678058,0
0.090625,168.381872,-2.087104,-158.007008,-0.080412,-5.256947,0.224716,5.058068,5.388779,-0.334503,-4.744064,-0.062686,0.448674,-0.050629,165.614665,188.495694,1613.480125,-15.157392,0
0.091667,122.093127,58.148283,-189.780682,-0.702462,-3.890090,-1.946100,5.584191,4.135348,1.885548,-5.395150,-0.026156,0.464286,-0.058098,118.225766,188.495647,1612.611460,-15.495978,0
0.092708,45.701386,116.716506,-196.219129,-0.792942,-1.951638,-4.073261,5.580460,2.172498,3.904157,-5.345340,0.021333,0.455076,-0.058098,43.285707,188.420318,1612.540255,-14.482411,0
0.093750,-19.540677,165.402549,-165.393372,-0.250062,0.143027,-5.236056,4.468512,0.069969,5.251295,-4.406069,-0.048074,0.447890,-0.046895,-20.253871,188.495669,1612.370383,-14.641670,0
0.094792,-71.035629,196.365906,-92.908523,1.129758,2.663724,-5.767846,2.487154,-2.359702,5.717128,-2.527525,-0.110175,0.445669,-0.035692,-70.379790,188.495691,1612.567408,-14.354318,0
0.095833,-131.763376,188.924069,-23.759849,2.385168,4.250698,-5.271773,0.502065,-4.124062,5.406573,-0.624077,-0.143052,0.441031,-0.054364,-129.372749,188.495644,1612.531329,-14.636791,0
0.096875,-175.976443,138.582942,38.950379,3.629268,5.489746,-4.033575,-1.785264,-5.267220,4.151762,1.606693,-0.175929,0.439463,-0.028224,-174.861568,188.420332,1612.517326,-14.881597,0
0.097917,-197.368399,64.297463,93.917235,4.692408,5.869625,-2.140560,-3.789010,-5.759771,2.317807,3.631107,-0.216112,0.447237,-0.050629,-188.331777,188.495617,1612.374160,-14.547985,0
0.098958,-168.263543,1.259306,158.092425,5.913888,5.347734,-0.128488,-5.173348,-5.175327,0.315985,4.858564,-0.259948,0.466246,-0.028224,-160.622278,188.495705,1611.280123,-13.864521,0
0.100000,-122.564609,-57.755910,190.100001,6.502008,4.009280,2.054233,-5.688277,-3.962329,-1.912459,5.555902,-0.270907,0.443905,-0.020755,-114.228659,188.495683,1611.499271,-13.078276,0
0.101042,-47.148323,-116.650317,195.873675,6.649038,2.053076,4.125833,-5.650964,-1.936991,-3.918479,5.459841,-0.245336,0.466703,-0.031958,-39.356461,188.495808,1611.051670,-12.782368,0
0.102083,18.638180,-165.505493,165.417235,6.060918,-0.069990,5.304503,-4.583792,0.176566,-5.236240,4.559705,-0.241683,0.454422,-0.046895,25.302808,188.495653,1610.994992,-11.984814,0
0.103125,71.085902,-196.215151,92.390720,4.647168,-2.565836,5.879948,-2.639748,2.573155,-5.769220,2.681162,-0.190541,0.445081,-0.028224,75.507897,188.495671,1610.844826,-11.556270,0
0.104167,131.348608,-188.749152,22.798864,3.346518,-4.145710,5.407686,-0.662122,4.348542,-5.433485,0.777714,-0.172276,0.441227,-0.046895,134.172866,188.495644,1610.547953,-11.103602,0
0.105208,175.493619,-137.767737,-39.271212,2.192898,-5.374106,4.189331,1.625208,5.506403,-4.245821,-1.417477,-0.164970,0.437569,-0.035692,179.706925,188.495649,1610.317264,-10.463794,0
0.106250,196.828863,-63.880928,-93.967235,1.118448,-5.768187,2.284411,3.584177,5.984251,-2.353112,-3.445450,-0.084604,0.444428,-0.046895,192.939624,188.495776,1610.032277,-10.036775,0
0.107292,168.064282,-2.062942,-158.597917,-0.103032,-5.274698,0.220747,5.002097,5.425537,-0.338700,-4.754738,-0.048074,0.449458,-0.084238,165.637285,188.495644,1610.595909,-9.710789,0
0.108333,123.238720,57.785856,-189.891478,-0.713772,-3.918492,-1.958006,5.561803,4.194160,1.881351,-5.423613,-0.018850,0.458081,-0.058098,119.209736,188.495734,1611.642303,-9.632729,0
0.109375,46.835636,117.646735,-196.034470,-0.838182,-1.958738,-4.077229,5.539415,2.150443,3.870583,-5.306204,-0.029809,0.462131,-0.017021,43.036888,188.495691,1611.149812,-9.805446,0
0.110417,-19.790212,165.607924,-165.085607,-0.261372,0.164328,-5.240024,4.438661,0.003805,5.276475,-4.406069,-0.080951,0.463307,-0.099175,-21.339631,188.495642,1611.455111,-10.506100,0
