1-Time,2-VGERA,3-VGERB,4-VGERC,5-VN,6-IGERAN,7-IGERBN,8-IGERCN,9-IGERAT,10-IGERBT,11-IGERCT,12-IN,13-IFD,14-IFAULT,15-VFAULT,16-Speed (rad/s),17-FAULT 
0.000000,192.144410,-97.332951,-23.550568,2.475648,-4.859316,-1.013483,5.849118,5.388779,0.987455,-5.537464,0.003068,0.190379,-0.073035,-3.933541,188.420414,0
0.001042,183.603507,-51.908752,-99.568561,1.027968,-3.247489,-3.192235,6.110314,3.892749,3.194916,-5.932385,0.010374,0.193906,-0.050629,12.680848,188.495696,0
0.002083,139.254330,-8.634954,-175.303410,-0.431022,-1.277085,-4.747920,5.580460,1.812274,4.739299,-5.377361,0.035945,0.220298,-0.039427,37.347958,188.495727,0
0.003125,87.033458,44.895531,-201.709660,-0.906042,1.421127,-5.652757,3.733432,-0.753399,5.733915,-3.754983,-0.026156,0.202856,-0.043161,47.289447,188.420283,0
0.004167,41.300496,127.480591,-175.303410,-0.464952,3.647151,-6.121050,2.031927,-3.043392,6.212338,-1.972501,-0.088257,0.194168,-0.061832,54.437367,188.420296,0
0.005208,-0.564673,184.768238,-122.084659,0.586878,5.049511,-4.962224,-0.464359,-4.517367,5.221918,0.293847,-0.113828,0.191881,-0.050629,43.930377,188.495655,0
0.006250,-64.649801,196.341744,-67.031629,1.582158,6.391516,-3.466067,-3.094975,-5.759771,3.635569,2.891075,-0.197847,0.184238,-0.058098,24.895648,188.495655,0
0.007292,-141.722092,161.645388,-22.688826,2.464338,6.249505,-1.378592,-4.803943,-5.770798,1.621156,4.616631,-0.197847,0.184565,-0.024490,13.789228,188.344847,0
0.008333,-193.046907,97.966943,23.549811,3.357828,5.092114,1.240673,-5.971861,-4.539422,-0.913646,5.708890,-0.245336,0.192273,-0.054364,9.163438,188.495620,0
0.009375,-183.609946,52.409854,99.493940,4.782888,3.498039,3.367834,-6.244251,-3.065446,-3.095927,6.114484,-0.267254,0.197238,-0.061832,-7.066411,188.495667,0
0.010417,-139.453592,8.979004,175.671970,6.241878,1.485032,4.891770,-5.662158,-0.995999,-4.661293,5.552345,-0.234377,0.210042,-0.035692,-32.242471,188.495644,0
0.011458,-87.663735,-44.418592,201.450379,6.682968,-1.238032,5.903759,-3.856175,1.617460,-5.710466,3.887272,-0.219765,0.220885,-0.017021,-43.213171,188.344952,0
0.012500,-41.340963,-127.329836,175.708902,6.253188,-3.506660,6.368083,-2.117356,3.973615,-6.193086,2.136812,-0.168623,0.195147,-0.035692,-49.207470,188.495629,0
0.013542,0.127219,-184.267137,122.059281,5.246598,-4.877067,5.141791,0.412512,5.418185,-5.160700,-0.133095,-0.135746,0.196846,-0.035692,-37.173631,188.495745,0
0.014583,64.201005,-196.577578,67.117046,4.217388,-6.222622,3.665478,3.009546,6.689995,-3.561760,-2.762343,-0.066339,0.179927,-0.058098,-21.317011,188.495039,0
0.015625,141.205240,-161.337581,23.155871,3.369138,-6.084162,1.542285,4.711051,6.730428,-1.606101,-4.438089,-0.015197,0.186786,-0.013287,-9.237931,188.270018,0
0.016667,192.745563,-97.659136,-23.365909,2.453028,-4.930321,-0.934111,5.849118,5.462294,0.966472,-5.537464,0.021333,0.194364,-0.073035,-3.809131,188.496275,0
0.017708,183.285917,-52.198694,-99.371591,1.027968,-3.297193,-3.140644,6.158822,3.940534,3.157146,-5.960848,-0.007891,0.199263,-0.046895,12.036178,188.496241,0
0.018750,139.208960,-8.864491,-175.512690,-0.431022,-1.337440,-4.716171,5.595385,1.849032,4.709922,-5.427171,0.010374,0.210760,-0.020755,37.461058,188.496230,0
0.019792,87.600583,44.714318,-201.611175,-0.872112,1.371423,-5.688474,3.822985,-0.738696,5.733915,-3.776330,-0.029809,0.209911,-0.054364,47.787087,188.345429,0
0.020833,41.481976,127.299378,-175.623485,-0.408402,3.640051,-6.125019,2.024464,-3.025013,6.199748,-2.000964,-0.099216,0.207233,-0.039427,53.973657,188.496196,0
0.021875,-0.258426,184.731995,-122.072349,0.586878,5.074363,-4.966192,-0.408389,-4.513692,5.247099,0.254711,-0.117481,0.196781,-0.058098,44.982207,188.496076,0
0.022917,-64.264156,196.607524,-67.043940,1.616088,6.377315,-3.470036,-3.061393,-5.719338,3.635569,2.862612,-0.190541,0.180449,-0.039427,26.004028,188.496177,0
0.023958,-141.733434,161.838682,-22.971970,2.453028,6.231754,-1.346844,-4.800211,-5.800204,1.679910,4.581052,-0.256295,0.186394,-0.043161,14.241628,188.345362,0
0.025000,-192.922139,98.027347,23.180492,3.357828,5.074363,1.185113,-5.953205,-4.513692,-0.875876,5.673311,-0.238030,0.193645,-0.061832,9.570598,188.496065,0
0.026042,-183.780084,52.639391,99.530872,4.782888,3.469637,3.379740,-6.266640,-3.113231,-3.108517,6.114484,-0.241683,0.207167,-0.024490,-8.016451,188.496315,0
0.027083,-139.532989,9.148136,175.536554,6.230568,1.552487,4.871927,-5.688277,-1.051135,-4.673883,5.598597,-0.230724,0.212067,-0.013287,-32.129371,188.496154,0
0.028125,-87.720447,-44.309864,201.770455,6.694278,-1.159926,5.856136,-3.908414,1.599081,-5.718860,3.937082,-0.248989,0.207037,-0.028224,-44.559061,188.345332,0
0.029167,-41.488415,-126.991571,175.782766,6.241878,-3.481808,6.340303,-2.091237,3.940534,-6.163709,2.154601,-0.128440,0.195409,-0.054364,-49.184850,188.496138,0
0.030208,-0.099631,-184.641645,122.194697,5.246598,-4.877067,5.165602,0.326691,5.421861,-5.223650,-0.111747,-0.113828,0.199328,-0.061832,-38.711791,188.496038,0
0.031250,64.087580,-196.372202,67.560227,4.217388,-6.258125,3.685321,2.927456,6.656913,-3.603727,-2.726765,-0.051727,0.187178,-0.054364,-21.011641,188.495969,0
0.032292,141.386720,-161.542956,23.266667,3.357828,-6.123215,1.593877,4.714782,6.712049,-1.606101,-4.427416,-0.018850,0.187243,-0.050629,-8.853391,188.345283,0
0.033333,192.779590,-97.683298,-23.045833,2.486958,-4.948072,-0.965860,5.830462,5.488024,0.903522,-5.533906,-0.004238,0.195278,-0.035692,-4.159741,188.496159,0
0.034375,183.342630,-52.464474,-99.297728,1.016658,-3.368199,-3.192235,6.225987,3.977291,3.178129,-6.028447,-0.011544,0.199851,-0.054364,12.556438,188.496179,0
0.035417,139.061508,-9.371889,-175.894319,-0.431022,-1.319688,-4.739983,5.658819,1.918871,4.756086,-5.462749,0.032292,0.212851,-0.058098,37.359268,188.496208,0
0.036458,87.679981,44.460619,-201.771213,-0.894732,1.350121,-5.700380,3.864030,-0.705615,5.822045,-3.822582,-0.029809,0.205926,-0.054364,47.334687,188.420819,0
0.037500,41.799566,127.770533,-175.438826,-0.408402,3.654252,-6.188516,2.121480,-3.069122,6.275288,-2.057890,-0.066339,0.196389,-0.054364,54.618327,188.496275,0
0.038542,0.161247,184.683672,-122.096970,0.575568,5.081464,-5.057470,-0.412120,-4.513692,5.331032,0.240479,-0.124787,0.197042,-0.054364,43.851207,188.496098,0
0.039583,-64.604431,196.752495,-67.327084,1.627398,6.466072,-3.529565,-3.076318,-5.822259,3.727896,2.908864,-0.172276,0.179861,-0.024490,24.861718,188.496201,0
0.040625,-141.608667,161.427931,-23.439773,2.419098,6.338262,-1.354781,-4.818868,-5.851665,1.713483,4.627304,-0.212459,0.186459,-0.031958,14.015428,188.420850,0
0.041667,-193.863567,97.894457,23.032765,3.289968,5.180871,1.212893,-5.994250,-4.612937,-0.875876,5.733795,-0.252642,0.193514,-0.035692,9.423568,188.496317,0
0.042708,-183.258329,52.796443,99.432387,4.760268,3.522891,3.407520,-6.337536,-3.120582,-3.112713,6.182083,-0.201500,0.198414,-0.058098,-6.964621,188.496141,0
0.043750,-138.931837,9.800505,176.349054,6.241878,1.545386,4.955267,-5.770368,-1.058487,-4.732637,5.662638,-0.248989,0.206971,-0.069301,-32.287711,188.496201,0
0.044792,-88.230860,-43.971598,201.388826,6.682968,-1.181227,5.947413,-3.941996,1.621135,-5.739843,3.972661,-0.205153,0.196258,-0.043161,-43.303651,188.420819,0
0.045833,-41.885403,-127.800991,175.782766,6.253188,-3.485358,6.451424,-2.154670,3.936858,-6.226660,2.211526,-0.164970,0.208474,-0.050629,-49.331880,188.496138,0
0.046875,-0.451248,-184.206732,121.973106,5.280528,-4.905469,5.260848,0.300571,5.440240,-5.198470,-0.129537,-0.150358,0.197695,-0.039427,-37.083151,188.496199,0
0.047917,64.223690,-196.903762,67.535606,4.217388,-6.290078,3.721038,2.953575,6.701022,-3.696054,-2.719649,-0.080951,0.182736,-0.031958,-21.237841,188.496210,0
0.048958,140.978390,-160.926830,23.857576,3.391758,-6.126765,1.589908,4.718513,6.767186,-1.643871,-4.470110,-0.026156,0.186851,-0.031958,-9.407581,188.345415,0
0.050000,193.539538,-97.598731,-22.713447,2.453028,-5.026179,-0.969828,5.901358,5.543161,0.945488,-5.587274,0.028639,0.194429,-0.065566,-4.080571,188.496246,0
0.051042,182.843560,-52.694011,-99.248485,1.027968,-3.364648,-3.192235,6.211061,4.014049,3.194916,-6.081814,-0.007891,0.199590,-0.043161,11.900458,188.495043,0
0.052083,139.004795,-9.794721,-176.325190,-0.442332,-1.372942,-4.739983,5.681207,1.918871,4.760282,-5.509001,-0.000585,0.210760,-0.054364,37.585468,188.496268,0
0.053125,88.167708,44.315648,-201.500379,-0.883422,1.364322,-5.736097,3.830447,-0.694587,5.813652,-3.829697,-0.059033,0.204162,-0.039427,47.787087,188.420942,0
0.054167,41.584059,127.939666,-175.734281,-0.431022,3.650701,-6.236139,2.072972,-3.050743,6.317255,-2.061448,-0.102869,0.193514,-0.069301,54.222477,188.496210,0
0.055208,0.546892,184.659510,-121.900000,0.552948,5.085014,-5.057470,-0.449434,-4.554125,5.276475,0.265384,-0.135746,0.204816,-0.031958,44.835177,188.496036,0
0.056250,-64.547719,196.945789,-67.487121,1.582158,6.469622,-3.521628,-3.083781,-5.789177,3.732092,2.919538,-0.186888,0.178882,-0.024490,25.981408,188.494401,0
0.057292,-141.688064,161.415851,-23.710606,2.419098,6.316960,-1.366687,-4.822600,-5.859016,1.700893,4.627304,-0.208806,0.187308,-0.039427,14.433898,188.420301,0
0.058333,-193.863567,97.821972,22.774242,3.312588,5.191522,1.165270,-5.971861,-4.623964,-0.871680,5.737353,-0.248989,0.194560,-0.065566,9.785488,188.495636,0
0.059375,-183.371754,53.183032,99.370834,4.771578,3.540643,3.427363,-6.344998,-3.113231,-3.121107,6.235451,-0.267254,0.199263,-0.043161,-7.982521,188.495671,0
0.060417,-139.022577,10.235418,176.435228,6.241878,1.531185,4.951299,-5.789024,-1.069514,-4.736834,5.644849,-0.227071,0.219252,-0.050629,-32.276401,188.495915,0
0.061458,-88.253545,-43.959518,201.511932,6.694278,-1.184778,5.919633,-3.953190,1.565999,-5.773417,3.994008,-0.175929,0.206057,-0.054364,-44.604301,188.420233,0
0.062500,-42.066883,-127.825153,175.684281,6.253188,-3.488908,6.459361,-2.150939,3.973615,-6.243446,2.215084,-0.168623,0.198414,-0.013287,-49.218780,188.495772,0
0.063542,-0.621386,-184.593321,121.899243,5.246598,-4.930321,5.256880,0.326691,5.425537,-5.248830,-0.097516,-0.124787,0.194102,-0.095440,-38.553451,188.495667,0
0.064583,64.314430,-196.831277,67.781818,4.194768,-6.304279,3.756755,3.009546,6.781889,-3.662480,-2.740996,-0.073645,0.181952,-0.069301,-20.864611,188.495588,0
0.065625,141.205240,-160.999316,23.980682,3.369138,-6.187120,1.546254,4.722245,6.818646,-1.648068,-4.495015,-0.029809,0.188027,-0.050629,-8.966491,188.420330,0
0.066667,193.879813,-97.526246,-22.676515,2.498268,-5.022628,-0.934111,5.882701,5.594621,0.953882,-5.626410,-0.022503,0.196193,-0.076769,-4.408561,188.495788,0
0.067708,182.764162,-52.947710,-99.199243,1.050588,-3.361098,-3.223984,6.323002,4.006697,3.220096,-6.085372,0.039598,0.197368,-0.058098,12.420718,188.495810,0
0.068750,138.517068,-10.435009,-176.866857,-0.442332,-1.365842,-4.775700,5.737177,1.893141,4.819036,-5.555253,-0.018850,0.202986,-0.084238,37.404508,188.495750,0
0.069792,87.929516,44.182758,-201.525001,-0.872112,1.382074,-5.755940,3.901343,-0.760751,5.838832,-3.829697,-0.062686,0.202856,-0.028224,47.504337,188.495580,0
0.070833,42.117156,128.531630,-175.512690,-0.408402,3.718157,-6.279793,2.102823,-3.120582,6.363419,-2.061448,-0.080951,0.195082,-0.039427,54.821907,188.495796,0
0.071875,0.955222,184.562863,-121.727652,0.575568,5.152469,-5.065407,-0.449434,-4.598234,5.360409,0.276058,-0.154011,0.195147,-0.050629,43.613697,188.495756,0
0.072917,-64.933364,197.175326,-67.573296,1.593468,6.547728,-3.533533,-3.102438,-5.873719,3.761469,2.926654,-0.183235,0.178490,-0.065566,24.782548,188.495729,0
0.073958,-141.381817,160.715158,-24.006061,2.407788,6.391516,-1.358749,-4.852451,-5.899449,1.705090,4.684230,-0.219765,0.185806,-0.050629,14.207698,188.420477,0
0.075000,-194.680227,97.737406,22.663447,3.323898,5.244776,1.197019,-6.057683,-4.712182,-0.867483,5.812067,-0.230724,0.194233,-0.043161,9.683698,188.495812,0
0.076042,-182.736574,53.400488,99.247728,4.816818,3.551294,3.435300,-6.419626,-3.157340,-3.205041,6.239009,-0.241683,0.199198,-0.065566,-6.919381,188.495651,0
0.077083,-138.591562,10.791139,177.186175,6.264498,1.538286,5.030671,-5.841264,-1.073190,-4.795587,5.712448,-0.259948,0.206187,-0.054364,-32.378191,188.495669,0
0.078125,-88.094750,-43.693738,201.241099,6.705588,-1.213180,5.983131,-3.971847,1.602757,-5.827974,3.983334,-0.227071,0.200700,-0.043161,-43.394131,188.420390,0
0.079167,-42.373130,-128.429198,175.795076,6.275808,-3.531511,6.471266,-2.184521,3.999346,-6.306397,2.243547,-0.150358,0.193580,-0.043161,-49.422360,188.495613,0
0.080208,-1.404018,-184.170489,121.689962,5.212668,-5.001327,5.256880,0.352811,5.506403,-5.303387,-0.125979,-0.121134,0.197107,-0.031958,-36.913501,188.495609,0
0.081250,64.450540,-197.350756,67.966477,4.206078,-6.371734,3.748818,3.005815,6.800267,-3.733824,-2.776575,-0.091910,0.181821,-0.054364,-21.124741,188.495694,0
0.082292,140.933020,-160.274461,24.830114,3.414378,-6.222622,1.581971,4.800603,6.837025,-1.648068,-4.541267,-0.026156,0.185937,-0.039427,-9.690331,188.420341,0
0.083333,194.492308,-97.586650,-22.294886,2.498268,-5.093634,-0.989671,6.020761,5.601973,0.941292,-5.676220,0.014027,0.194886,-0.058098,-4.408561,188.495653,0
0.084375,182.310462,-53.201409,-99.113068,1.039278,-3.385950,-3.235890,6.304346,4.025076,3.211703,-6.099604,0.014027,0.205273,-0.065566,11.832598,188.495712,0
0.085417,138.290218,-10.664546,-177.310038,-0.521502,-1.401345,-4.827292,5.755834,1.948277,4.827429,-5.608621,-0.022503,0.208539,-0.024490,37.732498,188.495772,0
0.086458,88.133681,44.025706,-201.266478,-0.883422,1.364322,-5.755940,3.893881,-0.753399,5.889193,-3.858160,-0.007891,0.203901,-0.043161,47.922807,188.420356,0
0.087500,42.332664,128.519549,-175.660417,-0.431022,3.700405,-6.287730,2.121480,-3.087501,6.396992,-2.097026,-0.066339,0.194037,-0.061832,54.493917,188.495709,0
0.088542,1.476977,184.514539,-121.579925,0.575568,5.134718,-5.101124,-0.434509,-4.620288,5.372999,0.283174,-0.106522,0.199198,-0.050629,44.665527,188.495680,0
0.089583,-64.593089,197.416945,-67.819508,1.582158,6.547728,-3.545439,-3.132289,-5.884746,3.761469,2.948001,-0.161317,0.181821,-0.043161,25.879618,188.495787,0
0.090625,-141.427187,160.703077,-24.572349,2.441718,6.384416,-1.378592,-4.912152,-5.921504,1.658926,4.694903,-0.223418,0.184695,-0.076769,14.648788,188.495778,0
0.091667,-194.839022,97.580354,22.244886,3.301278,5.205723,1.216862,-6.072608,-4.704831,-0.892663,5.801394,-0.238030,0.192534,-0.031958,10.045618,188.495671,0
0.092708,-182.793286,53.617944,99.124622,4.771578,3.529992,3.478954,-6.397238,-3.120582,-3.221828,6.228335,-0.256295,0.195931,-0.031958,-7.846801,188.495741,0
0.093750,-138.421424,11.213971,177.457008,6.264498,1.516984,5.042576,-5.815144,-1.069514,-4.808177,5.762258,-0.212459,0.212067,-0.054364,-32.479981,188.495712,0
0.094792,-88.242202,-43.609171,201.278031,6.660348,-1.213180,6.014879,-3.956922,1.621135,-5.802794,3.969103,-0.263601,0.208343,-0.054364,-44.672161,188.495653,0
0.095833,-42.543268,-128.417117,175.647349,6.253188,-3.538612,6.479204,-2.173327,4.047130,-6.348364,2.190179,-0.186888,0.189334,-0.058098,-49.320570,188.495729,0
0.096875,-1.585498,-184.484593,121.603788,5.303148,-4.965824,5.296566,0.390124,5.480673,-5.307584,-0.143768,-0.139399,0.193580,-0.035692,-38.417731,188.495680,0
0.097917,64.450540,-197.350756,68.028031,4.228698,-6.375284,3.752787,3.050591,6.848052,-3.696054,-2.787248,-0.051727,0.179731,-0.039427,-20.762821,188.495622,0
0.098958,140.853623,-160.407351,24.854735,3.391758,-6.208421,1.605783,4.804335,6.848052,-1.614494,-4.605308,-0.022503,0.186198,-0.054364,-9.170071,188.495758,0
0.100000,194.673788,-97.272547,-22.122538,2.475648,-5.047480,-0.997608,5.983448,5.598297,0.949685,-5.654873,0.024986,0.194233,-0.046895,-4.691311,188.495830,0
0.101042,182.231065,-53.406784,-98.965341,1.061898,-3.389500,-3.263670,6.326734,3.995670,3.266260,-6.135182,0.014027,0.196715,-0.039427,12.307618,188.495736,0
0.102083,138.052025,-11.473967,-177.728599,-0.453642,-1.362291,-4.863009,5.770760,1.929898,4.881986,-5.597947,-0.004238,0.212001,-0.031958,37.438438,188.495834,0
0.103125,88.122338,43.735765,-201.364963,-0.894732,1.396275,-5.855155,3.901343,-0.786481,5.931159,-3.836813,-0.029809,0.194364,-0.039427,47.673987,188.495720,0
0.104167,42.502801,128.930300,-175.549622,-0.431022,3.760760,-6.319479,2.102823,-3.149988,6.409582,-2.068563,-0.066339,0.186329,-0.046895,54.991557,188.495778,0
0.105208,1.726512,184.562863,-121.296781,0.598188,5.205723,-5.089218,-0.486748,-4.649694,5.410770,0.311636,-0.106522,0.190379,-0.043161,43.432737,188.495720,0
0.106250,-64.876651,197.477349,-67.979546,1.582158,6.597432,-3.589093,-3.147214,-5.947234,3.820223,2.972906,-0.175929,0.179012,-0.076769,24.737308,188.495649,0
0.107292,-141.200337,160.268165,-24.978599,2.419098,6.427019,-1.354781,-4.949466,-5.950910,1.688303,4.709135,-0.208806,0.186067,-0.035692,14.501758,188.344947,0
0.108333,-195.474202,97.604516,22.158712,3.301278,5.294480,1.216862,-6.113654,-4.752615,-0.859089,5.854762,-0.241683,0.193906,-0.061832,9.943828,188.495712,0
0.109375,-182.192134,53.883724,99.124622,4.737648,3.586796,3.530546,-6.479328,-3.131610,-3.196647,6.281703,-0.256295,0.198675,-0.046895,-6.817591,188.495627,0
0.110417,-138.273972,11.878421,177.814016,6.264498,1.598641,5.114011,-5.904697,-1.040108,-4.871128,5.808510,-0.230724,0.209519,-0.046895,-32.389501,188.495785,0
0.111458,-88.457710,-43.367553,201.044129,6.694278,-1.248683,6.082345,-3.968116,1.650541,-5.848957,4.058049,-0.186888,0.198348,-0.061832,-43.473301,188.420283,0
0.112500,-42.452528,-129.033244,175.795076,6.253188,-3.581215,6.554607,-2.184521,4.039779,-6.381937,2.215084,-0.146705,0.195409,-0.054364,-49.558080,188.495664,0
0.113542,-1.948458,-184.098004,121.308334,5.246598,-5.001327,5.300534,0.360273,5.546836,-5.320174,-0.140210,-0.102869,0.189529,-0.073035,-36.766471,188.420283,0
0.114583,64.688732,-197.604455,68.200379,4.240008,-6.414337,3.788504,3.054322,6.870107,-3.738021,-2.808595,-0.040768,0.179469,-0.043161,-21.011641,188.495492,0
0.115625,140.796910,-159.899953,25.334849,3.403068,-6.254575,1.593877,4.849111,6.881134,-1.639674,-4.555498,-0.033462,0.186067,-0.065566,-9.792121,188.420300,0
0.116667,195.172858,-97.248385,-21.999432,2.498268,-5.129137,-0.926174,6.028224,5.638730,0.945488,-5.733145,0.039598,0.195409,-0.043161,-4.578211,188.495767,0
0.117708,181.868105,-53.430946,-98.953031,1.005348,-3.425003,-3.275575,6.356585,4.076536,3.249473,-6.113835,0.024986,0.196781,-0.035692,11.753428,188.420265,0
0.118750,138.029340,-11.763908,-177.827084,-0.442332,-1.387143,-4.874915,5.815536,1.907844,4.915560,-5.654873,0.014027,0.209323,-0.039427,37.822978,188.496243,0
0.119792,88.417243,43.578713,-201.057198,-0.883422,1.414026,-5.874998,3.923732,-0.801184,5.939553,-3.879507,-0.026156,0.196650,-0.073035,47.990667,188.495197,0
0.120833,42.843076,128.712843,-175.611175,-0.408402,3.750109,-6.351228,2.095360,-3.161016,6.476730,-2.111257,-0.040768,0.199263,-0.043161,54.618327,188.495206,0
0.121875,2.168869,184.369568,-121.370644,0.609498,5.180871,-5.113030,-0.468091,-4.671749,5.402376,0.268942,-0.128440,0.193841,-0.061832,44.518497,188.419826,0
0.122916,-64.661144,197.646482,-68.016477,1.582158,6.586782,-3.561313,-3.165871,-5.936207,3.807633,2.948001,-0.172276,0.177771,-0.058098,25.811758,188.495246,0
0.123958,-141.291077,160.316488,-25.237121,2.407788,6.409268,-1.382561,-4.968123,-5.961937,1.692500,4.719808,-0.234377,0.186655,-0.054364,14.795818,188.419837,0
0.125000,-195.508229,97.628677,21.814015,3.323898,5.280279,1.228767,-6.109922,-4.745264,-0.930433,5.872551,-0.230724,0.194298,-0.028224,10.215268,188.495244,0
0.126042,-182.509724,53.871643,99.149243,4.782888,3.579696,3.486891,-6.434551,-3.149988,-3.213434,6.292377,-0.238030,0.199263,-0.054364,-7.790251,188.419934,0
0.127083,-138.262629,12.204605,178.010985,6.298428,1.534736,5.086231,-5.927085,-1.054811,-4.837554,5.748026,-0.248989,0.212785,-0.076769,-32.570461,188.495320,0
