1-Time,2-VGERA,3-VGERB,4-VGERC,5-VN,6-IGERAN,7-IGERBN,8-IGERCN,9-IGERAT,10-IGERBT,11-IGERCT,12-IN,13-IFD,14-IFAULT,15-VFAULT,16-Speed (rad/s),17-Active Power,18-Reactive Power,19-FAULT 
0.000000,160.884479,-169.129764,-9.971970,2.713158,-4.887718,5.026702,0.419975,4.969744,-5.013815,-0.271851,-0.146705,0.441553,-0.039427,160.717435,188.495841,1604.501330,1.976856,0
0.001042,182.798190,-108.846053,-67.893371,1.627398,-5.473514,3.205122,2.632678,5.653433,-3.276385,-2.381654,-0.099216,0.439398,-0.076769,182.036784,188.492092,1603.501047,1.475353,0
0.002083,191.724738,-31.020869,-128.843182,0.473778,-5.658128,1.359731,4.367765,5.771057,-1.396266,-4.189040,-0.062686,0.445734,-0.080503,188.868024,188.495300,1603.690677,1.259865,0
0.003125,152.944728,34.795896,-170.022160,-0.329232,-4.685352,-0.771399,5.322995,4.877850,0.597163,-5.042923,-0.037115,0.472583,-0.073035,147.450805,188.495197,1602.760414,1.847952,0
0.004167,79.331900,84.702110,-203.100758,-0.928662,-2.998970,-3.188267,5.830462,3.220087,3.136162,-5.644199,-0.022503,0.443578,-0.061832,75.960297,188.570595,1603.422355,1.981566,0
0.005208,19.908540,145.698594,-179.587501,-0.521502,-0.989512,-4.545522,5.031948,1.213127,4.474907,-4.865031,-0.040768,0.455860,-0.039427,17.702488,188.495269,1603.557696,1.725633,0
0.006250,-42.237020,192.053023,-130.086553,0.439848,1.360772,-5.628946,3.651342,-1.132002,5.633194,-3.609111,-0.044421,0.449000,-0.039427,-43.054831,188.495151,1604.501584,1.236355,0
0.007292,-98.019437,195.846427,-54.327084,1.853598,3.476738,-5.494014,1.490878,-3.274964,5.599621,-1.534886,-0.077298,0.437960,-0.084238,-97.930949,188.495258,1604.699502,0.595792,0
0.008333,-160.550643,169.413409,11.670076,3.109008,5.060162,-4.847135,-0.602420,-4.837158,4.978510,0.542896,-0.172276,0.434106,-0.069301,-155.306578,188.570578,1605.425436,-0.125748,0
0.009375,-183.303699,107.800799,68.434281,4.194768,5.681461,-3.085083,-2.815123,-5.491441,3.232686,2.620679,-0.172276,0.442076,-0.061832,-177.937888,188.495209,1605.320101,-1.314268,0
0.010417,-192.275617,32.343472,129.396402,5.359698,5.766667,-1.180163,-4.539015,-5.590686,1.360961,4.335561,-0.241683,0.439332,-0.091706,-184.214938,188.495275,1605.643286,-1.559426,0
0.011458,-153.302785,-33.243756,170.944697,6.140088,4.793891,0.931123,-5.475589,-4.682776,-0.678632,5.214349,-0.241683,0.457297,-0.046895,-142.311388,188.495188,1605.937290,-1.199769,0
0.012500,-79.723984,-84.442627,203.395455,6.762138,3.047154,3.336085,-5.915891,-2.984580,-3.167270,5.780047,-0.234377,0.454226,-0.043161,-70.085730,188.570705,1606.866965,-1.351332,0
0.013542,-18.792072,-145.692810,179.402084,6.298428,1.023496,4.701278,-5.143497,-0.940863,-4.510212,4.990205,-0.238030,0.429468,-0.069301,-11.228491,188.495215,1607.080640,-2.939225,0
0.014583,42.922474,-192.023077,129.531819,5.382318,-1.248683,5.709298,-3.759159,1.396915,-5.634926,3.759190,-0.201500,0.448478,-0.091706,48.476997,188.495275,1607.259603,-4.265277,0
0.015625,98.115081,-195.369487,54.350947,3.945948,-3.385950,5.637864,-1.654666,3.506795,-5.639123,1.731217,-0.139399,0.443056,-0.065566,103.228706,188.495224,1607.604230,-4.308112,0
0.016667,160.805081,-169.166007,-10.858333,2.690538,-4.898369,4.983048,0.416244,5.054286,-4.984438,-0.303871,-0.124787,0.439724,-0.061832,160.559095,188.570624,1608.167918,-5.081765,0
0.017708,182.843560,-108.435302,-68.238068,1.604778,-5.501916,3.209091,2.684917,5.682839,-3.272188,-2.392327,-0.091910,0.444232,-0.065566,182.602284,188.495211,1608.509948,-5.057438,0
0.018750,191.690710,-31.395377,-129.434091,0.473778,-5.633276,1.304170,4.356570,5.855599,-1.396266,-4.196156,-0.069992,0.444493,-0.091706,188.573964,188.495193,1609.695118,-4.865639,0
0.019792,152.400288,35.182485,-170.453031,-0.295302,-4.617897,-0.799179,5.267025,4.903580,0.693687,-5.039365,-0.033462,0.417579,-0.069301,146.342425,188.495796,1610.073071,-5.511606,0
0.020833,77.812005,85.342398,-203.186932,-0.939972,-2.970567,-3.204141,5.778222,3.172302,3.119375,-5.601505,-0.000585,0.461477,-0.031958,74.399517,188.495749,1609.034078,-5.171218,0
0.021875,18.059713,146.036860,-179.107387,-0.487572,-0.971761,-4.517742,4.972246,1.227830,4.428743,-4.882820,-0.048074,0.455337,-0.050629,16.808998,188.495671,1608.636760,-3.784494,0
0.022917,-42.622665,192.173832,-129.840341,0.428538,1.357222,-5.597197,3.647610,-1.139353,5.578637,-3.626900,-0.066339,0.447825,-0.054364,-43.122691,188.498588,1608.186894,-3.349299,0
0.023958,-98.665960,195.339029,-54.425568,1.842288,3.455436,-5.478139,1.490878,-3.238206,5.566047,-1.581138,-0.117481,0.441945,-0.058098,-98.473829,188.495264,1607.697052,-2.374363,0
0.025000,-161.117768,169.050982,11.780871,3.097698,5.024659,-4.807449,-0.621077,-4.774670,4.919757,0.528665,-0.157664,0.436262,-0.035692,-155.679808,188.495314,1606.537611,-1.989275,0
0.026042,-183.076849,107.220915,68.988258,4.194768,5.624656,-3.049366,-2.796466,-5.436305,3.178129,2.577985,-0.227071,0.437438,-0.031958,-177.711688,188.495280,1605.200976,-1.641827,0
0.027083,-191.844602,30.736712,129.790341,5.382318,5.713413,-1.235723,-4.486776,-5.539226,1.356764,4.324887,-0.230724,0.457427,-0.087972,-183.841708,188.495188,1604.336510,-1.074878,0
0.028125,-152.724317,-34.512251,170.686175,6.140088,4.747737,0.899375,-5.393499,-4.642343,-0.649255,5.150308,-0.219765,0.457362,-0.024490,-142.130428,188.495217,1603.011936,-0.202710,0
0.029167,-79.406394,-84.962106,203.284660,6.716898,3.075556,3.316242,-5.919622,-2.966201,-3.074943,5.737353,-0.263601,0.452201,-0.058098,-70.300620,188.570615,1601.818802,0.794866,0
0.030208,-19.086977,-146.018995,179.020455,6.275808,1.055448,4.625875,-5.083795,-1.029081,-4.447262,4.958184,-0.227071,0.455206,-0.043161,-11.251111,188.495151,1600.999436,2.113588,0
0.031250,43.126639,-192.313019,129.088637,5.348388,-1.269984,5.693424,-3.755428,1.352806,-5.580369,3.741401,-0.208806,0.453638,-0.031958,48.884157,188.495200,1600.109329,2.818238,0
0.032292,98.625494,-195.309083,53.107576,3.923328,-3.325595,5.606115,-1.639741,3.481065,-5.559385,1.699197,-0.164970,0.440116,-0.073035,103.681106,188.495121,1598.806128,3.115504,0
0.033333,161.020589,-168.658609,-12.286364,2.690538,-4.869966,4.951299,0.442363,5.017528,-4.963455,-0.360797,-0.150358,0.439071,-0.050629,160.807915,188.570546,1598.195412,3.155020,0
0.034375,182.752820,-107.517154,-68.890531,1.627398,-5.509016,3.197185,2.599095,5.638730,-3.234418,-2.378096,-0.102869,0.444558,-0.058098,182.466564,188.495175,1597.234414,3.471138,0
0.035417,191.588628,-31.661157,-130.098864,0.462468,-5.590673,1.300202,4.334182,5.741651,-1.400463,-4.174808,-0.077298,0.447171,-0.031958,188.449554,188.570627,1595.948786,3.426723,0
0.036458,152.105383,34.940867,-171.007008,-0.351852,-4.632098,-0.807116,5.255831,4.844768,0.681097,-5.039365,0.006721,0.458668,-0.058098,145.923955,188.495255,1595.465378,3.200138,0
0.037500,77.517100,85.728987,-203.346970,-0.906042,-2.952816,-3.227952,5.778222,3.157599,3.119375,-5.601505,0.006721,0.444493,-0.005818,73.370307,188.570589,1595.448036,3.255761,0
0.038542,17.106943,146.592581,-178.602652,-0.498882,-0.929158,-4.585208,4.957321,1.191073,4.479104,-4.800990,-0.029809,0.442076,-0.031958,15.372628,188.495217,1594.935704,2.618630,0
0.039583,-43.949738,192.113428,-129.138637,0.462468,1.378523,-5.597197,3.625222,-1.132002,5.599621,-3.612669,-0.037115,0.429403,-0.039427,-44.084041,188.570604,1594.965564,3.165641,0
0.040625,-99.357853,195.121573,-53.970076,1.864908,3.494489,-5.478139,1.483416,-3.230855,5.557654,-1.581138,-0.084604,0.442337,-0.031958,-99.582209,188.495202,1594.832449,3.582802,0
0.041667,-161.310590,169.280519,12.137879,3.097698,5.063712,-4.823323,-0.613614,-4.833482,4.932347,0.514434,-0.150358,0.441619,-0.069301,-155.578018,188.495202,1595.679890,3.605524,0
0.042708,-183.360411,106.653113,69.345265,4.160838,5.603354,-2.985869,-2.856168,-5.451008,3.148752,2.627795,-0.219765,0.436785,-0.087972,-178.311118,188.495311,1595.923030,3.052132,0
0.043750,-191.946684,30.132667,130.208902,5.371008,5.713413,-1.180163,-4.497970,-5.557605,1.331584,4.349792,-0.194194,0.445277,-0.028224,-183.468478,188.570899,1596.369017,2.906888,0
0.044792,-151.227107,-35.454561,171.547917,6.151398,4.740637,0.946998,-5.445738,-4.598234,-0.720599,5.178771,-0.230724,0.437699,-0.039427,-140.558338,188.510588,1596.306245,2.370971,0
0.045833,-77.841129,-85.348695,203.370834,6.773448,3.036503,3.292431,-5.859920,-2.903713,-3.163074,5.744468,-0.281866,0.441553,-0.046895,-69.644640,188.495338,1596.377347,1.445846,0
0.046875,-18.508509,-146.912981,178.367993,6.275808,1.019945,4.689372,-5.124841,-0.966593,-4.506016,4.986647,-0.241683,0.455598,-0.031958,-11.352901,188.519728,1597.174903,0.954671,0
0.047917,43.444229,-192.047239,129.150190,5.348388,-1.273534,5.665644,-3.733040,1.389563,-5.613942,3.741401,-0.208806,0.451025,-0.043161,49.359177,188.504732,1597.620314,0.525524,0
0.048958,99.510209,-195.007060,52.935227,3.945948,-3.382400,5.621990,-1.621084,3.517822,-5.559385,1.681407,-0.179582,0.441227,-0.046895,104.472806,188.499185,1597.862540,0.324737,0
0.050000,160.850451,-168.646528,-13.591288,2.690538,-4.923221,4.927487,0.464752,5.061637,-4.946668,-0.343008,-0.139399,0.437503,-0.017021,160.265035,188.497783,1598.106466,0.594461,0
0.051042,182.741477,-105.511723,-69.629167,1.582158,-5.505466,3.157499,2.703574,5.624027,-3.213434,-2.424348,-0.084604,0.439136,-0.039427,183.043374,188.501398,1597.711085,0.718743,0
0.052083,191.350435,-30.428905,-130.431250,0.462468,-5.597773,1.347825,4.330451,5.815166,-1.354299,-4.135672,-0.051727,0.451613,-0.043161,188.087634,188.435660,1597.969738,1.237109,0
0.053125,151.651683,34.989190,-171.437879,-0.340542,-4.614346,-0.807116,5.285682,4.848444,0.668507,-5.014460,-0.015197,0.459779,-0.035692,145.641205,188.495323,1597.713933,1.671482,0
0.054167,77.914088,86.200142,-203.088448,-0.939972,-2.931514,-3.216047,5.737177,3.183329,3.123572,-5.590831,-0.018850,0.456447,-0.054364,73.483407,188.570573,1597.837801,1.910688,0
0.055208,17.152313,146.930847,-178.282576,-0.521502,-0.954009,-4.565365,4.934933,1.154315,4.441334,-4.804547,-0.051727,0.444297,-0.058098,14.580928,188.495340,1597.455467,1.873990,0
0.056250,-44.482835,192.306722,-128.276894,0.439848,1.378523,-5.561480,3.591640,-1.139353,5.561851,-3.566417,-0.059033,0.445603,-0.058098,-44.966221,188.570600,1596.580925,1.924401,0
0.057292,-99.709470,195.097411,-52.517424,1.910148,3.451886,-5.454328,1.535655,-3.263937,5.545064,-1.527770,-0.066339,0.441749,-0.024490,-99.876269,188.495267,1596.354126,1.588154,0
0.058333,-161.594153,168.893930,12.741099,3.131628,5.031760,-4.811417,-0.591226,-4.796724,4.894576,0.478855,-0.139399,0.438940,-0.054364,-156.064348,188.570698,1595.575793,2.317950,0
0.059375,-183.099534,106.798084,69.948485,4.172148,5.592704,-3.005712,-2.818854,-5.447332,3.186522,2.610005,-0.186888,0.442599,-0.087972,-178.152778,188.495188,1595.740508,3.008754,0
0.060417,-191.731177,30.543417,130.972159,5.337078,5.692111,-1.184132,-4.479314,-5.531874,1.352568,4.324887,-0.238030,0.444820,-0.054364,-183.219658,188.570640,1595.453351,3.422982,0
0.061458,-151.317847,-35.949878,171.326326,6.140088,4.690933,0.911281,-5.363648,-4.605585,-0.716402,5.189444,-0.278213,0.447825,-0.039427,-140.219038,188.507995,1595.611994,3.610819,0
0.062500,-76.514057,-86.085630,203.641667,6.739518,3.025852,3.296399,-5.863652,-2.900037,-3.192451,5.719563,-0.227071,0.452397,-0.058098,-68.196960,188.570915,1595.454930,3.885862,0
0.063542,-16.852504,-147.009629,178.158713,6.275808,1.019945,4.657624,-5.061407,-0.973944,-4.464049,4.947511,-0.219765,0.451025,-0.043161,-10.380241,188.495293,1594.499911,4.709114,0
0.064583,43.920614,-192.313019,128.867046,5.382318,-1.255783,5.661675,-3.766622,1.349130,-5.601352,3.698706,-0.186888,0.449458,-0.020755,49.574067,188.646073,1593.954482,5.087958,0
0.065625,100.270156,-194.656714,53.021402,3.912018,-3.350447,5.538649,-1.602427,3.488416,-5.534205,1.695639,-0.194194,0.444885,-0.039427,105.298436,188.495260,1593.554163,5.680645,0
0.066667,161.587714,-168.465314,-13.899053,2.667918,-4.905469,4.879864,0.494603,5.024880,-4.908898,-0.343008,-0.124787,0.437960,-0.050629,160.740055,188.570609,1592.981925,5.936114,0
0.067708,182.707450,-104.943921,-70.380114,1.593468,-5.484164,3.137656,2.658797,5.590945,-3.251204,-2.410116,-0.110175,0.436262,-0.065566,182.998134,188.495278,1592.781707,6.895282,0
0.068750,191.157613,-28.773821,-130.788258,0.428538,-5.608424,1.296233,4.360302,5.782084,-1.350103,-4.142788,-0.048074,0.439332,-0.035692,187.827504,188.646080,1592.351172,7.353966,0
0.069792,150.585488,36.124795,-171.905682,-0.340542,-4.585944,-0.815053,5.267025,4.796983,0.676900,-5.050039,-0.048074,0.458407,-0.043161,144.939985,188.495215,1592.193905,7.413131,0
0.070833,77.471730,86.574650,-203.113069,-0.951282,-2.952816,-3.216047,5.752103,3.120841,3.144555,-5.605063,-0.040768,0.458603,-0.054364,73.562577,188.570604,1592.127977,6.828540,0
0.071875,17.435875,147.897319,-177.580872,-0.487572,-0.879454,-4.577271,4.953590,1.135936,4.462317,-4.808105,-0.044421,0.454422,-0.050629,14.467828,188.495168,1592.420656,6.702295,0
0.072917,-45.049960,192.161751,-128.166099,0.417228,1.392724,-5.541637,3.550595,-1.172435,5.566047,-3.573532,-0.066339,0.440900,-0.035692,-45.712681,188.721454,1592.596411,6.599635,0
0.073958,-100.469418,194.940359,-51.335606,1.910148,3.529992,-5.478139,1.453565,-3.308046,5.519884,-1.453056,-0.135746,0.435805,-0.043161,-100.634039,188.495202,1592.282109,5.937182,0
0.075000,-161.163138,168.809364,14.550758,3.188178,5.067262,-4.807449,-0.654659,-4.851861,4.881986,0.546454,-0.132093,0.438026,-0.050629,-155.589328,188.495191,1592.633374,5.297588,0
0.076042,-183.394439,105.203404,70.416288,4.228698,5.656609,-2.973963,-2.874824,-5.454684,3.186522,2.666931,-0.219765,0.442860,-0.054364,-178.853998,188.519185,1592.846306,5.292934,0
0.077083,-191.663122,30.809197,131.452273,5.404938,5.748916,-1.188100,-4.494239,-5.583335,1.331584,4.332003,-0.219765,0.445603,-0.073035,-182.925598,188.517345,1593.551130,5.168860,0
0.078125,-150.455817,-35.514966,172.655872,6.196638,4.708684,0.974778,-5.453201,-4.627640,-0.716402,5.225023,-0.212459,0.460955,-0.058098,-139.246378,188.506169,1594.308842,5.346077,0
0.079167,-76.366604,-86.411814,203.493940,6.773448,3.008101,3.375771,-5.893503,-2.855928,-3.200844,5.719563,-0.259948,0.403469,-0.058098,-67.326090,188.506688,1594.089814,4.967240,0
0.080208,-15.706911,-147.903616,177.481629,6.264498,0.973792,4.693341,-5.080064,-0.911457,-4.560573,4.922606,-0.270907,0.450829,-0.050629,-8.785531,188.499438,1594.647083,4.162129,0
0.081250,45.259029,-192.023077,128.202273,5.348388,-1.316138,5.657707,-3.721845,1.429996,-5.626532,3.744958,-0.197847,0.438810,-0.039427,50.580657,188.721469,1595.415693,4.218136,0
0.082292,100.882651,-194.547986,52.418182,3.912018,-3.385950,5.606115,-1.576308,3.484741,-5.542599,1.652945,-0.168623,0.444689,-0.091706,106.191926,188.495244,1595.340862,4.178283,0
0.083333,161.531001,-168.622366,-14.169886,2.645298,-4.912570,4.879864,0.502065,5.057962,-4.955062,-0.353681,-0.117481,0.441031,-0.069301,160.536475,188.553516,1596.181654,4.208505,0
0.084375,183.070410,-104.206986,-70.675568,1.570848,-5.512567,3.097970,2.725962,5.660785,-3.217631,-2.491947,-0.077298,0.438679,-0.061832,183.688044,188.494714,1597.180574,3.226958,0
0.085417,191.066873,-28.387232,-131.305303,0.439848,-5.576472,1.220830,4.334182,5.793112,-1.303939,-4.135672,-0.048074,0.406017,-0.054364,187.329864,188.721817,1597.192528,3.037672,0
0.086458,149.417211,37.151672,-172.287311,-0.351852,-4.564642,-0.826959,5.296876,4.833741,0.710474,-5.025134,-0.048074,0.423066,-0.091706,143.842915,188.495758,1597.158889,3.649561,0
0.087500,75.770355,87.239100,-203.076137,-0.917352,-2.924414,-3.196204,5.759566,3.087760,3.136162,-5.573042,-0.026156,0.464221,-0.076769,72.895287,188.571227,1596.323987,4.108852,0
0.088542,16.778010,148.320151,-177.076137,-0.442332,-0.907856,-4.561397,4.968515,1.154315,4.462317,-4.818779,-0.051727,0.457101,-0.043161,14.501758,188.495738,1596.392496,4.774831,0
0.089583,-45.049960,192.306722,-127.981440,0.428538,1.396275,-5.581323,3.584177,-1.132002,5.566047,-3.573532,-0.077298,0.451221,-0.020755,-45.938881,188.721866,1596.277487,5.285255,0
0.090625,-101.115940,194.710822,-51.126326,1.910148,3.483838,-5.474171,1.438639,-3.285991,5.435950,-1.492192,-0.102869,0.439398,-0.058098,-101.176919,188.495649,1595.327644,6.023830,0
0.091667,-161.458043,168.338209,15.387879,3.199488,5.042410,-4.767763,-0.650928,-4.818779,4.869396,0.550012,-0.106522,0.434694,-0.024490,-155.566708,188.571107,1594.843299,6.522597,0
0.092708,-182.872684,103.693291,71.117993,4.273938,5.610455,-3.001743,-2.848705,-5.414250,3.178129,2.670489,-0.219765,0.438287,-0.031958,-178.582558,188.495649,1593.953785,7.077870,0
0.093750,-191.322847,29.516541,132.006250,5.393628,5.685011,-1.188100,-4.460657,-5.539226,1.289617,4.299983,-0.230724,0.434629,-0.058098,-182.608918,188.721882,1592.995994,7.307421,0
0.094792,-150.421790,-35.756584,172.557387,6.151398,4.698033,0.978746,-5.430813,-4.590882,-0.749975,5.171655,-0.252642,0.456578,-0.035692,-139.325548,188.571125,1592.107474,6.950360,0
0.095833,-76.706879,-86.919212,203.395455,6.773448,3.022302,3.347991,-5.841264,-2.885334,-3.171467,5.716006,-0.252642,0.450764,-0.043161,-67.484430,188.571129,1592.171253,7.590763,0
0.096875,-15.967789,-148.084829,177.223107,6.298428,0.952490,4.701278,-5.031556,-0.867348,-4.472442,4.919048,-0.223418,0.434956,-0.039427,-8.174791,188.571100,1591.200817,7.657659,0
0.097917,45.690044,-192.397585,127.352841,5.325768,-1.280635,5.625958,-3.673338,1.415293,-5.576172,3.688033,-0.227071,0.448870,-0.046895,51.327117,188.721828,1590.090351,7.861053,0
0.098958,101.268296,-194.560067,51.014773,3.912018,-3.353998,5.578335,-1.602427,3.492092,-5.513222,1.624482,-0.154011,0.441684,-0.084238,106.666946,188.571017,1589.621565,7.991306,0
0.100000,161.791879,-168.259939,-14.846970,2.656608,-4.891268,4.887802,0.457289,5.028556,-4.896308,-0.350123,-0.102869,0.442599,-0.039427,161.011495,188.571065,1588.724591,8.175689,0
0.101042,183.025040,-104.400280,-71.254167,1.593468,-5.509016,3.074159,2.752081,5.616676,-3.200844,-2.438579,-0.069992,0.442076,-0.039427,183.676734,188.571096,1587.951971,8.765496,0
0.102083,190.942105,-28.713417,-132.043940,0.417228,-5.562271,1.256547,4.315525,5.701218,-1.329119,-4.160577,-0.055380,0.449196,-0.054364,187.182834,188.721907,1587.390667,8.639207,0
0.103125,149.042908,37.381209,-172.865910,-0.397092,-4.568193,-0.830928,5.289413,4.771253,0.760834,-5.035807,-0.029809,0.444885,-0.054364,142.881565,188.571116,1587.137665,7.780161,0
0.104167,74.477310,87.758579,-203.359281,-0.962592,-2.899562,-3.192235,5.752103,3.153923,3.152949,-5.565927,-0.000585,0.435217,-0.054364,71.391057,188.571053,1587.484734,8.811419,0
0.105208,15.212745,149.045005,-176.620644,-0.453642,-0.868803,-4.577271,4.957321,1.088152,4.500087,-4.776085,-0.022503,0.447433,-0.050629,13.472548,188.650109,1587.278114,8.354787,0
0.106250,-45.821250,192.040942,-127.969129,0.473778,1.406926,-5.521794,3.558057,-1.165083,5.578637,-3.548627,-0.048074,0.449588,-0.073035,-46.493071,188.722378,1587.296722,7.987600,0
0.107292,-102.000655,194.396719,-51.175568,1.910148,3.519341,-5.454328,1.390131,-3.274964,5.482113,-1.492192,-0.095563,0.443252,-0.050629,-102.262679,188.571498,1587.839806,8.441662,0
0.108333,-161.650865,168.471099,16.089583,3.188178,5.031760,-4.743951,-0.699436,-4.833482,4.861003,0.528665,-0.150358,0.438483,-0.028224,-155.498848,188.496244,1588.010717,8.809893,0
0.109375,-183.451151,102.545605,71.635038,4.228698,5.645958,-2.981900,-2.919601,-5.410575,3.102589,2.659815,-0.175929,0.435805,-0.013287,-179.385568,188.646942,1587.448120,8.714414,0
0.110417,-191.073312,27.897699,132.006250,5.393628,5.681461,-1.156352,-4.475582,-5.509820,1.302207,4.328445,-0.216112,0.441749,-0.058098,-182.088658,188.722353,1587.186352,9.118711,0
0.111458,-148.788470,-36.698894,173.653031,6.174018,4.676732,1.002558,-5.427081,-4.561476,-0.787746,5.217907,-0.219765,0.447694,-0.050629,-138.149309,188.571590,1587.452072,9.063036,0
