1-Time,2-VGERA,3-VGERB,4-VGERC,5-VN,6-IGERAN,7-IGERBN,8-IGERCN,9-IGERAT,10-IGERBT,11-IGERCT,12-IN,13-IFD,14-IFAULT,15-VFAULT,16-Speed (rad/s),17-Active Power,18-Reactive Power,19-FAULT 
0.000000,110.002022,69.878841,-188.241857,-0.600672,-3.520861,-2.350895,5.550609,3.753070,2.154136,-5.309762,-0.022503,0.463045,-0.058098,-16.623361,188.496063,1583.155848,7.463916,0
0.001042,34.744531,128.749086,-195.295834,-0.792942,-1.649864,-4.200255,5.393891,1.841680,4.164352,-5.217258,-0.055380,0.458603,-0.069301,4.322758,188.646906,1583.541033,6.443246,0
0.002083,-29.465364,169.594623,-151.802463,0.043998,0.544208,-5.236056,4.080449,-0.279227,5.171558,-4.007590,-0.055380,0.444036,-0.031958,25.053988,188.496054,1583.506136,6.955428,0
0.003125,-80.415877,203.964794,-74.836553,1.480368,2.951297,-5.775783,2.184913,-2.756683,5.767488,-2.221551,-0.099216,0.441292,-0.043161,42.765448,188.571547,1583.899649,7.041992,0
0.004167,-140.156827,176.372010,-12.581818,2.667918,4.438863,-5.009847,0.065495,-4.223307,5.054051,-0.182904,-0.121134,0.436981,-0.061832,61.087647,188.496103,1583.654458,6.873532,0
0.005208,-186.558996,127.577238,48.195644,3.821538,5.582053,-3.747837,-2.098700,-5.428953,3.862190,1.944688,-0.201500,0.433976,-0.080503,72.454197,188.646864,1583.611845,7.191328,0
0.006250,-190.256652,51.201763,106.129356,4.884678,5.649508,-1.803231,-3.968116,-5.557605,1.931711,3.809000,-0.234377,0.436393,-0.043161,65.905707,188.497118,1584.003211,6.399189,0
0.007293,-165.518658,-12.923675,164.457008,5.235288,5.241226,0.177093,-5.292752,-5.116515,-0.065915,5.143192,-0.267254,0.446322,-0.054364,46.904907,188.571677,1584.162431,6.307451,0
0.008333,-109.327910,-69.945542,188.561175,6.502008,3.608098,2.466965,-5.703203,-3.569024,-2.223015,5.502535,-0.263601,0.448478,-0.054364,21.231208,188.496393,1584.564880,6.106856,0
0.009375,-33.945652,-128.320470,195.430493,6.660348,1.747752,4.320294,-5.539023,-1.661310,-4.182870,5.395799,-0.259948,0.443448,-0.065566,-0.981632,188.646507,1584.338752,5.973823,0
0.010417,29.753831,-169.298897,151.875569,5.834718,-0.449870,5.340220,-4.285282,0.525762,-5.202667,4.200363,-0.263601,0.414639,-0.046895,-20.457451,188.496250,1585.024315,5.767937,0
0.011459,80.057820,-203.753635,75.155871,4.432278,-2.899562,5.852167,-2.374821,2.966460,-5.781810,2.424997,-0.212459,0.447955,-0.050629,-39.062401,188.571755,1584.869651,6.130131,0
0.012500,139.469838,-176.293740,13.319697,3.199488,-4.305472,5.094168,-0.244209,4.418381,-5.152306,0.414814,-0.150358,0.439528,-0.061832,-56.785170,188.496311,1584.801742,6.347522,0
0.013542,186.178255,-127.523131,-47.667046,2.057178,-5.505466,3.871844,1.923717,5.627703,-3.956249,-1.719894,-0.099216,0.439528,-0.069301,-67.676700,188.571974,1585.040651,6.882311,0
0.014583,189.977993,-51.727539,-106.093182,0.960108,-5.576472,1.915332,3.778208,5.760030,-2.013180,-3.505933,-0.051727,0.437503,-0.046895,-60.890700,188.496315,1584.544467,6.651883,0
0.015625,165.024492,12.047553,-164.839394,-0.114342,-5.153989,-0.029274,5.132695,5.285858,-0.040734,-4.893494,-0.026156,0.455860,-0.039427,-41.505361,188.572182,1584.337929,6.939672,0
0.016667,110.569147,69.782194,-188.167993,-0.611982,-3.595416,-2.259618,5.524489,3.760422,2.133153,-5.284857,-0.040768,0.462196,-0.065566,-15.684631,188.496796,1584.087148,7.074251,0
0.017708,35.186888,128.664520,-195.258902,-0.792942,-1.735071,-4.160570,5.393891,1.849032,4.097205,-5.217258,-0.015197,0.458342,-0.035692,4.809088,188.571075,1583.545769,7.524756,0
0.018750,-29.136432,169.050982,-152.639584,0.055308,0.480303,-5.160653,4.110300,-0.271876,5.087624,-4.028937,-0.055380,0.456382,-0.035692,25.483768,188.571129,1582.833288,7.729319,0
0.019792,-80.495274,203.650691,-76.055303,1.457748,2.908693,-5.696412,2.244615,-2.701547,5.729718,-2.250013,-0.091910,0.444820,-0.069301,44.167887,188.571051,1582.313521,8.208283,0
0.020833,-140.202197,176.674032,-13.935985,2.645298,4.307503,-4.966192,0.136391,-4.171847,5.075034,-0.268293,-0.132093,0.447433,-0.020755,61.245987,188.495747,1582.308670,9.175683,0
0.021875,-186.774504,128.386659,47.395455,3.776298,5.503947,-3.755774,-2.057654,-5.351763,3.899960,1.948246,-0.197847,0.441749,-0.039427,73.641747,188.646538,1581.936904,9.245444,0
0.022917,-190.449474,52.941414,106.227841,4.884678,5.596254,-1.846885,-3.882294,-5.531874,1.973678,3.702264,-0.216112,0.445212,-0.020755,65.984877,188.495727,1581.344077,10.100796,0
0.023959,-165.530000,-11.014892,165.146402,5.981748,5.216374,0.181061,-5.270364,-5.061378,-0.040734,5.054246,-0.241683,0.459060,-0.028224,47.594817,188.571038,1580.068764,10.009860,0
0.025000,-111.222108,-69.450225,187.884091,6.445458,3.593897,2.351876,-5.654695,-3.580051,-2.185244,5.484745,-0.230724,0.460824,-0.076769,22.769368,188.495703,1579.890813,9.845126,0
0.026042,-35.352122,-128.670816,195.319698,6.626418,1.790356,4.264734,-5.479321,-1.690716,-4.145100,5.353105,-0.248989,0.463829,-0.035692,-0.223862,188.646580,1579.375192,9.955595,0
0.027084,29.300131,-168.815660,152.515720,5.823408,-0.389515,5.256880,-4.233043,0.466950,-5.185880,4.186131,-0.219765,0.452267,-0.035692,-20.287801,188.495629,1578.960493,10.225852,0
0.028125,80.386753,-203.608664,75.377462,4.398348,-2.842757,5.824387,-2.393478,2.907648,-5.790203,2.364514,-0.201500,0.442403,-0.043161,-40.080301,188.571093,1578.406629,10.231560,0
0.029167,139.662660,-176.474954,13.085795,3.176868,-4.319673,5.102105,-0.240477,4.385299,-5.114536,0.400582,-0.157664,0.439267,-0.058098,-55.733340,188.495635,1577.785197,10.213792,0
0.030208,186.303022,-127.486888,-47.777841,2.023248,-5.455762,3.903593,1.938643,5.572567,-3.956249,-1.727010,-0.099216,0.437699,-0.009553,-68.321370,188.646447,1577.235396,10.355393,0
0.031250,190.125445,-51.340950,-105.945455,0.926178,-5.558720,1.935175,3.778208,5.778409,-2.029967,-3.566417,-0.062686,0.428815,-0.024490,-62.383620,188.495647,1577.930626,10.094702,0
0.032292,164.843012,12.639518,-164.728599,-0.136962,-5.157539,-0.049117,5.136427,5.326291,-0.019751,-4.918398,-0.037115,0.411439,-0.054364,-42.161341,188.571125,1578.513137,10.164104,0
0.033333,109.616377,70.253349,-188.094129,-0.611982,-3.549263,-2.303272,5.546877,3.800855,2.133153,-5.259952,-0.044421,0.433714,-0.031958,-16.589431,188.495655,1578.324268,10.981548,0
0.034375,33.814446,128.652439,-195.308145,-0.770322,-1.713769,-4.204224,5.371503,1.874762,4.088811,-5.217258,-0.000585,0.456447,-0.091706,4.447168,188.646487,1578.189762,11.797748,0
0.035417,-30.179942,169.340924,-151.876326,0.066618,0.505155,-5.224150,4.143882,-0.334364,5.163165,-4.018263,-0.073645,0.465266,-0.069301,25.099228,188.495676,1578.950259,11.274673,0
0.036458,-80.574672,203.880228,-74.824243,1.502988,2.940646,-5.724192,2.255809,-2.734629,5.780079,-2.242898,-0.099216,0.445212,-0.031958,42.855928,188.495788,1579.605763,11.294642,0
0.037500,-139.975347,176.492819,-12.643371,2.690538,4.414011,-5.021752,0.136391,-4.201253,5.133788,-0.229156,-0.143052,0.442076,-0.061832,61.008477,188.495895,1580.310134,11.330507,0
0.038542,-186.377516,127.770533,48.023296,3.855468,5.567852,-3.759743,-2.091237,-5.384844,3.912550,1.962477,-0.172276,0.438287,-0.046895,72.510747,188.646469,1580.613531,11.495436,0
0.039583,-190.222624,51.588352,106.301705,4.895988,5.649508,-1.819105,-3.923339,-5.546577,1.965285,3.730727,-0.216112,0.444101,-0.054364,65.928327,188.495674,1580.717225,11.633657,0
0.040625,-165.518658,-11.957203,164.678599,5.993058,5.237676,0.173124,-5.285289,-5.112839,-0.032341,5.114729,-0.270907,0.465070,-0.043161,47.266827,188.570910,1581.710725,11.955500,0
0.041667,-110.076516,-69.703924,188.142614,6.468078,3.608098,2.459028,-5.677083,-3.602106,-2.197834,5.491861,-0.256295,0.450242,-0.050629,21.751468,188.495636,1581.867552,12.417242,0
0.042708,-34.728285,-128.550007,195.307387,6.637728,1.783255,4.264734,-5.524097,-1.683364,-4.161887,5.399357,-0.263601,0.452659,-0.024490,-0.698882,188.646567,1582.410828,12.538625,0
0.043750,29.311473,-169.105602,152.429546,5.812098,-0.407267,5.284660,-4.270357,0.481653,-5.206863,4.221710,-0.227071,0.450046,-0.024490,-20.502691,188.495622,1583.065760,12.608134,0
0.044792,80.352725,-203.427450,76.054546,4.432278,-2.842757,5.796607,-2.356164,2.907648,-5.777613,2.446344,-0.183235,0.445538,-0.039427,-39.277291,188.571141,1583.413889,13.228789,0
0.045833,140.025620,-176.366225,14.033712,3.222108,-4.312573,5.133854,-0.285254,4.388975,-5.143913,0.432603,-0.124787,0.446191,-0.043161,-56.751240,188.495765,1583.885456,13.495702,0
0.046875,186.337050,-128.223823,-47.445455,2.068488,-5.452212,3.859938,1.890135,5.568891,-3.947855,-1.709221,-0.091910,0.446649,-0.046895,-67.733250,188.571094,1583.873981,13.344919,0
0.047917,190.102760,-52.826901,-106.253220,0.948798,-5.594223,1.927238,3.740894,5.723272,-2.050950,-3.505933,-0.033462,0.450568,-0.058098,-60.913320,188.495716,1583.137038,13.637153,0
0.048958,165.274027,11.298537,-165.060985,-0.182202,-5.143338,-0.053085,5.095382,5.252776,-0.049128,-4.875704,-0.048074,0.460171,-0.046895,-41.584531,188.571062,1582.182044,13.298563,0
0.050000,111.147614,69.733870,-187.995645,-0.623292,-3.556363,-2.235806,5.509564,3.756746,2.103776,-5.267067,-0.044421,0.460498,-0.054364,-15.503671,188.495707,1582.062256,12.605048,0
0.051042,35.538506,128.676601,-195.246592,-0.804252,-1.742171,-4.152632,5.352846,1.893141,4.084615,-5.192353,-0.029809,0.456839,-0.035692,5.012668,188.571123,1581.972567,12.186846,0
0.052083,-29.170459,168.857687,-152.553410,-0.012552,0.515806,-5.152716,4.128957,-0.238794,5.142181,-4.007590,-0.066339,0.457754,-0.024490,25.529008,188.495761,1581.479517,12.715436,0
0.053125,-80.620042,203.578206,-75.538258,1.446438,2.929995,-5.700380,2.225958,-2.675817,5.721325,-2.221551,-0.095563,0.443121,-0.035692,44.100027,188.571129,1580.332421,12.856454,0
0.054167,-140.088772,176.686113,-13.061932,2.645298,4.318154,-5.001909,0.169973,-4.164495,5.083428,-0.254061,-0.150358,0.442403,-0.028224,61.053717,188.495698,1579.588894,13.018713,0
0.055208,-186.649736,127.987989,47.715530,3.798918,5.518148,-3.739900,-2.068849,-5.337060,3.841206,1.894878,-0.161317,0.438026,-0.024490,73.675677,188.646485,1578.369998,13.190530,0
0.056250,-190.506187,51.938698,106.067803,4.850748,5.589153,-1.819105,-3.856175,-5.528199,1.994662,3.695149,-0.216112,0.444820,-0.024490,65.996187,188.495676,1578.110963,13.630273,0
0.057292,-165.201068,-12.065931,165.010985,5.981748,5.177321,0.157250,-5.214393,-5.079757,0.026413,5.064920,-0.278213,0.450438,-0.039427,47.391237,188.495712,1577.242642,14.550000,0
0.058333,-110.518873,-69.824733,187.896402,6.479388,3.600998,2.391562,-5.624844,-3.569024,-2.160064,5.417146,-0.241683,0.455729,-0.073035,22.531858,188.495694,1575.984889,14.659494,0
0.059375,-34.251900,-128.622493,195.455114,6.626418,1.811657,4.197268,-5.475589,-1.664985,-4.107330,5.388684,-0.245336,0.409479,-0.020755,-0.438752,188.646520,1575.355164,15.018854,0
0.060417,30.014708,-168.622366,152.675758,5.868648,-0.396616,5.256880,-4.259163,0.459598,-5.156503,4.200363,-0.227071,0.442468,-0.013287,-20.253871,188.495743,1574.495857,15.454487,0
0.061458,80.398095,-203.644907,74.946591,4.409658,-2.849858,5.768827,-2.382284,2.907648,-5.756630,2.403650,-0.197847,0.444232,-0.046895,-39.808861,188.495966,1573.924435,15.359288,0
0.062500,139.322385,-176.619924,12.864205,3.199488,-4.255768,5.074325,-0.322567,4.341190,-5.127126,0.436161,-0.157664,0.439920,-0.054364,-55.642860,188.495712,1573.174682,15.856854,0
0.063542,186.121542,-127.233189,-47.827083,2.057178,-5.466413,3.848033,1.905060,5.598297,-3.956249,-1.762588,-0.084604,0.438352,-0.024490,-68.332680,188.646572,1573.474228,15.584690,0
0.064583,190.125445,-51.159736,-105.920834,0.948798,-5.565821,1.955018,3.748357,5.671812,-2.000590,-3.527280,-0.088257,0.451744,-0.017021,-62.406240,188.495676,1572.546600,15.211114,0
0.065625,164.706901,12.627437,-164.888637,-0.148272,-5.139787,-0.021337,5.106576,5.289534,-0.011358,-4.847242,-0.051727,0.441684,-0.009553,-42.251821,188.495729,1572.408409,15.677708,0
0.066667,109.922624,70.217106,-187.946402,-0.623292,-3.567014,-2.255649,5.528221,3.742043,2.107972,-5.299088,-0.040768,0.464940,-0.061832,-17.007901,188.495783,1572.467290,15.943297,0
0.067708,34.313516,128.652439,-195.271213,-0.781632,-1.756372,-4.136758,5.375234,1.867411,4.093008,-5.203026,-0.026156,0.449327,-0.054364,4.164418,188.571118,1572.451961,16.030034,0
0.068750,-29.703557,169.232195,-152.393372,0.010068,0.487404,-5.176527,4.099106,-0.290255,5.158968,-4.043168,-0.051727,0.446518,-0.046895,25.110538,188.495615,1573.142233,15.907326,0
0.069792,-80.620042,203.590286,-75.759849,1.469058,2.887392,-5.755940,2.255809,-2.727277,5.729718,-2.232224,-0.106522,0.443644,-0.050629,43.014268,188.495723,1573.640536,15.437761,0
0.070833,-140.122799,176.674032,-13.726705,2.656608,4.367858,-5.029689,0.128928,-4.197577,5.091821,-0.250504,-0.135746,0.445016,-0.054364,61.008477,188.495709,1574.050244,14.987495,0
0.071875,-186.388859,128.483306,47.518561,3.821538,5.550100,-3.755774,-2.038998,-5.381169,3.895763,1.930457,-0.190541,0.439528,-0.028224,72.522057,188.570803,1575.109015,14.707125,0
0.072917,-190.222624,52.881009,106.314015,4.929918,5.649508,-1.842917,-3.934534,-5.553929,2.015645,3.702264,-0.241683,0.447302,-0.031958,65.928327,188.495720,1575.621584,14.677339,0
0.073958,-165.688795,-10.894083,164.826326,5.981748,5.262528,0.181061,-5.251707,-5.112839,0.013823,5.104056,-0.238030,0.455533,-0.076769,47.334687,188.495673,1576.456369,13.981524,0
0.075000,-111.222108,-69.269011,187.957955,6.456768,3.615199,2.399499,-5.662158,-3.620484,-2.202031,5.459841,-0.256295,0.459387,-0.065566,21.898498,188.495680,1577.629173,13.582792,0
0.076042,-35.794480,-128.574169,195.245834,6.637728,1.765504,4.248860,-5.527828,-1.742176,-4.111526,5.420704,-0.278213,0.460759,-0.031958,-0.664952,188.571134,1578.345056,14.006304,0
0.077083,28.676293,-168.924389,152.712690,5.812098,-0.428568,5.284660,-4.218118,0.448571,-5.177486,4.200363,-0.245336,0.457035,-0.043161,-20.502691,188.495779,1578.628195,13.599245,0
0.078125,80.182588,-203.439531,76.300758,4.387038,-2.828556,5.816450,-2.363627,2.944405,-5.815384,2.400092,-0.179582,0.446583,-0.039427,-39.220741,188.495743,1579.606990,12.730742,0
0.079167,139.866825,-176.535358,13.799811,3.199488,-4.305472,5.125917,-0.277791,4.400002,-5.160700,0.468182,-0.139399,0.445342,-0.020755,-56.592900,188.495736,1580.691193,12.673652,0
0.080208,186.155570,-128.247985,-47.494697,1.989318,-5.430910,3.867876,1.927449,5.605648,-3.926872,-1.716336,-0.117481,0.440443,-0.050629,-67.812420,188.495821,1580.611049,12.564600,0
0.081250,190.080075,-52.307422,-105.957765,0.926178,-5.587123,1.955018,3.752089,5.763706,-2.050950,-3.505933,-0.069992,0.442990,0.005384,-60.913320,188.495595,1581.861515,13.094363,0
0.082292,165.069862,11.769693,-164.716288,-0.182202,-5.139787,-0.041180,5.117770,5.318940,-0.053324,-4.865031,-0.040768,0.454814,-0.013287,-41.414881,188.495759,1582.383952,13.269644,0
0.083333,110.569147,69.975488,-187.897160,-0.600672,-3.595416,-2.295335,5.517027,3.767773,2.112169,-5.288415,-0.044421,0.461869,-0.031958,-15.153061,188.495664,1582.560659,13.219842,0
0.084375,34.540366,128.604115,-195.357387,-0.792942,-1.692467,-4.140727,5.367772,1.885789,4.088811,-5.181679,-0.015197,0.442076,-0.031958,5.329348,188.571122,1582.377960,13.290812,0
0.085417,-29.919065,168.736878,-152.602652,0.043998,0.483853,-5.156684,4.102837,-0.253497,5.112804,-4.004032,-0.062686,0.453638,-0.050629,25.653418,188.495788,1581.350179,13.581598,0
0.086458,-80.574672,203.711096,-74.935038,1.469058,2.922894,-5.728160,2.237152,-2.683168,5.721325,-2.228666,-0.073645,0.439332,-0.043161,44.032167,188.495707,1580.885330,14.223987,0
0.087500,-139.759839,176.782760,-12.360227,2.656608,4.296852,-4.997941,0.143854,-4.186550,5.066641,-0.271851,-0.157664,0.437764,-0.039427,60.985857,188.495767,1580.450306,14.797998,0
0.088542,-186.422886,127.649724,48.010985,3.810228,5.511047,-3.747837,-2.005415,-5.392196,3.866387,1.909109,-0.201500,0.435217,-0.043161,73.675677,188.646567,1580.129877,15.128387,0
0.089583,-190.472159,51.455462,105.833902,4.918608,5.642408,-1.834979,-3.867369,-5.509820,2.011448,3.680917,-0.212459,0.440247,-0.039427,66.018807,188.495678,1579.240887,15.545395,0
0.090625,-164.985560,-12.247145,164.838637,6.015678,5.209274,0.145344,-5.218125,-5.101812,0.009626,5.007994,-0.212459,0.424830,-0.028224,47.481717,188.495716,1577.922436,16.571278,0
0.091667,-110.337393,-69.752248,187.785607,6.479388,3.622299,2.391562,-5.643501,-3.594754,-2.147474,5.434936,-0.248989,0.457754,-0.043161,22.814608,188.495750,1576.985299,17.343608,0
0.092708,-34.183845,-128.405037,195.344319,6.637728,1.801006,4.221079,-5.531560,-1.716446,-4.132510,5.367337,-0.263601,0.447890,-0.046895,-0.223862,188.571102,1576.295390,17.210005,0
0.093750,29.889941,-168.465314,152.848107,5.834718,-0.403716,5.280691,-4.274088,0.474301,-5.156503,4.235941,-0.216112,0.446191,-0.031958,-20.186011,188.495765,1576.353081,17.606706,0
0.094792,80.261985,-203.548259,75.783712,4.409658,-2.828556,5.792639,-2.423329,2.892945,-5.765023,2.435671,-0.172276,0.444689,-0.024490,-39.888031,188.495738,1575.637076,18.653247,0
0.095833,139.605948,-176.644086,13.455114,3.222108,-4.269969,5.121948,-0.307642,4.377948,-5.131323,0.461066,-0.186888,0.444232,-0.035692,-55.755960,188.495767,1575.066657,18.623366,0
0.096875,186.280337,-127.885558,-47.408523,2.079798,-5.420259,3.863907,1.882672,5.590945,-3.960445,-1.751915,-0.099216,0.442272,-0.046895,-68.343990,188.571227,1575.231267,18.628183,0
0.097917,190.250213,-52.355746,-106.043940,0.971418,-5.594223,1.931207,3.733432,5.715921,-2.071934,-3.520165,-0.051727,0.448347,-0.024490,-62.440170,188.495653,1574.959884,18.653572,0
0.098958,165.001807,11.515994,-165.122538,-0.159582,-5.161089,-0.076897,5.151352,5.315264,-0.044931,-4.904167,-0.044421,0.454814,-0.046895,-42.478021,188.495749,1575.433492,18.293816,0
0.100000,110.943449,69.758032,-187.983334,-0.634602,-3.567014,-2.283429,5.535683,3.793504,2.133153,-5.313319,-0.026156,0.460694,-0.024490,-17.279341,188.495778,1576.094801,18.104731,0
0.101042,35.561191,128.749086,-195.246592,-0.759012,-1.724420,-4.148664,5.427474,1.904168,4.076221,-5.242163,-0.037115,0.461086,-0.046895,4.017388,188.495550,1576.840237,18.310467,0
0.102083,-28.705417,169.232195,-152.541099,-0.001242,0.519356,-5.228119,4.117763,-0.286579,5.205132,-4.032495,-0.029809,0.452659,-0.024490,24.974818,188.495716,1578.280554,17.404839,0
0.103125,-80.449904,203.517801,-76.116856,1.435128,2.954847,-5.736097,2.229690,-2.771386,5.792669,-2.250013,-0.084604,0.444428,-0.043161,43.002958,188.495816,1579.844002,16.366261,0
0.104167,-140.451732,176.541142,-13.714394,2.633988,4.431763,-4.997941,0.143854,-4.212280,5.125394,-0.229156,-0.150358,0.443056,-0.043161,61.098957,188.495781,1580.792548,15.700804,0
0.105208,-186.547654,128.459144,47.555493,3.776298,5.578502,-3.791491,-2.091237,-5.395872,3.920944,1.951804,-0.190541,0.440704,-0.050629,72.510747,188.495727,1581.602091,15.335815,0
0.106250,-190.358734,52.675634,106.277084,4.873368,5.649508,-1.799262,-3.930802,-5.579659,2.011448,3.798326,-0.219765,0.443448,-0.054364,65.928327,188.495645,1583.491961,14.079263,0
0.107292,-165.722823,-11.461886,164.838637,6.004368,5.255427,0.173124,-5.289021,-5.138569,-0.044931,5.118287,-0.248989,0.454945,-0.061832,47.119797,188.495622,1585.255708,12.626256,0
0.108333,-110.575586,-69.534791,188.327273,6.502008,3.615199,2.435217,-5.710666,-3.591078,-2.214621,5.488303,-0.252642,0.459910,-0.005818,21.446098,188.495653,1586.393608,11.678447,0
0.109375,-35.011847,-128.356713,195.393561,6.626418,1.765504,4.316325,-5.516634,-1.705419,-4.191264,5.424262,-0.241683,0.458146,-0.028224,-0.947702,188.495712,1587.605913,10.968104,0
0.110417,29.266103,-169.117683,152.244887,5.812098,-0.471172,5.312440,-4.251700,0.503707,-5.211060,4.203921,-0.230724,0.450634,-0.039427,-20.480071,188.495703,1587.996364,10.168425,0
0.111458,79.910368,-203.717392,75.315909,4.364418,-2.885361,5.824387,-2.337507,2.948081,-5.853154,2.407208,-0.183235,0.438418,-0.050629,-39.005851,188.495665,1589.122491,9.386535,0
