1-Time,2-VGERA,3-VGERB,4-VGERC,5-VN,6-IGERAN,7-IGERBN,8-IGERCN,9-IGERAT,10-IGERBT,11-IGERCT,12-IN,13-IFD,14-IFAULT,15-VFAULT,16-Speed (rad/s),17-FAULT 
0.000000,-86.597539,-55.155117,197.519380,6.818688,0.799828,5.158451,-5.645171,-0.514476,-4.981929,5.654005,-0.219765,0.319592,-0.043161,3.417958,188.721976,0
0.001042,-34.887080,-135.496506,174.332107,6.400218,-1.756372,6.141390,-3.983965,2.032819,-5.964963,4.005619,-0.168623,0.324099,-0.061832,2.072068,188.571065,0
0.002083,14.509510,-187.198665,124.211199,5.404938,-3.826185,5.649920,-1.374617,4.205188,-5.670858,1.519716,-0.150358,0.309793,-0.020755,0.171988,188.571154,0
0.003125,75.498135,-196.350432,62.071199,4.194768,-5.906648,4.865093,1.469806,6.193768,-4.780488,-1.339263,-0.080951,0.293527,-0.024490,-2.316212,188.495732,0
0.004167,146.502188,-162.075701,11.903018,3.210798,-6.733862,3.432593,3.710867,7.200924,-3.503351,-3.589138,-0.015197,0.304567,-0.028224,-2.813851,188.721909,0
0.005208,192.030985,-98.025169,-35.286981,2.226828,-6.460491,1.257174,5.611067,6.785564,-1.380160,-5.405027,0.010374,0.323707,-0.035692,-3.051361,188.495738,0
0.006250,190.204843,-46.311171,-107.188799,0.835698,-5.232095,-1.104927,6.582716,5.737975,1.069366,-6.501413,0.003068,0.328018,-0.013287,-1.117352,188.571201,0
0.007292,147.931343,4.064988,-174.966071,-0.510192,-3.254590,-3.093664,6.551372,3.620743,3.051548,-6.440503,0.017680,0.332134,-0.043161,0.296398,188.495707,0
0.008333,86.602443,55.944735,-197.609707,-0.962592,-0.659336,-4.903338,5.528790,1.095503,4.933009,-5.538269,-0.022503,0.329717,-0.043161,1.585738,188.721931,0
0.009375,34.835271,135.812553,-174.351526,-0.555432,1.911065,-5.867228,3.918518,-1.411359,5.907985,-3.924145,-0.022503,0.321290,0.016587,2.886388,188.646409,0
0.010417,-14.640716,187.431837,-124.407890,0.405918,3.991528,-5.413857,1.258237,-3.598430,5.597766,-1.445856,-0.124787,0.311557,-0.039427,4.809088,188.571138,0
0.011458,-75.720082,196.062675,-61.972436,1.616088,6.061340,-4.636649,-1.570514,-5.546577,4.763799,1.443578,-0.146705,0.292482,-0.050629,7.240738,188.495635,0
0.012500,-147.438712,162.356231,-11.390618,2.633988,6.906307,-3.238438,-3.811575,-6.590490,3.486661,3.643964,-0.208806,0.303587,-0.043161,7.794928,188.722255,0
0.013542,-192.150849,98.163626,35.468472,3.595338,6.586782,-1.013491,-5.660842,-6.164103,1.319153,5.414171,-0.223418,0.322858,-0.020755,8.009818,188.571379,0
0.014583,-190.608269,46.733771,107.370290,5.020398,5.408089,1.352420,-6.695178,-5.164299,-1.061882,6.624763,-0.245336,0.332395,-0.005818,5.883538,188.571346,0
0.015625,-148.073892,-3.808137,174.887562,6.332358,3.377330,3.303058,-6.601148,-3.087501,-3.080324,6.487715,-0.267254,0.331938,0.005384,4.515028,188.571415,0
0.016667,-87.017212,-55.664206,197.507562,6.807378,0.828230,5.105113,-5.605991,-0.569612,-4.929555,5.642584,-0.201500,0.328541,-0.035692,3.417958,188.721886,0
0.017708,-35.102587,-135.685935,174.249380,6.354978,-1.717319,6.137580,-4.023144,2.018116,-5.944819,4.024654,-0.208806,0.330697,-0.054364,2.060758,188.571190,0
0.018750,14.611592,-187.494647,124.104835,5.371008,-3.804883,5.653730,-1.409879,4.168430,-5.650714,1.500682,-0.164970,0.320506,0.001650,0.104128,188.495734,0
0.019792,76.031233,-196.208361,61.953018,4.149528,-5.952801,4.868903,1.508985,6.190093,-4.788546,-1.354490,-0.099216,0.294507,0.005384,-2.338832,188.571058,0
0.020833,147.012601,-162.217773,11.725745,3.188178,-6.794217,3.436403,3.714785,7.211951,-3.507379,-3.589138,-0.048074,0.304763,-0.039427,-2.938261,188.721980,0
0.021875,192.178438,-97.918615,-35.393345,2.238138,-6.449840,1.245745,5.603231,6.825998,-1.339871,-5.450710,-0.015197,0.323576,-0.028224,-3.051361,188.571114,0
0.022917,190.136788,-46.394046,-107.555163,0.745218,-5.260497,-1.123976,6.641485,5.756354,1.065337,-6.554710,0.006721,0.331938,-0.043161,-1.083422,188.571147,0
0.023958,147.318848,4.112345,-175.616071,-0.589362,-3.279442,-3.135572,6.523947,3.683231,3.075721,-6.436696,0.021333,0.333049,-0.043161,0.454738,188.571100,0
0.025000,86.647813,56.181521,-197.656980,-0.962592,-0.648686,-4.941437,5.575806,1.080800,4.945096,-5.629634,-0.011544,0.331219,-0.031958,1.563118,188.721880,0
0.026042,34.891983,136.617625,-174.162435,-0.578052,1.921716,-5.916756,3.910682,-1.437089,5.936187,-3.973635,-0.051727,0.321747,-0.069301,2.852458,188.571207,0
0.027083,-14.788169,187.384479,-124.017890,0.439848,4.027031,-5.463385,1.305253,-3.605781,5.650140,-1.468697,-0.084604,0.304110,-0.024490,4.854328,188.495754,0
0.028125,-76.672852,196.299461,-61.653345,1.650018,6.153648,-4.709036,-1.609694,-5.601714,4.856462,1.432158,-0.135746,0.294049,-0.050629,7.240738,188.646502,0
0.029167,-147.189177,161.894498,-11.296073,2.633988,6.963111,-3.253677,-3.842919,-6.641951,3.506805,3.647771,-0.208806,0.303848,-0.009553,7.715758,188.721844,0
0.030208,-193.239729,97.784769,35.669381,3.550098,6.682639,-1.070639,-5.774463,-6.255997,1.335269,5.490309,-0.201500,0.322205,-0.002084,8.111608,188.571031,0
0.031250,-190.211282,46.532504,107.736654,5.009088,5.425841,1.340991,-6.726522,-5.197381,-1.069940,6.636184,-0.241683,0.330370,-0.050629,5.702578,188.495705,0
0.032292,-147.438712,-3.748941,176.033926,6.434148,3.423484,3.364016,-6.632491,-3.153664,-3.128670,6.563853,-0.274560,0.336903,-0.009553,4.164418,188.571008,0
0.033333,-86.540827,-55.900992,197.212107,6.807378,0.760775,5.177500,-5.645171,-0.521827,-4.989987,5.650198,-0.208806,0.331677,-0.039427,3.406648,188.721858,0
0.034375,-34.750970,-136.858024,174.213926,6.377598,-1.784775,6.202347,-4.050570,2.062225,-6.009280,4.055109,-0.194194,0.323511,-0.009553,2.049448,188.571089,0
0.035417,14.838442,-187.044754,123.561199,5.393628,-3.861687,5.703258,-1.378535,4.208863,-5.670858,1.523523,-0.135746,0.312798,-0.020755,0.126748,188.495749,0
0.036458,76.813865,-196.788486,61.480290,4.160838,-5.984754,4.914621,1.528575,6.234202,-4.861065,-1.396366,-0.062686,0.295748,-0.013287,-2.395381,188.646523,0
0.037500,146.695011,-161.460059,11.453927,3.165558,-6.808418,3.493551,3.746128,7.274439,-3.543639,-3.638628,0.006721,0.304763,-0.039427,-2.757301,188.721918,0
0.038542,193.153893,-97.350329,-35.558800,2.204208,-6.538597,1.253364,5.689426,6.848052,-1.351958,-5.462131,-0.007891,0.323315,-0.054364,-3.040051,188.571123,0
0.039583,189.581005,-45.766564,-107.945163,0.767838,-5.274698,-1.139216,6.653239,5.763706,1.049222,-6.566131,-0.015197,0.333375,-0.039427,-1.094732,188.495749,0
0.040625,147.023943,4.337291,-176.348798,-0.611982,-3.261690,-3.162241,6.563126,3.690583,3.120038,-6.474765,0.054210,0.341671,-0.039427,0.420808,188.571136,0
0.041667,86.432306,56.560378,-197.408798,-0.985212,-0.620283,-4.960486,5.548380,1.135936,4.941067,-5.618214,0.028639,0.319853,-0.028224,1.597048,188.721853,0
0.042708,34.245461,137.245107,-174.292435,-0.532812,1.900414,-5.985333,3.926353,-1.433413,5.992590,-4.011704,-0.018850,0.324687,-0.024490,2.875078,188.571138,0
0.043750,-15.275896,187.479194,-123.367890,0.439848,4.023481,-5.482434,1.262155,-3.557997,5.674313,-1.430628,-0.080951,0.311295,0.001650,4.831708,188.495741,0
0.044792,-76.990442,196.690158,-60.589709,1.661328,6.114595,-4.686177,-1.664545,-5.638471,4.828260,1.451192,-0.128440,0.292547,-0.020755,7.285978,188.646513,0
0.045833,-147.574822,161.622195,-10.764254,2.667918,7.005714,-3.272726,-3.819411,-6.660330,3.522921,3.659192,-0.208806,0.304632,-0.028224,7.828858,188.721927,0
0.046875,-193.580004,97.038894,35.929381,3.595338,6.671988,-1.009681,-5.735283,-6.270700,1.282894,5.482695,-0.205153,0.323446,-0.054364,8.032438,188.571091,0
0.047917,-189.973089,45.762950,108.150290,5.009088,5.464894,1.333371,-6.718686,-5.219436,-1.090084,6.670446,-0.256295,0.331611,-0.039427,5.849608,188.495770,0
0.048958,-146.894272,-4.175155,176.376653,6.411528,3.441235,3.379255,-6.616819,-3.120582,-3.160900,6.556239,-0.227071,0.338013,-0.005818,4.413238,188.646449,0
0.050000,-86.053099,-56.303528,197.283016,6.796068,0.785627,5.154641,-5.672596,-0.536530,-5.002073,5.676846,-0.234377,0.327496,-0.035692,3.406648,188.646360,0
0.051042,-33.934310,-137.296077,174.166653,6.377598,-1.763473,6.190918,-4.089749,2.003413,-5.993164,4.055109,-0.216112,0.335204,-0.050629,2.026828,188.571006,0
0.052083,15.258115,-187.435450,122.970290,5.371008,-3.922042,5.710878,-1.358946,4.205188,-5.731291,1.523523,-0.194194,0.313124,-0.039427,0.092818,188.495758,0
0.053125,77.267565,-196.788486,60.794836,4.126908,-5.970553,4.945100,1.540329,6.248905,-4.873151,-1.346876,-0.091910,0.295879,-0.020755,-2.406691,188.721889,0
0.054167,147.091998,-161.093041,10.697564,3.154248,-6.819069,3.455452,3.800979,7.289142,-3.547668,-3.634821,-0.037115,0.303718,-0.024490,-2.915641,188.646484,0
0.055208,193.618935,-96.284794,-35.818800,2.215518,-6.538597,1.219076,5.685508,6.899513,-1.287497,-5.500200,0.010374,0.321421,-0.039427,-3.085291,188.571134,0
0.056250,189.320128,-45.115403,-108.169708,0.756528,-5.331503,-1.135406,6.657157,5.774733,1.089510,-6.592779,0.021333,0.329390,-0.009553,-1.038182,188.495756,0
0.057292,145.957748,4.645113,-177.116980,-0.645912,-3.272341,-3.173671,6.645403,3.686907,3.124067,-6.512834,0.017680,0.340234,-0.043161,0.567838,188.721915,0
0.058333,85.661016,56.868200,-197.562434,-0.973902,-0.641585,-4.979535,5.567970,1.084476,4.933009,-5.671510,0.014027,0.333114,-0.050629,1.597048,188.571189,0
0.059375,33.564911,138.133053,-174.138798,-0.532812,1.943018,-6.031051,4.004712,-1.462819,6.024821,-4.023124,-0.022503,0.323707,-0.020755,2.852458,188.571178,0
0.060417,-15.514089,187.396319,-122.753344,0.405918,4.080285,-5.493864,1.242566,-3.642539,5.734746,-1.434435,-0.080951,0.309336,-0.024490,4.854328,188.495716,0
0.061458,-77.954554,196.926943,-60.329709,1.672638,6.182050,-4.754754,-1.648873,-5.631120,4.876606,1.470226,-0.161317,0.293527,-0.028224,7.274668,188.721934,0
0.062500,-147.245890,160.935516,-10.338800,2.645298,6.995064,-3.307015,-3.870344,-6.682384,3.522921,3.697261,-0.216112,0.305024,-0.035692,7.715758,188.571067,0
0.063541,-194.589487,96.198305,36.213018,3.617958,6.778497,-1.059209,-5.797970,-6.340539,1.294980,5.577867,-0.230724,0.322139,-0.024490,8.111608,188.571123,0
0.064583,-189.462676,45.111789,108.327563,5.020398,5.493296,1.356230,-6.765701,-5.226787,-1.122315,6.689481,-0.270907,0.329260,-0.031958,5.668648,188.495635,0
0.065625,-145.952845,-4.459298,177.345744,6.366288,3.462537,3.402114,-6.706932,-3.179394,-3.193131,6.620957,-0.238030,0.341802,-0.031958,4.073938,188.721965,0
0.066667,-85.395234,-56.563992,197.023016,6.807378,0.767875,5.215599,-5.684350,-0.562260,-5.062506,5.650198,-0.223418,0.334616,-0.002084,3.395338,188.571122,0
0.067708,-33.231075,-138.337935,174.143017,6.377598,-1.802526,6.259495,-4.089749,2.065901,-6.110000,4.112212,-0.179582,0.323968,-0.039427,2.049448,188.571123,0
0.068750,15.587047,-187.092111,122.556653,5.348388,-3.914942,5.745166,-1.351110,4.227242,-5.719204,1.538751,-0.139399,0.313778,-0.046895,0.149368,188.495749,0
0.069792,77.846033,-197.404128,60.215745,4.104288,-6.059310,4.979388,1.528575,6.311392,-4.917468,-1.415401,-0.091910,0.295356,-0.024490,-2.429311,188.721842,0
0.070833,146.763066,-160.548434,10.319382,3.165558,-6.836820,3.466882,3.797062,7.278115,-3.535581,-3.619593,-0.051727,0.306331,-0.050629,-2.768611,188.571154,0
0.071875,194.469623,-95.728347,-36.090618,2.226828,-6.609603,1.272413,5.685508,6.903188,-1.319727,-5.530655,0.014027,0.322923,-0.013287,-3.085291,188.571046,0
0.072917,188.821058,-44.405046,-108.500617,0.756528,-5.310201,-1.116357,6.657157,5.778409,1.073395,-6.627041,0.014027,0.337883,-0.031958,-1.072112,188.495712,0
0.073958,145.526733,5.035809,-177.459707,-0.589362,-3.314944,-3.139382,6.653239,3.690583,3.136153,-6.520448,0.006721,0.342913,-0.039427,0.499978,188.646552,0
0.075000,84.946438,57.306253,-197.219707,-0.939972,-0.669987,-4.964296,5.611067,1.128585,5.025672,-5.656283,-0.004238,0.330501,-0.050629,1.619668,188.571107,0
0.076042,32.714223,138.476392,-174.209707,-0.566742,1.964319,-6.004382,4.020384,-1.477522,6.012735,-4.042159,-0.059033,0.319396,-0.009553,2.897698,188.571136,0
0.077083,-15.922419,187.408158,-122.398799,0.451158,4.055433,-5.482434,1.293499,-3.675621,5.678342,-1.468697,-0.088257,0.309532,-0.039427,4.843018,188.495694,0
0.078125,-78.079322,197.175568,-59.774254,1.650018,6.153648,-4.762374,-1.605776,-5.671553,4.888692,1.439771,-0.121134,0.294311,-0.020755,7.319908,188.721831,0
0.079167,-147.382000,160.793445,-9.877891,2.656608,7.002164,-3.287966,-3.815493,-6.671357,3.563209,3.708681,-0.190541,0.306984,-0.020755,7.783618,188.571129,0
0.080208,-194.634857,95.736573,36.319381,3.595338,6.742994,-1.036350,-5.805806,-6.325836,1.331240,5.596902,-0.238030,0.324687,-0.024490,8.066368,188.571044,0
0.081250,-189.247169,44.650057,108.646653,5.043018,5.479095,1.321941,-6.722604,-5.256193,-1.098142,6.674253,-0.248989,0.331873,-0.054364,5.826988,188.563410,0
0.082292,-145.521830,-4.885512,177.511198,6.434148,3.469637,3.386875,-6.753947,-3.197773,-3.152843,6.586695,-0.227071,0.337948,-0.065566,4.334068,188.721213,0
0.083333,-84.873479,-56.966527,197.164834,6.796068,0.792727,5.200359,-5.688268,-0.525503,-5.006102,5.688267,-0.223418,0.332657,-0.035692,3.395338,188.570700,0
0.084375,-32.550525,-138.468167,174.036653,6.377598,-1.802526,6.240446,-4.066241,2.065901,-6.089856,4.108405,-0.197847,0.306853,-0.013287,2.026828,188.570709,0
0.085417,15.961350,-187.423611,122.190290,5.314458,-3.914942,5.714688,-1.386371,4.245621,-5.727262,1.557785,-0.135746,0.301105,-0.005818,0.092818,188.495325,0
0.086458,78.220335,-197.202860,59.707563,4.138218,-6.016706,4.967959,1.469806,6.318744,-4.913439,-1.377332,-0.084604,0.292351,-0.073035,-2.418001,188.721427,0
0.087500,147.057971,-160.430041,9.976654,3.131628,-6.843921,3.524029,3.769636,7.278115,-3.579898,-3.623400,-0.059033,0.308486,-0.020755,-2.904331,188.570779,0
0.088542,194.583048,-95.266615,-36.279709,2.204208,-6.602502,1.299082,5.685508,6.914216,-1.388217,-5.507814,0.010374,0.324295,-0.028224,-3.107911,188.570678,0
0.089583,188.662263,-43.895957,-108.807890,0.767838,-5.349254,-1.116357,6.688500,5.782084,1.069366,-6.649882,0.043251,0.323772,-0.035692,-1.004252,188.495436,0
0.090625,144.687388,5.225238,-177.991526,-0.623292,-3.343347,-3.188910,6.688500,3.719989,3.164355,-6.596586,0.010374,0.317371,-0.039427,0.635698,188.721512,0
0.091666,84.288573,57.448325,-197.243344,-0.985212,-0.620283,-5.002394,5.599313,1.099179,5.013586,-5.648669,-0.004238,0.340104,-0.050629,1.653598,188.570613,0
0.092708,32.249181,139.103874,-173.985162,-0.544122,1.974970,-6.076769,4.059563,-1.488549,6.032879,-4.057386,-0.048074,0.299014,-0.050629,2.875078,188.570178,0
0.093750,-16.330749,187.502872,-121.807890,0.428538,4.083835,-5.516723,1.266073,-3.616809,5.686400,-1.464890,-0.106522,0.292155,-0.050629,4.910878,188.571096,0
0.094791,-78.873297,197.341318,-59.455163,1.672638,6.203351,-4.792853,-1.566596,-5.711986,4.900779,1.462613,-0.139399,0.296140,-0.017021,7.308598,188.721967,0
0.095833,-147.189177,160.189641,-9.665164,2.667918,7.019915,-3.295586,-3.846837,-6.693411,3.522921,3.720102,-0.205153,0.303914,-0.028224,7.693138,188.571132,0
0.096875,-195.315407,95.120930,36.626654,3.606648,6.789147,-1.070639,-5.848903,-6.384648,1.286923,5.585481,-0.212459,0.323903,-0.009553,8.156848,188.571076,0
0.097917,-188.691386,44.152807,108.894835,5.043018,5.454243,1.356230,-6.785291,-5.186354,-1.126344,6.697095,-0.245336,0.321813,-0.002084,5.623408,188.495723,0
0.098958,-144.897992,-5.015744,178.173016,6.445458,3.466087,3.417354,-6.753947,-3.131610,-3.201189,6.697095,-0.274560,0.311622,0.001650,4.062628,188.721851,0
0.100000,-84.272327,-57.179635,196.857562,6.807378,0.774976,5.230838,-5.719611,-0.540206,-5.010131,5.711108,-0.248989,0.331677,-0.058098,3.406648,188.571089,0
0.101042,-32.028770,-139.214042,174.036653,6.366288,-1.788325,6.259495,-4.089749,2.084280,-6.118058,4.108405,-0.205153,0.325275,-0.013287,2.060758,188.571156,0
0.102083,16.244913,-186.997397,121.670290,5.337078,-3.925592,5.756596,-1.370700,4.245621,-5.751435,1.538751,-0.146705,0.318808,-0.028224,0.104128,188.495749,0
0.103125,78.696720,-197.581718,59.282109,4.115598,-6.006055,4.998438,1.528575,6.340798,-4.933583,-1.350683,-0.069992,0.296205,-0.031958,-2.440621,188.721840,0
0.104167,146.853806,-159.802559,9.681200,3.142938,-6.854572,3.485931,3.753964,7.267088,-3.543639,-3.627207,-0.062686,0.309662,-0.054364,-2.779921,188.571100,0
0.105208,195.195543,-94.781204,-36.575163,2.226828,-6.606052,1.283843,5.732523,6.965676,-1.335843,-5.523041,0.006721,0.326059,-0.061832,-3.107911,188.571087,0
0.106250,188.174535,-43.671010,-108.973344,0.756528,-5.317301,-1.093498,6.661075,5.848248,1.069366,-6.630848,0.003068,0.313582,-0.046895,-1.049492,188.495660,0
0.107292,144.449196,5.485702,-178.239707,-0.634602,-3.343347,-3.162241,6.668911,3.745719,3.164355,-6.585165,0.003068,0.314823,-0.031958,0.556528,188.721904,0
0.108333,84.061723,57.874539,-196.876980,-0.985212,-0.645135,-4.960486,5.611067,1.073449,4.985384,-5.633441,0.006721,0.343239,-0.046895,1.653598,188.571212,0
0.109375,31.750111,139.541928,-174.044253,-0.578052,1.925266,-6.050100,4.028220,-1.510604,6.057052,-4.038352,-0.033462,0.315933,-0.061832,2.897698,188.571089,0
0.110417,-16.444174,187.348962,-121.713344,0.496398,4.034131,-5.512913,1.258237,-3.602106,5.678342,-1.423014,-0.088257,0.280005,-0.039427,4.854328,188.495700,0
0.111458,-79.032092,197.353158,-59.147890,1.683948,6.174949,-4.758564,-1.609694,-5.697283,4.916894,1.458806,-0.135746,0.297969,-0.024490,7.342528,188.721934,0
0.112500,-147.472740,160.035731,-9.464254,2.713158,6.987963,-3.299395,-3.866426,-6.689736,3.522921,3.708681,-0.190541,0.306592,-0.046895,7.783618,188.571020,0
0.113542,-195.451517,94.919662,36.922109,3.629268,6.739443,-1.055399,-5.805806,-6.362594,1.294980,5.612129,-0.230724,0.326516,-0.028224,8.100298,188.495763,0
0.114583,-188.589304,44.105450,109.261199,5.054328,5.447142,1.352420,-6.793127,-5.223111,-1.114257,6.651412,-0.270907,0.335727,-0.024490,5.826988,188.571132,0
0.115625,-144.591745,-5.205173,178.303016,6.445458,3.466087,3.413544,-6.726522,-3.168367,-3.168958,6.613343,-0.263601,0.332853,-0.024490,4.322758,188.721925,0
0.116666,-84.158902,-57.605849,196.786653,6.762138,0.774976,5.249887,-5.684350,-0.547557,-5.042362,5.699688,-0.238030,0.329978,-0.046895,3.417958,188.571132,0
0.117708,-31.824605,-139.391631,173.942107,6.366288,-1.791875,6.255685,-4.070159,2.106334,-6.073741,4.100792,-0.183235,0.311295,-0.043161,2.015518,188.495694,0
0.118750,16.267598,-187.340736,121.753017,5.337078,-3.914942,5.726117,-1.366782,4.201512,-5.719204,1.493068,-0.139399,0.321355,-0.017021,0.058888,188.571069,0
0.119791,79.184448,-197.368610,59.530290,4.149528,-6.073511,4.998438,1.524657,6.348150,-4.905382,-1.403980,-0.084604,0.297446,-0.017021,-2.474551,188.646493,0
0.120833,147.239451,-159.743362,9.622109,3.165558,-6.811969,3.516410,3.757882,7.300169,-3.571841,-3.631014,-0.062686,0.308225,-0.046895,-2.859091,188.571152,0
0.121875,195.388365,-94.686490,-36.882436,2.238138,-6.602502,1.264794,5.724687,6.910540,-1.327785,-5.519234,0.010374,0.326255,-0.017021,-3.096601,188.495725,0
0.122917,187.981713,-43.730207,-109.505163,0.779148,-5.281799,-1.127786,6.672828,5.774733,1.085481,-6.623234,0.028639,0.336445,-0.020755,-1.004252,188.571102,0
0.123958,144.040866,5.426505,-178.747889,-0.600672,-3.364648,-3.185100,6.672828,3.697934,3.144211,-6.581358,-0.000585,0.329586,-0.024490,0.647008,188.646661,0
0.125000,83.925613,58.075807,-196.758798,-0.962592,-0.613183,-4.979535,5.634575,1.088152,4.989413,-5.648669,0.003068,0.324230,-0.020755,1.630978,188.571087,0
0.126042,31.897563,140.133892,-173.985162,-0.521502,1.950118,-6.027241,4.039974,-1.495901,6.093311,-4.087842,-0.018850,0.315607,-0.024490,2.863768,188.495671,0
0.127083,-16.568941,187.408158,-121.855162,0.496398,4.101587,-5.520532,1.293499,-3.660918,5.706544,-1.426821,-0.099216,0.317762,-0.043161,4.933498,188.571143,0
0.128125,-79.848752,197.353158,-59.549709,1.717878,6.245955,-4.811902,-1.594022,-5.734041,4.957182,1.451192,-0.168623,0.296336,-0.009553,7.319908,188.646594,0
