1-Time,2-VGERA,3-VGERB,4-VGERC,5-VN,6-IGERAN,7-IGERBN,8-IGERCN,9-IGERAT,10-IGERBT,11-IGERCT,12-IN,13-IFD,14-IFAULT,15-VFAULT,16-Speed (rad/s),17-Active Power,18-Reactive Power,19-FAULT 
0.000000,-142.167259,169.878418,-20.579917,-0.158622,6.742875,-3.842624,-2.850622,-6.492275,3.794453,2.938226,0.077375,0.310966,0.003860,-52.333483,188.420341,1481.807427,-888.723323,0
0.001042,-183.208588,112.703709,29.339150,0.775900,6.372258,-1.626857,-4.598111,-6.150463,1.465021,4.693641,0.106545,0.320543,-0.018440,-57.467279,188.495711,1483.050173,-888.861348,0
0.002083,-193.943517,51.523951,96.829535,2.093238,5.741109,0.932314,-6.256679,-5.470638,-0.976568,6.247240,0.157591,0.286369,-0.007290,-52.479841,188.420260,1484.690864,-888.650515,0
0.003125,-158.473051,0.198257,158.596482,3.264206,3.998109,3.049967,-6.415190,-3.712208,-3.094625,6.300550,0.124775,0.335357,-0.011006,-35.198313,188.495655,1485.820658,-888.828278,0
0.004167,-94.018277,-47.122389,205.501935,4.209987,1.631299,4.995918,-5.850736,-1.273953,-5.078955,5.763645,0.128422,0.331843,-0.022156,-15.192270,188.495674,1487.001567,-889.050196,0
0.005208,-42.434118,-116.958219,184.200054,3.770874,-0.757528,6.050656,-4.373876,1.213676,-6.049551,4.171967,0.084667,0.294086,-0.014723,-2.301488,188.495613,1487.804363,-889.130660,0
0.006250,7.093455,-181.778929,134.730599,2.870130,-3.069296,6.455381,-2.440812,3.515207,-6.342887,2.226160,0.019036,0.286920,-0.029590,10.127702,188.420296,1488.380598,-889.076837,0
0.007292,61.920692,-194.592735,73.765662,1.687904,-4.893024,5.412907,0.350531,5.425553,-5.251505,-0.618298,0.015390,0.322610,-0.037023,30.561562,188.495785,1489.349162,-889.173770,0
0.008333,142.308361,-170.151369,21.379805,0.730863,-6.056247,3.912563,2.813254,6.599106,-3.832278,-2.948698,-0.061180,0.315582,-0.014723,52.290128,188.496060,1490.943922,-888.737305,0
0.009375,183.202791,-113.364246,-29.195452,-0.237437,-5.722325,1.688619,4.525948,6.238305,-1.451081,-4.673650,-0.079410,0.325642,-0.018440,56.782200,188.495769,1491.616760,-888.920905,0
0.010417,193.949020,-52.184488,-96.989629,-1.566034,-5.043472,-0.858288,6.161319,5.547086,0.981880,-6.219634,-0.123164,0.308417,-0.022156,52.841786,188.495765,1492.178771,-888.707657,0
0.011458,159.066150,-0.694364,-158.489239,-2.748261,-3.395879,-2.930971,6.335295,3.803847,3.065427,-6.318638,-0.112226,0.342453,-0.025873,33.286076,188.495866,1492.537913,-888.849629,0
0.012500,94.972974,47.037357,-205.066597,-3.660264,-1.032738,-4.942332,5.809502,1.365592,5.105836,-5.796963,-0.097641,0.334943,0.022444,15.351565,188.495796,1492.763686,-889.752219,0
0.013542,43.648713,116.779227,-183.861930,-3.266189,1.400122,-6.078833,4.367436,-1.129632,6.020353,-4.247172,-0.097641,0.333703,-0.014723,4.442248,188.495694,1492.849275,-890.005560,0
0.014583,-6.342157,181.646918,-134.696266,-2.365445,3.689873,-6.414060,2.426641,-3.385588,6.387023,-2.289941,-0.032010,0.324608,0.011294,-9.551849,188.495761,1492.947030,-889.731419,0
0.015625,-61.971689,194.073138,-74.095879,-1.205737,5.535618,-5.351145,-0.372435,-5.326318,5.205053,0.535478,0.033621,0.321094,-0.007290,-29.467825,188.495645,1492.336987,-889.267453,0
0.016667,-142.664456,169.960633,-21.697871,-0.158622,6.709849,-3.891682,-2.862220,-6.488477,3.820335,2.934418,0.088314,0.314273,-0.025873,-52.333483,188.495846,1492.596005,-889.471173,0
0.017708,-183.276387,113.889955,29.290544,0.787160,6.364919,-1.610504,-4.590379,-6.169453,1.477963,4.655563,0.102898,0.323713,0.000144,-55.947405,188.495727,1492.917984,-889.478625,0
0.018750,-193.977417,53.097782,97.449270,2.138276,5.726431,0.899609,-6.245081,-5.508617,-0.972254,6.232009,0.110191,0.323092,-0.037023,-51.444075,188.495694,1493.414208,-889.792808,0
0.019792,-159.309246,1.337523,158.742302,3.275465,4.027465,2.951852,-6.372663,-3.727400,-3.060115,6.300550,0.117483,0.338802,-0.022156,-35.142021,188.495727,1493.587971,-889.991364,0
0.020833,-95.374268,-46.887489,205.416873,4.164950,1.627629,4.971389,-5.889397,-1.319527,-5.087582,5.748413,0.143006,0.337217,-0.025873,-15.293595,188.495645,1493.792786,-890.241623,0
0.021875,-44.151707,-117.193119,184.187903,3.793393,-0.794223,6.075185,-4.400939,1.213676,-6.058179,4.187198,0.066437,0.337424,-0.033307,-2.605463,188.495640,1493.991379,-890.928370,0
0.022917,6.483259,-182.213495,134.657689,2.881389,-3.058287,6.418588,-2.491072,3.549388,-6.429162,2.252814,0.084667,0.344245,-0.033307,10.397902,188.495783,1495.191756,-891.705013,0
0.023958,62.282290,-194.534010,74.227425,1.721681,-4.848990,5.400643,0.381460,5.410361,-5.268760,-0.614490,0.029975,0.320199,-0.025873,30.550303,188.495792,1495.417463,-891.605028,0
0.025000,143.054156,-170.092644,21.647142,0.697085,-6.056247,3.924827,2.836450,6.644681,-3.823650,-2.990584,-0.028364,0.316823,-0.018440,53.213311,188.495685,1495.893860,-892.459426,0
0.026042,183.406189,-113.552166,-29.316969,-0.259955,-5.803053,1.700883,4.533680,6.245901,-1.481278,-4.711728,-0.097641,0.325297,-0.014723,57.288824,188.495682,1496.462921,-892.719731,0
0.027083,193.858620,-52.466368,-97.244814,-1.611071,-5.113192,-0.882817,6.157453,5.607853,0.994821,-6.272943,-0.137749,0.310415,-0.033307,52.853044,188.495645,1497.509203,-893.333986,0
0.028125,158.828852,-0.670874,-158.683666,-2.759520,-3.410557,-2.935059,6.358492,3.762070,3.095623,-6.345292,-0.097641,0.334943,-0.025873,35.335091,188.495620,1497.383300,-893.965195,0
0.029167,94.961674,47.013867,-205.455450,-3.660264,-1.047416,-5.011830,5.875226,1.357996,5.105836,-5.781732,-0.093995,0.343556,0.003860,15.779381,188.495743,1497.287818,-894.078016,0
0.030208,43.467914,117.202047,-183.716110,-3.232411,1.400122,-6.091097,4.375169,-1.110643,6.106629,-4.231940,-0.039302,0.336183,0.003860,4.183307,188.495609,1498.006136,-894.446928,0
0.031250,-6.511656,182.069738,-134.210199,-2.309148,3.748585,-6.438588,2.445972,-3.457748,6.391337,-2.267094,-0.017425,0.326537,-0.025873,-9.799532,188.420226,1498.057326,-895.215150,0
0.032292,-61.869990,194.296294,-73.172352,-1.149440,5.594330,-5.420643,-0.442025,-5.402276,5.265445,0.604019,0.011744,0.329293,-0.011006,-29.816833,188.495837,1498.808883,-896.347784,0
0.033333,-142.766155,170.160298,-20.750040,-0.158622,6.775900,-3.944828,-2.900881,-6.587222,3.816021,2.999151,0.088314,0.312826,-0.033307,-52.322224,188.495743,1499.779454,-897.524870,0
0.034375,-183.445886,112.586258,29.545729,0.787160,6.423630,-1.659562,-4.644505,-6.192240,1.426197,4.750759,0.081021,0.322817,-0.037023,-57.579862,188.495725,1499.912325,-898.513556,0
0.035417,-194.079116,51.770596,97.570787,2.138276,5.752117,0.920050,-6.299207,-5.542798,-1.019705,6.243433,0.132068,0.327020,-0.014723,-52.355999,188.495662,1500.330607,-898.566162,0
0.036458,-158.122754,0.444902,159.070397,3.320502,4.042143,2.996821,-6.461584,-3.734995,-3.116193,6.361476,0.124775,0.330120,-0.003573,-34.838046,188.495707,1501.047698,-898.815693,0
0.037500,-93.984377,-47.251584,205.744968,4.198728,1.634968,5.024535,-5.931925,-1.319527,-5.113465,5.801723,0.161237,0.345140,-0.018440,-14.843262,188.495774,1501.879066,-898.583038,0
0.038542,-42.694016,-117.521979,183.835504,3.770874,-0.819909,6.116066,-4.424135,1.209878,-6.118571,4.187198,0.091960,0.339146,-0.007290,-2.155130,188.495779,1502.514516,-898.294697,0
0.039583,7.229054,-182.483630,134.268835,2.847611,-3.113329,6.475822,-2.452411,3.560781,-6.394652,2.222352,0.066437,0.320130,-0.022156,10.251544,188.495725,1502.111711,-898.096239,0
0.040625,62.350089,-194.534010,72.963652,1.665385,-4.948066,5.380202,0.396924,5.459734,-5.273074,-0.622106,-0.024718,0.300838,-0.025873,30.685403,188.495680,1502.436611,-898.137423,0
0.041667,142.895957,-170.221840,20.395520,0.663307,-6.085602,3.945268,2.859647,6.629489,-3.832278,-3.024854,-0.028364,0.312344,-0.003573,52.200062,188.495747,1502.536135,-897.981268,0
0.042708,183.338390,-112.377665,-29.596457,-0.271215,-5.737003,1.680442,4.595538,6.257294,-1.420885,-4.749807,-0.079410,0.321714,-0.040740,56.996108,188.495626,1502.238803,-898.393488,0
0.043750,194.016819,-51.127437,-97.281269,-1.577294,-5.113192,-0.874640,6.199980,5.607853,1.020704,-6.295790,-0.134103,0.323230,0.018727,52.650394,188.495707,1502.435259,-898.379028,0
0.044792,158.275156,0.292217,-158.841638,-2.770779,-3.439913,-2.975940,6.389421,3.826635,3.082682,-6.352908,-0.093995,0.355751,-0.011006,32.723160,188.495736,1503.283852,-897.428795,0
0.045833,93.673482,47.401452,-205.589119,-3.626486,-1.025399,-4.975037,5.855895,1.373188,5.075640,-5.793155,-0.093995,0.349619,-0.014723,14.709841,188.495727,1503.450595,-896.417387,0
0.046875,42.281422,117.272517,-183.521683,-3.221151,1.407461,-6.070657,4.382901,-1.076461,6.076432,-4.247172,-0.053887,0.310277,0.011294,4.014432,188.495761,1503.552447,-895.220075,0
0.047917,-7.212251,182.328128,-133.736284,-2.331667,3.803627,-6.422236,2.438239,-3.450152,6.339572,-2.335635,-0.010133,0.261909,-0.018440,-9.686949,188.495721,1503.822456,-894.030056,0
0.048958,-62.163788,194.343274,-72.394645,-1.126922,5.583321,-5.359321,-0.418828,-5.330116,5.312897,0.527862,0.051852,0.306625,-0.007290,-29.524117,188.495611,1504.547442,-892.183126,0
0.050000,-142.754855,169.807948,-20.166760,-0.147362,6.757552,-3.908034,-2.873819,-6.568233,3.807394,2.942034,0.066437,0.314893,-0.011006,-52.254674,188.495761,1504.396626,-891.115711,0
0.051042,-183.163388,112.139948,29.837369,0.820937,6.397944,-1.643209,-4.598111,-6.203634,1.456394,4.666986,0.113837,0.321783,-0.022156,-56.048730,188.495667,1504.443077,-889.717894,0
0.052083,-193.932217,51.030661,97.631545,2.149535,5.722761,0.920050,-6.229616,-5.542798,-0.998137,6.254856,0.135714,0.326262,0.000144,-51.297717,188.420320,1504.630082,-889.267937,0
0.053125,-158.145353,-0.353759,158.948881,3.297983,4.023795,3.004997,-6.407458,-3.746389,-3.068742,6.300550,0.135714,0.345209,-0.014723,-34.669171,188.495624,1504.254982,-888.060579,0
0.054167,-93.419381,-47.451249,205.830030,4.209987,1.631299,5.032711,-5.897130,-1.319527,-5.057386,5.775068,0.146652,0.335426,-0.014723,-14.933328,188.495631,1503.752041,-887.181834,0
0.055208,-42.196820,-117.369294,183.884111,3.759615,-0.775875,6.083361,-4.416403,1.198484,-6.053865,4.232892,0.110191,0.314204,0.007577,-2.391555,188.495674,1503.765980,-886.241648,0
0.056250,7.195154,-182.612825,134.086560,2.881389,-3.105991,6.451293,-2.475608,3.500015,-6.368770,2.283277,0.040913,0.341006,-0.048173,10.544260,188.420195,1504.000818,-884.977233,0
0.057292,62.383989,-194.545755,73.230988,1.721681,-4.915041,5.429260,0.315736,5.433149,-5.329153,-0.576412,0.000805,0.293397,-0.018440,30.719178,188.495738,1504.760192,-884.358823,0
0.058333,143.144556,-170.010429,20.881587,0.685826,-6.081933,3.945268,2.809387,6.618095,-3.849533,-2.944890,-0.046595,0.318338,-0.014723,53.280861,188.495705,1504.922434,-883.383643,0
0.059375,183.281890,-112.835720,-29.681519,-0.237437,-5.700308,1.696795,4.545278,6.230709,-1.498533,-4.681266,-0.061180,0.326400,-0.018440,57.311341,188.495700,1505.093913,-882.065685,0
0.060417,194.050719,-51.808648,-97.694426,-1.599812,-5.116862,-0.862376,6.199980,5.607853,0.938742,-6.204402,-0.119518,0.323024,-0.007290,52.864303,188.420282,1504.935940,-880.601048,0
0.061458,158.478554,-0.318524,-159.060368,-2.770779,-3.388540,-2.922795,6.323696,3.815241,3.056799,-6.379563,-0.115872,0.314067,-0.025873,35.425158,188.495698,1505.097678,-880.802687,0
0.062500,94.362778,47.377962,-205.431147,-3.682783,-1.043747,-4.950508,5.871360,1.414965,5.088581,-5.816002,-0.115872,0.324815,-0.033307,16.038323,188.495731,1505.707481,-880.860866,0
0.063542,43.219316,117.683593,-183.485228,-3.232411,1.341411,-6.046128,4.437027,-1.099249,6.067805,-4.281442,-0.083057,0.347621,-0.029590,4.340924,188.495676,1506.021236,-881.263661,0
0.064583,-6.816753,182.151953,-134.380323,-2.365445,3.675195,-6.438588,2.465302,-3.431163,6.395651,-2.335635,-0.024718,0.330603,-0.014723,-9.923374,188.420423,1506.513903,-881.660882,0
0.065625,-62.265487,194.131864,-73.682722,-1.149440,5.597999,-5.371586,-0.407230,-5.390882,5.299955,0.588788,0.037267,0.307452,0.015011,-30.019483,188.495727,1506.271143,-883.321438,0
0.066667,-143.274652,170.160298,-21.272562,-0.181140,6.731866,-3.883506,-2.924078,-6.564435,3.876414,2.972497,0.088314,0.316960,-0.011006,-52.423549,188.495749,1507.002623,-883.804022,0
0.067708,-183.457186,112.997334,29.606487,0.787160,6.441978,-1.606416,-4.629040,-6.180847,1.460708,4.716488,0.091960,0.326331,0.000144,-57.546087,188.495691,1507.069014,-884.651744,0
0.068750,-194.158215,52.651472,98.117612,2.127016,5.730100,0.936402,-6.256679,-5.516213,-0.989509,6.232009,0.157591,0.327226,-0.007290,-52.389774,188.495658,1506.822140,-885.001505,0
0.069792,-158.314852,1.043898,159.483554,3.286724,4.056820,3.021350,-6.434521,-3.780570,-3.085997,6.346244,0.143006,0.322128,-0.037023,-34.973146,188.495785,1507.589933,-885.821344,0
0.070833,-95.012671,-47.239839,205.526238,4.266283,1.660655,5.028623,-5.916460,-1.319527,-5.083269,5.775068,0.124775,0.347690,-0.022156,-15.237303,188.495555,1507.665158,-886.723440,0
0.071875,-43.733610,-117.721644,183.677532,3.770874,-0.794223,6.071097,-4.404805,1.217474,-6.101316,4.221469,0.095606,0.335012,-0.048173,-2.335263,188.495673,1507.823953,-887.860771,0
0.072917,7.025655,-182.460140,134.426807,2.858871,-3.105991,6.467645,-2.475608,3.526600,-6.390338,2.249007,0.073729,0.331843,-0.011006,10.375386,188.495731,1507.712950,-888.669629,0
0.073958,62.711687,-194.287365,73.911482,1.721681,-4.929719,5.400643,0.389192,5.467330,-5.260133,-0.629722,-0.002841,0.319096,0.000144,30.865536,188.495689,1506.814711,-889.686865,0
0.075000,143.291455,-170.292310,21.209682,0.674567,-6.074594,3.924827,2.844183,6.614298,-3.789140,-2.979160,-0.035656,0.317512,-0.070474,52.211320,188.495767,1506.168689,-890.506226,0
0.076042,183.281890,-112.953170,-29.572154,-0.282474,-5.737003,1.680442,4.549144,6.226911,-1.425199,-4.719344,-0.072118,0.326537,-0.011006,56.962333,188.495678,1505.635675,-891.575322,0
0.077083,194.084619,-51.984823,-97.925307,-1.577294,-5.109523,-0.899169,6.157453,5.558480,1.020704,-6.234865,-0.108580,0.326193,-0.018440,52.627878,188.495769,1505.032727,-892.805967,0
0.078125,158.523754,-0.353759,-159.048216,-2.770779,-3.395879,-2.955500,6.346893,3.826635,3.104251,-6.333869,-0.130457,0.338664,-0.003573,32.813227,188.495761,1504.694296,-893.044748,0
0.079167,94.498377,47.471923,-205.479754,-3.626486,-1.032738,-4.954596,5.821100,1.376986,5.105836,-5.781732,-0.093995,0.324608,-0.048173,14.923749,188.495759,1504.166749,-893.543349,0
0.080208,43.027217,117.648358,-183.436621,-3.232411,1.389114,-6.033863,4.348106,-1.141026,6.050550,-4.193862,-0.064826,0.338939,0.000144,4.059465,188.495721,1502.909246,-894.025594,0
0.081250,-7.031452,182.351618,-133.699829,-2.320407,3.722898,-6.381355,2.422775,-3.400780,6.404278,-2.251862,-0.050241,0.333221,-0.022156,-9.810791,188.571038,1502.243207,-893.980904,0
0.082292,-62.525385,194.143609,-72.856409,-1.171959,5.575982,-5.367498,-0.430427,-5.360499,5.304269,0.581172,0.019036,0.313240,0.015011,-29.704250,188.495716,1502.289644,-893.211918,0
0.083333,-143.116453,169.796203,-20.336884,-0.158622,6.742875,-3.875329,-2.873819,-6.522658,3.781511,2.957265,0.059144,0.312482,-0.022156,-52.198383,188.495729,1500.982710,-892.712830,0
0.084375,-183.265087,112.163438,29.946734,0.809678,6.372258,-1.610504,-4.609709,-6.139070,1.413256,4.716488,0.117483,0.320750,-0.007290,-56.093763,188.495774,1500.103284,-892.531579,0
0.085417,-193.875717,51.418246,97.996095,2.127016,5.689736,0.956843,-6.264412,-5.482032,-1.062843,6.254856,0.139360,0.322335,-0.003573,-51.263942,188.571062,1499.495835,-893.013302,0
0.086458,-158.032354,-0.142348,159.070397,3.297983,4.020126,3.000909,-6.368797,-3.712208,-3.064428,6.304358,0.124775,0.341833,-0.011006,-34.477780,188.495993,1498.408934,-892.386311,0
0.087500,-93.690579,-47.474739,205.830030,4.153690,1.623960,5.032711,-5.831405,-1.239771,-5.130720,5.756029,0.135714,0.328880,0.000144,-14.719420,188.495693,1497.899421,-893.016197,0
0.088542,-42.309819,-117.803859,183.531712,3.815911,-0.808901,6.087449,-4.373876,1.251655,-6.062493,4.171967,0.091960,0.338388,0.003860,-2.211421,188.495830,1497.027472,-892.600361,0
0.089583,7.387253,-182.800745,133.673403,2.825093,-3.131677,6.500351,-2.444679,3.541792,-6.386025,2.218544,0.070083,0.324402,-0.029590,10.589294,188.571118,1496.839579,-892.573073,0
0.090625,62.643887,-194.534010,72.781377,1.699163,-4.937057,5.396555,0.443318,5.467330,-5.273074,-0.652569,0.011744,0.306212,-0.033307,30.685403,188.495671,1496.947634,-892.410451,0
0.091667,143.404454,-169.810764,20.237548,0.674567,-6.111289,3.924827,2.875112,6.640883,-3.797768,-3.036278,-0.061180,0.310484,-0.003573,53.190794,188.495752,1497.292377,-892.697881,0
0.092708,183.485289,-111.896119,-30.191889,-0.304993,-5.810392,1.660002,4.568475,6.215517,-1.420885,-4.749807,-0.083057,0.322128,-0.018440,57.401407,188.495745,1497.397465,-892.479104,0
0.093750,194.028119,-50.728107,-97.986066,-1.633590,-5.076497,-0.923698,6.250240,5.558480,1.029331,-6.234865,-0.134103,0.320061,-0.007290,52.740461,188.571075,1497.439837,-892.059913,0
0.094792,157.710159,0.397922,-159.206188,-2.815817,-3.348176,-2.984117,6.401019,3.792454,3.121506,-6.352908,-0.101287,0.327158,-0.014723,34.862242,188.495589,1497.319256,-892.021781,0
0.095833,93.277985,47.730313,-205.832152,-3.649005,-1.010722,-5.020007,5.875226,1.369390,5.131719,-5.838849,-0.068472,0.352926,-0.018440,15.407857,188.495622,1498.132007,-891.956825,0
0.096875,41.942424,118.059433,-183.157133,-3.209892,1.455164,-6.119714,4.363570,-1.160015,6.141139,-4.277634,-0.072118,0.314067,-0.025873,3.946882,188.495776,1499.886164,-892.067890,0
0.097917,-7.698148,182.692224,-133.396037,-2.297889,3.788949,-6.454941,2.422775,-3.472940,6.481926,-2.289941,-0.021072,0.296084,0.000144,-10.035957,188.495593,1501.364309,-892.614092,0
0.098958,-62.649685,194.284549,-72.054398,-1.160699,5.623685,-5.387938,-0.426560,-5.432659,5.317210,0.619250,0.044560,0.317649,-0.018440,-30.132066,188.495687,1501.789470,-893.382832,0
0.100000,-143.218152,169.890163,-19.595632,-0.113585,6.790578,-3.944828,-2.893149,-6.610010,3.863473,3.010575,0.070083,0.312344,-0.025873,-52.310966,188.495729,1503.518682,-894.002800,0
0.101042,-183.524986,111.153367,30.141161,0.832197,6.475003,-1.602328,-4.663835,-6.241613,1.447766,4.754566,0.073729,0.321370,-0.033307,-57.669928,188.495687,1505.078260,-894.059610,0
0.102083,-194.079116,50.877975,98.312039,2.115757,5.744778,0.985460,-6.361065,-5.557990,-1.054215,6.289127,0.117483,0.324677,-0.037023,-52.265933,188.571127,1506.428149,-893.988789,0
0.103125,-156.958861,-0.412484,159.921014,3.343021,4.023795,3.054055,-6.453852,-3.734995,-3.098938,6.365284,0.157591,0.339835,-0.018440,-34.455263,188.495716,1507.411939,-894.171901,0
0.104167,-92.876985,-47.803599,206.133822,4.187468,1.667994,5.102209,-5.943523,-1.289144,-5.156603,5.775068,0.113837,0.323781,-0.014723,-14.865778,188.569080,1508.239354,-893.688732,0
0.105208,-41.869122,-118.214935,183.179314,3.737096,-0.856604,6.152859,-4.412537,1.247857,-6.157395,4.213853,0.084667,0.334185,-0.011006,-2.290230,188.494893,1509.574411,-893.945007,0
0.106250,7.613251,-182.906450,133.782768,2.858871,-3.179380,6.492174,-2.440812,3.591165,-6.502496,2.252814,0.051852,0.332532,-0.018440,10.521744,188.570397,1511.262471,-894.718019,0
0.107292,62.689087,-194.216895,72.854287,1.676644,-5.014116,5.404731,0.423987,5.543288,-5.337781,-0.652569,-0.002841,0.319647,0.003860,31.146994,188.495832,1512.300571,-895.416775,0
0.108333,143.573953,-170.092644,20.407672,0.708344,-6.170000,3.969797,2.855781,6.697851,-3.853847,-3.051509,-0.039302,0.318545,-0.022156,52.109995,188.494840,1513.459309,-895.885080,0
0.109375,183.643488,-111.931354,-29.790884,-0.282474,-5.792045,1.639561,4.583939,6.295273,-1.442454,-4.784077,-0.053887,0.328398,-0.033307,57.164983,188.494913,1514.535364,-896.480151,0
0.110417,194.254118,-51.644218,-98.277706,-1.532256,-5.135209,-0.940050,6.265704,5.619246,1.025018,-6.307214,-0.108580,0.331429,0.011294,52.537811,188.570495,1515.875333,-897.395506,0
