1-Time,2-VGERA,3-VGERB,4-VGERC,5-VN,6-IGERAN,7-IGERBN,8-IGERCN,9-IGERAT,10-IGERBT,11-IGERCT,12-IN,13-IFD,14-IFAULT,15-VFAULT,16-Speed (rad/s),17-FAULT 
0.000000,112.134412,88.894184,-183.834660,-0.611982,-5.878245,0.208841,5.643893,6.006305,-0.292536,-5.405823,-0.037115,0.587620,-0.065566,-6.048511,188.496038,0
0.001042,29.152678,138.208434,-188.783523,-0.668532,-4.383578,-2.283429,6.408824,4.466166,2.175119,-6.163645,-0.004238,0.589253,-0.065566,-1.818572,188.420625,0
0.002083,-46.876103,168.966416,-159.422728,-0.148272,-2.285364,-4.323282,6.151359,2.411422,4.302843,-6.039120,-0.004238,0.611464,-0.046895,5.906158,188.496035,0
0.003125,-102.340930,192.330884,-82.112121,1.322028,0.448350,-6.049615,4.964784,-0.304958,6.002503,-4.886378,-0.022503,0.599183,-0.046895,7.840168,188.420645,0
0.004167,-146.928300,180.431193,-4.050568,2.814948,2.617570,-6.418694,3.166263,-2.624356,6.527090,-3.167938,-0.044421,0.596504,-0.050629,12.477268,188.496042,0
0.005208,-178.233601,130.380008,64.913447,4.149528,4.871997,-5.942464,0.531916,-4.704831,6.044470,-0.695234,-0.132093,0.584746,-0.080503,15.440488,188.420623,0
0.006250,-192.411727,49.003039,118.218372,5.156118,6.167849,-4.636800,-1.822578,-6.167779,4.827429,1.692081,-0.186888,0.595263,-0.091706,15.836338,188.496033,0
0.007292,-160.505273,-19.894357,167.436175,6.072228,6.647136,-2.664413,-4.136027,-6.572112,2.888557,3.826789,-0.194194,0.606172,-0.061832,16.514938,188.420803,0
0.008333,-112.481126,-88.453487,183.698485,6.422838,5.993885,-0.025305,-5.789024,-6.039128,0.295001,5.545229,-0.241683,0.605519,-0.065566,10.599808,188.420623,0
0.009375,-30.554245,-137.888546,188.856629,6.513318,4.538271,2.431248,-6.565149,-4.535746,-2.181048,6.299492,-0.256295,0.608067,-0.065566,6.358558,188.420479,0
0.010417,45.553934,-168.646528,159.606629,5.925198,2.393903,4.522692,-6.244251,-2.510408,-4.338148,6.142947,-0.245336,0.609700,-0.039427,-0.551852,188.496111,0
0.011458,101.880791,-192.204291,83.133144,4.477518,-0.286557,6.185528,-5.139766,0.176566,-5.979055,5.022225,-0.241683,0.605780,-0.065566,-3.254941,188.496053,0
0.012500,146.910518,-180.050901,5.071591,3.018528,-2.501931,6.562544,-3.307663,2.506991,-6.491051,3.271765,-0.216112,0.593891,-0.054364,-7.224751,188.420567,0
0.013542,178.147765,-130.627923,-64.446402,1.672638,-4.692452,6.062502,-0.647197,4.631575,-5.966465,0.813293,-0.135746,0.587881,-0.061832,-10.640371,188.420714,0
0.014583,192.110383,-48.344886,-117.985228,0.677358,-6.034458,4.800493,1.714761,6.094523,-4.799784,-1.538444,-0.113828,0.568349,-0.087972,-11.194561,188.496006,0
0.015625,160.113189,21.229040,-167.178410,-0.238752,-6.513745,2.816201,3.961045,6.476801,-2.890289,-3.673152,-0.048074,0.563515,-0.073035,-11.499931,188.495997,0
0.016667,111.113587,89.401582,-183.773107,-0.532812,-5.924399,0.236621,5.636430,5.954845,-0.275749,-5.427171,-0.037115,0.610288,-0.046895,-6.116371,188.496016,0
0.017708,28.676293,138.039301,-188.943561,-0.668532,-4.443933,-2.208026,6.416287,4.469842,2.145743,-6.184992,-0.029809,0.591997,-0.046895,-2.214422,188.496033,0
0.018750,-46.785363,168.930173,-159.373485,-0.125652,-2.335068,-4.331219,6.151359,2.404070,4.315433,-6.021331,0.014027,0.613358,-0.031958,6.200218,188.496044,0
0.019792,-102.306903,191.883890,-82.850758,1.333338,0.430599,-6.021835,5.031948,-0.282903,5.964733,-4.925514,-0.044421,0.602514,-0.024490,7.772308,188.496011,0
0.020833,-147.155150,180.552003,-4.912311,2.792328,2.628221,-6.442505,3.188652,-2.576571,6.518696,-3.199958,-0.029809,0.601534,-0.073035,12.511198,188.495964,0
0.021875,-178.018093,131.116943,64.617993,4.092978,4.804542,-5.950401,0.565499,-4.679100,6.073847,-0.713024,-0.128440,0.589645,-0.024490,15.417868,188.420604,0
0.022917,-192.649919,50.283615,118.095266,5.144808,6.135896,-4.624894,-1.811384,-6.167779,4.835823,1.660060,-0.194194,0.595916,-0.069301,16.005988,188.496002,0
0.023958,-160.527958,-19.193664,167.153031,6.072228,6.579681,-2.664413,-4.072594,-6.546381,2.934721,3.794768,-0.216112,0.606499,-0.058098,16.254808,188.496054,0
0.025000,-112.764688,-88.163545,184.030872,6.456768,5.990335,-0.076897,-5.762905,-6.053831,0.290804,5.502535,-0.241683,0.601796,-0.065566,11.040898,188.496076,0
0.026042,-29.919065,-137.598604,188.770455,6.535938,4.492117,2.399499,-6.565149,-4.587207,-2.143277,6.271030,-0.259948,0.612313,-0.039427,6.969298,188.420708,0
0.027083,46.279854,-168.803580,159.471213,5.902578,2.425855,4.419509,-6.240520,-2.499381,-4.283591,6.096695,-0.311090,0.594022,-0.039427,-1.094732,188.495997,0
0.028125,102.107641,-191.696893,82.763826,4.477518,-0.343362,6.153780,-5.132303,0.220675,-5.941284,4.986647,-0.238030,0.595916,-0.009553,-3.775201,188.495940,0
0.029167,146.536216,-180.497895,4.505303,3.018528,-2.519682,6.594293,-3.333783,2.495964,-6.499445,3.282438,-0.227071,0.592454,-0.065566,-7.383091,188.496051,0
0.030208,177.467215,-130.362143,-64.828031,1.729188,-4.713754,6.058534,-0.684510,4.613196,-5.974858,0.820408,-0.146705,0.588012,-0.050629,-10.549891,188.420707,0
0.031250,192.450658,-48.791879,-117.911364,0.711288,-6.027357,4.816367,1.699835,6.098199,-4.833358,-1.545560,-0.095563,0.586052,-0.031958,-11.522551,188.496120,0
0.032292,160.135874,20.178002,-167.215341,-0.261372,-6.478242,2.820169,3.927463,6.465774,-2.894485,-3.673152,-0.051727,0.604343,-0.050629,-11.352901,188.496074,0
0.033333,112.100384,88.664647,-183.920834,-0.623292,-5.903097,0.240590,5.628968,5.936466,-0.284143,-5.452075,-0.022503,0.604213,-0.054364,-6.093751,188.496080,0
0.034375,30.275586,138.015140,-188.882008,-0.713772,-4.397779,-2.315178,6.412555,4.469842,2.196103,-6.170761,-0.037115,0.609112,-0.050629,-1.942982,188.420705,0
0.035417,-45.628428,169.147629,-159.595076,-0.148272,-2.292464,-4.362967,6.132703,2.411422,4.319629,-6.003542,-0.011544,0.610941,-0.043161,5.793058,188.496022,0
0.036458,-102.034683,192.077185,-83.072349,1.322028,0.427049,-6.049615,4.964784,-0.312309,6.019290,-4.879262,-0.040768,0.600228,-0.035692,7.783618,188.420685,0
0.037500,-147.257232,180.394951,-4.936932,2.781018,2.624671,-6.402819,3.084173,-2.617005,6.522893,-3.199958,-0.066339,0.593761,-0.013287,12.454648,188.420611,0
0.038542,-178.483136,130.561222,64.667235,4.115598,4.857796,-5.922621,0.502065,-4.715858,6.044470,-0.631193,-0.139399,0.583113,-0.061832,15.463108,188.420654,0
0.039583,-192.457097,48.894311,117.984470,5.099568,6.185600,-4.624894,-1.874817,-6.156752,4.840019,1.702754,-0.183235,0.587228,-0.035692,15.870268,188.496089,0
0.040625,-160.289765,-20.715858,167.214584,6.026988,6.586782,-2.660445,-4.121102,-6.539030,2.829804,3.844578,-0.212459,0.567304,-0.039427,16.492318,188.496060,0
0.041667,-111.551041,-88.924642,183.760038,6.388908,5.983234,-0.021337,-5.762905,-6.035452,0.265624,5.520324,-0.252642,0.599509,-0.024490,10.565878,188.420680,0
0.042708,-28.864212,-137.671090,189.102841,6.535938,4.492117,2.466965,-6.568881,-4.539422,-2.227211,6.292377,-0.259948,0.604996,-0.076769,6.268078,188.420779,0
0.043750,46.552074,-168.404910,159.520455,5.970438,2.425855,4.510786,-6.277834,-2.503056,-4.308771,6.093137,-0.289172,0.607740,-0.028224,-0.585782,188.496025,0
0.044792,101.926161,-192.216372,82.813068,4.511448,-0.346912,6.201403,-5.136035,0.213323,-6.004235,4.983089,-0.270907,0.602253,-0.028224,-3.254941,188.495982,0
0.045833,146.615613,-180.014658,5.120833,3.041148,-2.555185,6.574450,-3.292738,2.503315,-6.516231,3.303785,-0.216112,0.598399,-0.031958,-7.247371,188.420721,0
0.046875,178.227162,-131.050755,-64.237121,1.717878,-4.745707,6.082345,-0.647197,4.591141,-6.033612,0.823966,-0.132093,0.594153,-0.046895,-10.674301,188.495989,0
0.047917,192.133068,-49.915403,-117.972917,0.699978,-6.034458,4.800493,1.696104,6.116578,-4.833358,-1.542002,-0.088257,0.596831,-0.058098,-11.183251,188.496038,0
0.048958,160.634944,19.163206,-167.338447,-0.238752,-6.513745,2.808264,3.964777,6.469450,-2.869305,-3.701615,-0.055380,0.606368,-0.050629,-11.522551,188.496063,0
0.050000,112.588112,88.507595,-183.834660,-0.566742,-5.917298,0.208841,5.651356,5.976899,-0.296733,-5.395150,-0.022503,0.610418,-0.058098,-6.218161,188.420654,0
0.051042,30.400353,137.701036,-189.066667,-0.713772,-4.429732,-2.303272,6.420018,4.447787,2.191906,-6.188550,-0.004238,0.608197,-0.091706,-2.237042,188.496094,0
0.052083,-46.184210,168.906011,-159.656629,-0.148272,-2.306665,-4.335187,6.125240,2.415097,4.323826,-5.989310,-0.004238,0.608459,-0.076769,6.211528,188.496024,0
0.053125,-101.955285,192.065104,-82.813826,1.288098,0.423498,-6.069458,4.975978,-0.275552,6.006700,-4.904167,-0.040768,0.599117,-0.054364,7.760998,188.496082,0
0.054167,-146.712792,180.793621,-4.382955,2.792328,2.645973,-6.446474,3.158801,-2.605977,6.569057,-3.210632,-0.051727,0.595002,-0.076769,12.420718,188.421787,0
0.055209,-177.972723,130.440413,65.024243,4.149528,4.879098,-5.954369,0.524454,-4.734237,6.019290,-0.656098,-0.139399,0.583831,-0.054364,15.429178,188.420891,0
0.056250,-192.615892,48.701016,118.082955,5.144808,6.214002,-4.672517,-1.837504,-6.211888,4.852609,1.684965,-0.161317,0.592389,-0.050629,16.039918,188.496353,0
0.057291,-160.437218,-19.991004,166.919129,6.049608,6.636485,-2.700131,-4.087520,-6.601518,2.951508,3.794768,-0.230724,0.606564,-0.039427,16.300048,188.495595,0
0.058333,-112.492468,-88.187707,184.117046,6.354978,6.040039,-0.076897,-5.785293,-6.090588,0.299198,5.541671,-0.259948,0.610418,-0.076769,11.097448,188.420831,0
0.059375,-30.520217,-137.501957,188.918182,6.490698,4.545372,2.431248,-6.591269,-4.616613,-2.172654,6.313724,-0.278213,0.608655,-0.065566,7.082398,188.420991,0
0.060417,45.202316,-168.851903,162.745834,5.959128,2.415205,4.490943,-6.281565,-2.525111,-4.329754,6.157179,-0.274560,0.611006,-0.020755,-0.992942,188.496420,0
0.061458,101.744681,-191.431113,83.588637,4.500138,-0.314959,6.201403,-5.136035,0.213323,-5.995841,5.025783,-0.241683,0.606172,-0.061832,-3.741271,188.496447,0
0.062500,146.740381,-180.546218,5.773295,3.041148,-2.544534,6.602230,-3.333783,2.551100,-6.503641,3.328690,-0.208806,0.601077,-0.050629,-7.383091,188.496308,0
0.063543,177.626010,-130.736651,-64.434091,1.706568,-4.731506,6.062502,-0.654659,4.664656,-6.025218,0.756367,-0.157664,0.584746,-0.031958,-10.538581,188.421255,0
0.064583,192.450658,-49.359682,-117.763637,0.643428,-6.045108,4.800493,1.699835,6.123929,-4.808177,-1.588254,-0.099216,0.579716,-0.087972,-11.556481,188.498121,0
0.065625,160.294669,20.467944,-167.104546,0.960108,-6.467592,2.772546,3.987165,6.498856,-2.839928,-3.730078,-0.062686,0.598072,-0.076769,-11.409451,188.495841,0
0.066667,111.453862,88.978750,-183.970076,-0.578052,-5.885346,0.173124,5.677475,5.984251,-0.250569,-5.455633,-0.007891,0.575143,-0.050629,-6.048511,188.420291,0
0.067708,28.914486,137.701036,-189.029735,-0.725082,-4.390679,-2.303272,6.434944,4.466166,2.204496,-6.177876,0.014027,0.578736,-0.050629,-1.875122,188.495678,0
0.068750,-46.717308,168.930173,-159.644319,-0.080412,-2.292464,-4.370905,6.158822,2.389367,4.357400,-6.064025,-0.004238,0.617082,-0.031958,5.826988,188.495644,0
0.069791,-101.853203,192.258399,-82.752273,1.355958,0.451901,-6.097238,4.983441,-0.304958,6.027683,-4.904167,-0.018850,0.599705,-0.069301,7.772308,188.495620,0
0.070833,-146.792190,180.696973,-4.986174,2.792328,2.674375,-6.486160,3.166263,-2.635383,6.531287,-3.182169,-0.066339,0.596962,-0.031958,12.454648,188.420265,0
0.071875,-178.415081,131.141105,64.310227,4.092978,4.886198,-5.966275,0.569230,-4.745264,6.052864,-0.670329,-0.143052,0.587816,-0.061832,15.485728,188.495810,0
0.072916,-192.593207,50.247372,117.861364,5.110878,6.171399,-4.664580,-1.826310,-6.197185,4.886183,1.720544,-0.168623,0.595524,-0.080503,15.858958,188.495852,0
0.073958,-160.856890,-18.674185,167.239205,6.083538,6.668438,-2.624728,-4.165878,-6.568436,2.884361,3.819673,-0.223418,0.606695,-0.046895,16.514938,188.495689,0
0.075000,-113.104963,-87.813199,183.796970,6.388908,6.040039,-0.021337,-5.833801,-6.094264,0.274018,5.570134,-0.245336,0.605062,-0.054364,10.588498,188.420435,0
0.076041,-30.690355,-137.610685,189.041288,6.535938,4.541821,2.447122,-6.568881,-4.561476,-2.164261,6.299492,-0.285519,0.604996,-0.065566,6.279388,188.495683,0
0.077083,45.497221,-168.513638,159.754357,5.936508,2.436506,4.510786,-6.251714,-2.503056,-4.325558,6.086022,-0.263601,0.602318,-0.058098,-0.619712,188.495694,0
0.078125,101.427091,-192.047239,83.059281,4.522758,-0.343362,6.185528,-5.080064,0.253756,-5.979055,4.972416,-0.263601,0.597223,-0.061832,-3.243631,188.495718,0
0.079166,146.195941,-180.401247,4.923864,2.995908,-2.548084,6.598261,-3.296469,2.540073,-6.524625,3.268207,-0.197847,0.591605,-0.065566,-7.145581,188.344874,0
0.080208,177.694065,-130.519195,-64.458712,1.740498,-4.717304,6.106157,-0.680779,4.660981,-6.025218,0.813293,-0.154011,0.588208,-0.076769,-10.617751,188.495790,0
0.081250,192.291863,-48.526099,-117.615909,0.699978,-6.030907,4.796524,1.643865,6.116578,-4.824964,-1.549118,-0.113828,0.556525,-0.065566,-11.194561,188.495609,0
0.082291,160.430779,20.020950,-166.710607,-0.250062,-6.478242,2.816201,3.934926,6.469450,-2.890289,-3.687383,-0.080951,0.595916,-0.061832,-11.477311,188.495667,0
0.083333,112.043672,88.278058,-183.859281,-0.600672,-5.913748,0.228684,5.636430,5.958520,-0.279946,-5.423613,-0.015197,0.606368,-0.061832,-6.240781,188.420327,0
0.084375,30.343641,137.423175,-188.968182,-0.736392,-4.426182,-2.295335,6.438675,4.477193,2.191906,-6.177876,-0.000585,0.610745,-0.069301,-2.406691,188.495785,0
0.085416,-45.378893,168.942254,-159.792046,-0.136962,-2.359920,-4.315344,6.136434,2.393043,4.311236,-6.046236,-0.037115,0.609047,-0.020755,6.109738,188.495698,0
0.086458,-101.694408,191.412735,-84.007955,1.288098,0.423498,-6.025804,4.998366,-0.268200,5.968930,-4.918398,-0.015197,0.601600,-0.054364,7.693138,188.495707,0
0.087500,-147.019040,180.938591,-5.515530,2.758398,2.645973,-6.446474,3.203577,-2.565544,6.552270,-3.196401,-0.033462,0.600620,-0.005818,12.488578,188.420417,0
0.088541,-177.859298,131.672665,64.384091,4.070358,4.797441,-5.910715,0.561767,-4.660722,6.061257,-0.723697,-0.124787,0.585660,-0.035692,15.406558,188.495792,0
0.089595,-192.355014,48.374832,118.735417,5.133498,6.142997,-4.609020,-1.822578,-6.189834,4.823233,1.635155,-0.150358,0.604147,-0.046895,15.994678,188.495731,0
0.090634,-160.301108,-20.993719,167.226894,6.072228,6.611633,-2.640602,-4.098714,-6.520651,2.884361,3.809000,-0.223418,0.592258,-0.054364,16.333978,188.364823,0
0.091666,-112.163536,-87.994413,184.117046,6.400218,6.061340,-0.092771,-5.762905,-5.998695,0.332771,5.513208,-0.234377,0.567239,-0.058098,11.063518,188.436127,0
0.092708,-29.544762,-137.054964,188.942804,6.547248,4.520520,2.391562,-6.542761,-4.513692,-2.101311,6.242567,-0.238030,0.555349,-0.080503,7.059778,188.495866,0
0.093750,46.189114,-168.731094,159.877463,6.004368,2.489760,4.471100,-6.330073,-2.506732,-4.304574,6.157179,-0.303784,0.609047,-0.043161,-1.026872,188.495510,0
0.094791,101.892134,-191.104928,83.662500,4.545378,-0.258155,6.161717,-5.124841,0.183917,-5.966465,5.029341,-0.274560,0.600162,-0.043161,-3.662101,188.495680,0
0.095833,146.263996,-180.981131,5.305492,3.052458,-2.519682,6.645884,-3.352440,2.514343,-6.528821,3.328690,-0.197847,0.597288,-0.054364,-7.337851,188.420314,0
0.096875,177.047542,-131.340696,-64.434091,1.717878,-4.720855,6.129968,-0.733018,4.620547,-6.029415,0.848871,-0.150358,0.591213,-0.024490,-10.527271,188.495846,0
0.097917,192.575425,-50.072455,-117.689773,0.632118,-6.045108,4.863990,1.651327,6.083496,-4.879521,-1.499308,-0.113828,0.592781,-0.031958,-11.499931,188.495694,0
0.098958,160.464806,18.716212,-166.907576,-0.272682,-6.481793,2.855887,3.934926,6.447395,-2.907076,-3.637574,-0.077298,0.605388,-0.058098,-11.375521,188.495794,0
0.100000,113.064497,87.686093,-184.007008,-0.544122,-5.952801,0.224716,5.632699,6.017332,-0.305126,-5.452075,0.028639,0.603625,-0.061832,-6.184231,188.420269,0
0.101042,31.285068,137.495661,-188.918940,-0.657222,-4.433282,-2.291367,6.449869,4.466166,2.191906,-6.181434,-0.007891,0.612378,-0.069301,-1.988222,188.495778,0
0.102083,-45.163385,169.050982,-159.964394,-0.148272,-2.299565,-4.303439,6.132703,2.426125,4.336416,-6.017773,0.010374,0.610680,-0.058098,5.860918,188.495667,0
0.103125,-101.683065,191.714758,-83.638637,1.276788,0.419948,-6.037710,4.946127,-0.323337,5.994110,-4.882820,-0.037115,0.600032,-0.031958,7.783618,188.495989,0
0.104167,-146.542655,181.119805,-5.035417,2.758398,2.681475,-6.462348,3.192383,-2.617005,6.552270,-3.203516,-0.069992,0.593957,-0.069301,12.375478,188.344938,0
0.105208,-177.734531,130.947811,64.531818,4.070358,4.871997,-5.930558,0.584155,-4.675425,6.019290,-0.659656,-0.139399,0.584680,-0.084238,15.440488,188.495649,0
0.106250,-192.876769,48.870149,117.615152,5.144808,6.153648,-4.660611,-1.826310,-6.156752,4.848413,1.656502,-0.183235,0.577037,-0.076769,15.870268,188.495607,0
0.107292,-160.482588,-19.906438,166.734470,6.117468,6.597432,-2.656476,-4.087520,-6.539030,2.884361,3.784095,-0.223418,0.587359,-0.058098,16.458388,188.495613,0
0.108333,-112.197563,-88.103141,183.821591,6.422838,6.061340,-0.021337,-5.774099,-6.064858,0.324378,5.534555,-0.263601,0.581610,-0.039427,10.656358,188.344938,0
0.109375,-30.474847,-137.272420,188.918182,6.513318,4.516969,2.419342,-6.524104,-4.561476,-2.160064,6.278145,-0.270907,0.607218,-0.069301,6.460348,188.495703,0
0.110417,45.259029,-168.537800,160.000569,5.936508,2.472009,4.471100,-6.300222,-2.521435,-4.325558,6.146505,-0.281866,0.613031,-0.073035,-0.472682,188.495781,0
0.111458,101.336351,-191.298223,84.228788,4.511448,-0.254605,6.177591,-5.136035,0.172890,-5.970661,5.022225,-0.252642,0.607152,-0.039427,-3.130531,188.495702,0
0.112500,146.309366,-180.715351,6.093371,3.018528,-2.501931,6.558575,-3.363634,2.492288,-6.528821,3.342922,-0.194194,0.595982,-0.076769,-7.202131,188.344804,0
0.113542,177.308420,-131.751447,-63.757008,1.729188,-4.685352,6.086314,-0.733018,4.594817,-6.016825,0.863103,-0.128440,0.592519,-0.073035,-10.640371,188.495841,0
0.114583,192.507370,-50.205345,-117.492803,0.688668,-5.984754,4.820336,1.632670,6.050414,-4.875324,-1.499308,-0.099216,0.594610,-0.076769,-11.228491,188.495687,0
0.115625,160.544204,19.054478,-166.562879,-0.227442,-6.421438,2.847949,3.841641,6.465774,-2.911272,-3.609111,-0.059033,0.567239,-0.054364,-11.466001,188.495756,0
0.116667,112.270522,87.939792,-183.846970,-0.566742,-5.913748,0.272339,5.591654,6.013657,-0.296733,-5.398708,-0.015197,0.569982,-0.065566,-6.252091,188.420343,0
0.117708,29.776516,137.302366,-188.894319,-0.713772,-4.401330,-2.227869,6.386436,4.466166,2.145743,-6.138740,-0.018850,0.608132,-0.087972,-2.350142,188.495626,0
0.118750,-46.320320,168.845607,-159.705872,-0.125652,-2.377671,-4.279627,6.117777,2.451855,4.244089,-5.996426,-0.007891,0.607675,-0.046895,6.234148,188.495665,0
0.119792,-101.819175,190.977823,-83.934091,1.299408,0.363144,-5.982150,5.017023,-0.253497,5.876602,-4.936188,-0.037115,0.598856,-0.050629,7.681828,188.495725,0
0.120833,-146.304462,181.433909,-5.010795,2.860188,2.571417,-6.466317,3.259548,-2.528787,6.493516,-3.271115,-0.077298,0.594283,-0.065566,12.454648,188.344894,0
0.121875,-176.849816,131.938445,64.519508,4.104288,4.765489,-5.934527,0.647589,-4.554125,6.040274,-0.777065,-0.124787,0.588731,-0.058098,15.372628,188.495696,0
0.122917,-193.080934,50.682284,117.504356,5.156118,6.125245,-4.704266,-1.740488,-6.156752,4.894576,1.603135,-0.154011,0.595394,-0.058098,16.039918,188.495530,0
0.123958,-160.698095,-18.166787,166.340531,6.049608,6.593882,-2.731879,-4.027818,-6.531678,2.980884,3.702264,-0.212459,0.604866,-0.035692,16.232188,188.495810,0
0.125000,-113.479266,-86.967536,184.092425,6.411528,6.064891,-0.112614,-5.706934,-6.086913,0.395722,5.534555,-0.263601,0.605388,-0.024490,11.153998,188.344979,0
0.126042,-31.904002,-136.885831,188.561175,6.502008,4.566673,2.339971,-6.520373,-4.594558,-2.084524,6.246125,-0.289172,0.610680,-0.065566,7.229428,188.495750,0
0.127083,44.578479,-168.876065,160.086743,5.925198,2.521713,4.423477,-6.274102,-2.631708,-4.275197,6.164294,-0.256295,0.613031,-0.054364,-1.004252,188.495794,0
