1-Time,2-VGERA,3-VGERB,4-VGERC,5-VN,6-IGERAN,7-IGERBN,8-IGERCN,9-IGERAT,10-IGERBT,11-IGERCT,12-IN,13-IFD,14-IFAULT,15-VFAULT,16-Speed (rad/s),17-Active Power,18-Reactive Power,19-FAULT 
0.000000,-163.750116,157.792802,19.642116,0.629529,4.141218,-3.806005,-0.527080,-3.918126,3.752719,0.350583,-0.035656,0.410044,-0.007290,-138.144433,188.570568,1235.289338,-30.196862,0
0.001042,-179.061515,98.175131,78.978729,1.789237,4.519174,-2.416054,-2.239774,-4.281242,2.262348,2.067920,0.048206,0.415556,-0.003573,-146.576918,188.495264,1234.910761,-29.399183,0
0.002083,-185.502473,24.627878,135.216666,2.903908,4.515505,-0.901257,-3.577454,-4.318295,0.798432,3.286429,0.066437,0.410871,-0.018440,-144.550420,188.721442,1234.866468,-29.013871,0
0.003125,-147.331325,-41.872369,169.204891,3.556947,3.678865,0.750870,-4.192168,-3.432736,-0.925637,3.872837,0.073729,0.420379,-0.029590,-105.979399,188.570680,1235.258075,-28.654732,0
0.004167,-72.876117,-92.833968,195.829204,4.029838,2.361524,2.769211,-4.667701,-2.121072,-2.839309,4.303123,0.091960,0.421482,-0.037023,-43.079140,188.499046,1235.668299,-27.774210,0
0.005208,-11.201125,-146.449939,170.505120,3.545688,0.768973,3.676425,-3.886744,-0.527807,-3.752052,3.495860,0.084667,0.424307,0.000144,6.874047,188.495483,1235.763963,-27.681184,0
0.006250,52.519154,-185.513843,121.655400,2.656203,-1.043747,4.542023,-2.804228,1.317416,-4.536922,2.380163,0.070083,0.406117,-0.044457,53.787485,188.721630,1235.734195,-27.430125,0
0.007292,108.318186,-185.513843,46.630979,1.192494,-2.551900,4.388046,-1.180455,2.810638,-4.351728,0.708520,0.004452,0.412318,-0.014723,99.766483,188.570846,1235.334845,-26.680648,0
0.008333,164.072017,-157.842599,-20.069547,-0.068547,-3.729801,3.805432,0.536105,4.003734,-3.756461,-0.932660,0.015390,0.409700,-0.014723,138.179887,188.495492,1235.226101,-26.545523,0
0.009375,179.225217,-97.414522,-78.822880,-1.171959,-4.148121,2.369705,2.171477,4.392787,-2.257270,-2.623342,-0.021072,0.407633,-0.003573,147.073963,188.495776,1235.359924,-27.171334,0
0.010417,185.541875,-23.186058,-134.611204,-2.275370,-4.100418,0.879877,3.505290,4.348324,-0.753671,-3.815196,-0.090349,0.413972,-0.007290,145.689189,188.721733,1234.475594,-27.724658,0
0.011458,146.636232,43.055799,-169.219165,-2.984706,-3.256439,-0.784735,4.089075,3.459060,0.930714,-4.466337,-0.086703,0.399640,-0.055607,105.384387,188.570931,1234.917917,-28.615087,0
0.012500,71.344830,92.936857,-195.819175,-3.446337,-1.931759,-2.811399,4.587806,2.180743,2.862024,-4.862353,-0.090349,0.426994,0.015011,43.114594,188.495492,1235.422335,-29.185805,0
0.013542,9.737637,146.341417,-170.312816,-2.995965,-0.320861,-3.726936,3.830045,0.591183,3.761538,-4.051282,-0.046595,0.414592,-0.018440,-5.138586,188.570852,1235.858049,-29.187200,0
0.014583,-53.282046,185.135186,-120.806905,-2.038925,1.480851,-4.534273,2.720466,-1.250334,4.590502,-2.958432,-0.068472,0.422860,0.011294,-54.472564,188.649734,1236.359868,-29.865152,0
0.015627,-108.561281,185.534516,-44.980474,-0.575216,3.018360,-4.367811,1.077363,-2.769494,4.352396,-1.305828,-0.035656,0.405979,-0.007290,-99.393280,188.571107,1237.255040,-30.132281,0
0.016667,-163.501518,157.863272,21.039558,0.685826,4.185252,-3.851782,-0.612135,-3.929242,3.792404,0.342967,0.000805,0.410113,-0.011006,-137.772908,188.495745,1237.750852,-29.506594,0
0.017708,-179.276214,96.636535,78.966577,1.777978,4.555869,-2.353631,-2.255238,-4.303474,2.253529,2.121229,0.062790,0.406875,0.003860,-147.027251,188.571080,1238.059449,-29.786622,0
0.018750,-185.536372,23.124517,135.107301,2.892649,4.544860,-0.822188,-3.608383,-4.322000,0.714654,3.332123,0.091960,0.404326,-0.029590,-144.370286,188.646500,1238.243963,-30.661019,0
0.019792,-146.167433,-42.565325,169.776020,3.545688,3.682534,0.784162,-4.188302,-3.391978,-0.938865,3.941378,0.143006,0.410389,-0.014723,-106.643641,188.571216,1238.620943,-30.920494,0
0.020833,-71.994723,-92.681283,195.975024,4.097394,2.328499,2.819150,-4.710229,-2.091430,-2.931906,4.337393,0.106545,0.410320,-0.025873,-44.441397,188.495636,1239.358780,-31.891969,0
0.021875,-10.794327,-146.743564,170.310694,3.556947,0.783651,3.743009,-3.909940,-0.487049,-3.813783,3.518707,0.066437,0.419208,-0.003573,6.660138,188.571163,1240.161373,-32.438050,0
0.022917,52.428755,-185.302432,121.861979,2.622425,-1.098789,4.566992,-2.831291,1.365584,-4.585425,2.334469,0.033621,0.413627,-0.014723,53.618610,188.646420,1240.500801,-33.548638,0
0.023958,108.600684,-185.208472,47.129198,1.226272,-2.654645,4.404692,-1.161125,2.862512,-4.373775,0.662826,0.004452,0.415901,-0.022156,100.216816,188.571064,1240.966580,-34.507401,0
0.025000,164.105917,-158.136224,-19.632087,-0.068547,-3.781174,3.813755,0.524507,4.033376,-3.796145,-0.917428,-0.028364,0.410940,-0.040740,137.222929,188.495635,1241.686526,-34.395470,0
0.026043,179.338216,-97.508482,-78.847183,-1.183218,-4.151790,2.373866,2.233335,4.411313,-2.261680,-2.672843,-0.039302,0.410182,0.003860,147.817013,188.571071,1242.235812,-34.895197,0
0.027084,185.632275,-24.137404,-135.012209,-2.252852,-4.140782,0.850746,3.532353,4.348324,-0.780127,-3.868506,-0.075764,0.417348,-0.011006,145.193823,188.721905,1242.918611,-35.205966,0
0.028125,146.771832,42.515528,-169.522957,-2.962187,-3.311481,-0.797219,4.143201,3.473881,0.930714,-4.485376,-0.093995,0.430576,0.000144,104.821471,188.571094,1243.334120,-35.318203,0
0.029167,72.011526,92.854641,-195.904236,-3.480115,-1.946437,-2.778107,4.587806,2.154806,2.884071,-4.862353,-0.090349,0.421068,-0.022156,43.058302,188.495651,1243.438986,-35.977013,0
0.030209,10.212234,146.329672,-170.252057,-2.995965,-0.375903,-3.743582,3.822313,0.557836,3.836498,-4.020819,-0.064826,0.425685,-0.011006,-6.726010,188.571118,1243.809779,-37.113224,0
0.031250,-52.931749,185.405321,-120.843360,-2.072703,1.499198,-4.575888,2.732065,-1.257745,4.568455,-2.927969,-0.075764,0.410871,-0.018440,-54.101040,188.721873,1243.412417,-37.506805,0
0.032292,-108.312683,185.499281,-45.417934,-0.608994,2.992673,-4.409427,1.073497,-2.769494,4.325939,-1.260134,-0.013779,0.405979,-0.029590,-98.976722,188.571178,1242.927669,-38.243971,0
0.033334,-163.580618,157.828037,21.039558,0.697085,4.196260,-3.822651,-0.619867,-3.925537,3.765948,0.400085,0.015390,0.404739,0.015011,-137.829200,188.495749,1242.704100,-39.039445,0
0.034375,-179.095415,96.577810,79.136701,1.766719,4.563208,-2.357793,-2.251372,-4.310884,2.235891,2.060304,0.070083,0.409975,-0.022156,-146.802085,188.646585,1242.321990,-38.538643,0
0.035417,-185.491173,22.478541,134.961481,2.870130,4.504496,-0.838834,-3.627713,-4.318295,0.789614,3.332123,0.062790,0.441394,-0.040740,-144.268961,188.721911,1242.366094,-37.542803,0
0.036458,-146.156133,-43.481436,169.192740,3.511910,3.634831,0.809131,-4.238561,-3.395684,-0.947684,3.933762,0.073729,0.419139,-0.018440,-105.011184,188.571138,1242.236512,-37.368962,0
0.037500,-70.650032,-93.010143,196.242361,3.996060,2.357855,2.769211,-4.687032,-2.109956,-2.901040,4.333585,0.102898,0.392750,-0.022156,-42.246024,188.495618,1242.039841,-36.497664,0
0.038542,-9.427036,-146.461684,170.456514,3.556947,0.783651,3.763817,-3.917673,-0.524102,-3.782917,3.507284,0.077375,0.391786,-0.044457,7.144246,188.646442,1241.587085,-35.625774,0
0.039584,53.084151,-185.619548,121.388063,2.678722,-1.069433,4.591961,-2.850622,1.335942,-4.620700,2.429665,0.055498,0.400674,-0.025873,53.810002,188.646763,1242.660613,-34.239427,0
0.040625,108.318186,-185.490353,46.570221,1.192494,-2.595934,4.421339,-1.195920,2.832870,-4.378184,0.731367,0.004452,0.415212,-0.003573,100.036683,188.570988,1242.726749,-33.142222,0
0.041667,164.083317,-158.054009,-19.826513,-0.079807,-3.744479,3.867855,0.524507,4.014850,-3.857877,-0.955507,0.000805,0.413145,-0.033307,138.292470,188.495721,1243.142891,-33.018123,0
0.042709,179.293017,-97.978282,-78.774273,-1.205737,-4.166468,2.432128,2.175343,4.433545,-2.274908,-2.653804,-0.050241,0.416659,-0.014723,147.276613,188.646433,1243.425569,-32.849469,0
0.043750,185.666175,-24.489754,-135.097271,-2.286629,-4.173807,0.884039,3.547818,4.385377,-0.797765,-3.876121,-0.057533,0.410940,-0.022156,145.801772,188.646540,1243.978003,-32.667042,0
0.044792,146.918731,41.963513,-169.717384,-2.962187,-3.289464,-0.793058,4.166398,3.514639,0.921895,-4.489184,-0.075764,0.423342,-0.007290,105.845978,188.571031,1244.403559,-32.447339,0
0.045833,72.791220,92.784171,-195.904236,-3.423819,-1.986801,-2.778107,4.645797,2.225206,2.862024,-4.892815,-0.068472,0.422446,-0.040740,44.206651,188.495712,1245.075489,-31.701769,0
0.046875,11.217927,146.729003,-170.118389,-2.995965,-0.350216,-3.756067,3.853242,0.561541,3.792404,-4.104592,-0.086703,0.412800,-0.055607,-4.440570,188.646453,1245.613723,-31.140467,0
0.047917,-52.694450,185.311361,-121.292972,-2.072703,1.458834,-4.605019,2.755262,-1.283682,4.603730,-2.954624,-0.032010,0.420655,-0.025873,-54.427531,188.571114,1246.331254,-31.432238,0
0.048958,-108.764680,185.405321,-45.989063,-0.608994,2.989004,-4.471850,1.065764,-2.825073,4.378852,-1.252518,-0.032010,0.411491,-0.014723,-99.427055,188.571071,1247.400070,-31.928096,0
0.050000,-163.817916,158.109918,20.978800,0.663307,4.188921,-3.843459,-0.631465,-3.951474,3.796813,0.419124,0.037267,0.409562,0.011294,-137.727875,188.495685,1248.095374,-32.116434,0
0.051042,-179.434413,96.660025,79.039487,1.789237,4.632928,-2.386923,-2.320962,-4.340527,2.293213,2.128845,0.062790,0.408804,-0.029590,-147.331226,188.646589,1249.248081,-32.333281,0
0.052084,-185.739771,22.889616,135.070846,2.892649,4.581555,-0.813865,-3.639312,-4.347937,0.758748,3.366394,0.066437,0.395437,-0.007290,-144.370286,188.571131,1249.919860,-32.954767,0
0.053125,-145.896234,-43.105595,169.873233,3.545688,3.682534,0.800808,-4.250160,-3.429031,-0.960912,3.975648,0.091960,0.413351,-0.007290,-105.731716,188.571002,1250.809909,-33.020729,0
0.054167,-70.830830,-92.880948,196.303119,4.018579,2.335838,2.856604,-4.721827,-2.102545,-2.945134,4.394511,0.081021,0.398262,0.015011,-42.685098,188.495758,1251.780769,-33.534413,0
0.055209,-9.393136,-146.872759,170.371452,3.523169,0.783651,3.784625,-3.894476,-0.479639,-3.862286,3.537747,0.102898,0.397436,-0.025873,8.213787,188.646451,1252.895024,-34.295170,0
0.056250,53.479648,-185.502098,121.145030,2.622425,-1.124475,4.591961,-2.819693,1.350763,-4.572197,2.403010,0.026329,0.422653,-0.025873,54.192785,188.646500,1252.155750,-34.433240,0
0.057292,108.532884,-185.678273,45.391509,1.203754,-2.636298,4.483762,-1.145660,2.903270,-4.409050,0.723751,0.015390,0.413145,-0.018440,100.149266,188.571076,1253.008018,-34.703404,0
0.058334,163.642620,-158.124479,-21.090287,-0.079807,-3.869241,3.872017,0.516774,4.066724,-3.809374,-0.894581,-0.032010,0.413834,-0.051890,137.031538,188.495756,1252.979718,-34.307344,0
0.059375,179.293017,-96.568881,-78.871486,-1.194477,-4.192154,2.407158,2.214004,4.489124,-2.319002,-2.703306,-0.064826,0.414247,0.003860,147.907079,188.646455,1253.955799,-34.078362,0
0.060417,185.756574,-23.209548,-134.902844,-2.275370,-4.199493,0.867393,3.605809,4.474303,-0.819811,-3.929431,-0.093995,0.404808,0.011294,145.283889,188.571076,1255.366650,-33.596779,0
0.061459,146.082536,42.832644,-169.753839,-2.984706,-3.348176,-0.780573,4.193461,3.533165,0.948351,-4.569149,-0.072118,0.427338,-0.025873,105.080412,188.571080,1256.359048,-33.645729,0
0.062500,71.966326,92.878132,-195.964995,-3.457597,-2.008818,-2.828046,4.668994,2.202974,2.901708,-4.946125,-0.079410,0.434917,-0.029590,44.139101,188.495700,1257.037868,-33.972025,0
0.063542,10.901529,146.717258,-170.081934,-3.007225,-0.386911,-3.772713,3.884171,0.606004,3.814451,-4.119823,-0.093995,0.421068,-0.033307,-5.724019,188.721737,1257.429403,-33.429309,0
0.064584,-52.445852,185.522771,-121.499551,-2.027666,1.488189,-4.625826,2.817120,-1.261450,4.652234,-2.992702,-0.061180,0.418932,-0.018440,-53.864615,188.646487,1258.260421,-33.056631,0
0.065625,-108.775980,185.334851,-46.608798,-0.620253,3.047715,-4.467688,1.154685,-2.773199,4.352396,-1.321060,-0.013779,0.419552,-0.029590,-99.438313,188.571125,1257.846447,-32.073413,0
0.066667,-164.292513,158.039447,20.225396,0.663307,4.218277,-3.889235,-0.546410,-3.947768,3.840907,0.316312,0.008098,0.417210,-0.014723,-138.076883,188.495649,1258.197404,-30.714015,0
0.067709,-179.321414,97.493920,79.112398,1.744200,4.588894,-2.457669,-2.274569,-4.370169,2.324079,2.094574,0.059144,0.412869,-0.033307,-147.106059,188.721991,1258.651766,-30.282396,0
0.068750,-185.739771,23.993647,135.338182,2.858871,4.574216,-0.917904,-3.639312,-4.366463,0.820479,3.343547,0.095606,0.422722,-0.022156,-144.415320,188.646522,1258.892614,-29.618359,0
0.069792,-146.529030,-42.612305,169.605897,3.556947,3.715560,0.804970,-4.246293,-3.443852,-0.903590,3.960417,0.095606,0.419484,-0.022156,-104.932375,188.571111,1258.750723,-29.079183,0
0.070833,-71.576626,-92.904438,196.363878,4.086135,2.394549,2.835796,-4.779819,-2.124777,-2.918678,4.390703,0.088314,0.429405,-0.007290,-42.065891,188.495667,1258.774015,-28.788187,0
0.071875,-9.946833,-146.790544,170.407907,3.545688,0.768973,3.797109,-3.917673,-0.512986,-3.831420,3.541554,0.084667,0.426236,0.003860,7.752196,188.721755,1258.554094,-28.367577,0
0.072917,53.038951,-185.725253,121.035665,2.644944,-1.084111,4.587800,-2.846756,1.306300,-4.633928,2.414433,0.048206,0.414936,-0.018440,54.102718,188.571006,1259.193980,-27.995532,0
0.073959,108.340786,-185.654783,45.670997,1.181235,-2.632629,4.429662,-1.180455,2.877333,-4.400231,0.723751,0.019036,0.412318,-0.003573,99.834033,188.571018,1258.882043,-27.906997,0
0.075000,163.834719,-158.030519,-21.114591,-0.091066,-3.803190,3.847048,0.524507,4.059313,-3.835830,-0.925044,-0.013779,0.410595,-0.029590,137.943462,188.495702,1259.113036,-27.998845,0
0.076042,179.406016,-96.521901,-78.920093,-1.183218,-4.184816,2.419643,2.217870,4.437250,-2.292546,-2.665228,-0.061180,0.411009,-0.037023,147.479263,188.721909,1258.185222,-27.783300,0
0.077083,185.835673,-22.516593,-134.671963,-2.286629,-4.173807,0.834100,3.613542,4.411313,-0.788946,-3.887545,-0.097641,0.380348,-0.040740,145.767997,188.639620,1256.999091,-27.883626,0
0.078125,146.014737,43.513854,-169.620170,-2.928410,-3.337167,-0.813865,4.193461,3.555397,0.926304,-4.542494,-0.097641,0.401776,-0.018440,105.136704,188.571116,1256.840713,-27.183110,0
0.079167,70.599035,93.007327,-196.366000,-3.457597,-1.961115,-2.844692,4.641931,2.240027,2.884071,-4.980396,-0.079410,0.392199,-0.018440,43.452343,188.495770,1257.264702,-26.255462,0
0.080208,9.556838,146.811218,-170.142692,-2.973447,-0.379572,-3.772713,3.895769,0.539310,3.845316,-4.135055,-0.101287,0.414936,-0.037023,-4.575670,188.721777,1257.650724,-26.746286,0
0.081250,-53.236847,185.428811,-121.171455,-2.083962,1.477181,-4.609180,2.813254,-1.265155,4.665462,-3.026973,-0.064826,0.411905,-0.044457,-54.359981,188.495660,1258.050458,-26.226722,0
0.082292,-108.775980,185.499281,-45.904001,-0.608994,3.014690,-4.480173,1.135355,-2.806546,4.444993,-1.309636,-0.032010,0.417348,-0.029590,-99.708513,188.571094,1259.295788,-26.239921,0
0.083334,-163.976115,158.274348,20.626402,0.674567,4.221947,-3.910043,-0.596670,-3.940358,3.827679,0.362006,-0.028364,0.412387,-0.022156,-137.986816,188.495571,1259.132239,-26.785282,0
0.084375,-179.626512,97.212040,79.051639,1.800497,4.654945,-2.407731,-2.297766,-4.362758,2.310851,2.147884,0.055498,0.416107,-0.029590,-147.556392,188.721965,1259.281388,-27.391202,0
0.085417,-185.852770,24.228548,135.471851,2.903908,4.629258,-0.876288,-3.631579,-4.329411,0.771976,3.374009,0.066437,0.418588,-0.022156,-144.516645,188.571123,1259.117002,-28.350423,0
0.086458,-146.370831,-42.025054,170.347149,3.590725,3.700882,0.784162,-4.277223,-3.454968,-0.930046,3.998495,0.033621,0.423755,-0.011006,-106.159533,188.571140,1259.828206,-28.787490,0
0.087500,-72.322421,-92.716518,196.242361,4.029838,2.390880,2.848280,-4.756622,-2.113661,-2.923087,4.360240,0.106545,0.422653,-0.022156,-43.664573,188.495674,1259.481645,-29.194888,0
0.088542,-10.896027,-147.154640,170.262087,3.556947,0.772642,3.776302,-3.975665,-0.516691,-3.844649,3.579633,0.081021,0.433884,0.003860,7.436963,188.721806,1260.088697,-29.222947,0
0.089583,52.812952,-185.525588,121.606793,2.622425,-1.091450,4.621092,-2.850622,1.306300,-4.620700,2.425857,0.055498,0.422033,-0.074190,54.068943,188.571131,1260.046107,-29.295130,0
0.090625,108.736283,-185.478608,46.084154,1.203754,-2.621620,4.500408,-1.168857,2.914386,-4.453144,0.700904,0.022683,0.414936,0.011294,100.261849,188.571040,1260.882395,-29.760755,0
0.091667,163.936418,-158.300654,-20.713585,-0.068547,-3.821538,3.867855,0.505176,4.081545,-3.849058,-0.982162,-0.013779,0.414454,-0.014723,136.986504,188.495627,1261.359656,-30.596637,0
0.092708,179.406016,-96.686331,-78.920093,-1.171959,-4.228849,2.436289,2.233335,4.470598,-2.279317,-2.688075,-0.024718,0.412800,-0.018440,147.985887,188.721831,1261.803507,-31.032813,0
0.093750,185.790474,-22.998138,-134.829934,-2.320407,-4.195824,0.896523,3.543951,4.418724,-0.784536,-3.918008,-0.068472,0.413765,-0.033307,145.205081,188.495636,1262.190658,-31.393085,0
0.094792,146.082536,43.361169,-169.656625,-2.950928,-3.278456,-0.826350,4.224390,3.525755,0.948351,-4.569149,-0.083057,0.398331,-0.011006,104.303588,188.571093,1262.292685,-32.007203,0
0.095834,70.904133,93.077797,-196.280938,-3.480115,-1.983132,-2.832207,4.649664,2.210385,2.923755,-4.904239,-0.101287,0.411491,-0.048173,42.450352,188.495696,1261.543827,-32.812961,0
0.096875,9.443839,146.623298,-170.227754,-2.984706,-0.372233,-3.756067,3.860974,0.591183,3.805632,-4.112208,-0.072118,0.431197,-0.029590,-7.131309,188.721954,1260.946798,-32.102272,0
0.097917,-53.395046,185.628476,-120.661085,-2.005147,1.469842,-4.609180,2.786191,-1.231808,4.634596,-2.943200,-0.035656,0.429956,-0.029590,-54.337464,188.646377,1259.837969,-32.245160,0
0.098958,-108.549981,185.640221,-45.029081,-0.597734,2.985334,-4.451042,1.127622,-2.795430,4.409718,-1.313444,-0.006487,0.413972,-0.029590,-99.336988,188.571103,1259.313948,-32.007793,0
0.100000,-163.795316,157.921997,21.440564,0.697085,4.203599,-3.914205,-0.573473,-3.944063,3.858545,0.339159,0.004452,0.413007,-0.033307,-137.986816,188.495669,1259.530971,-31.299104,0
0.101042,-179.219714,96.542575,79.404038,1.789237,4.581555,-2.424377,-2.208845,-4.388695,2.337307,2.052688,0.033621,0.405359,0.007577,-147.072284,188.721846,1259.323088,-29.850399,0
0.102083,-185.660672,22.995321,135.277424,2.881389,4.599902,-0.934550,-3.604516,-4.359053,0.829298,3.339739,0.070083,0.439120,-0.003573,-144.426578,188.571035,1259.309878,-28.507881,0
0.103125,-146.280432,-42.941165,169.654503,3.568207,3.719229,0.767516,-4.254026,-3.447557,-0.899180,3.922339,0.077375,0.425891,-0.040740,-105.416483,188.571069,1258.180792,-27.719272,0
0.104167,-71.508826,-93.033633,196.193754,4.041097,2.416566,2.806665,-4.779819,-2.187767,-2.870175,4.402127,0.117483,0.415005,-0.029590,-43.067881,188.495723,1258.638293,-26.145997,0
0.105208,-10.477929,-146.990210,170.189177,3.545688,0.831354,3.701394,-3.971799,-0.546333,-3.849058,3.549170,0.095606,0.411491,0.003860,6.817755,188.721824,1258.324468,-25.893989,0
0.106250,52.688653,-185.701763,121.667552,2.633685,-1.062094,4.575315,-2.897015,1.276658,-4.616291,2.448704,0.051852,0.431128,-0.022156,53.956360,188.571111,1258.393263,-25.398745,0
0.107292,108.724983,-185.325922,46.813254,1.226272,-2.592264,4.487923,-1.164991,2.810638,-4.413459,0.758022,0.022683,0.420586,-0.048173,100.216816,188.495645,1257.386919,-24.148738,0
0.108334,164.377115,-158.124479,-20.020940,-0.079807,-3.821538,3.934440,0.458782,4.063018,-3.862286,-0.906005,-0.024718,0.416796,-0.007290,138.224920,188.571102,1257.289150,-23.188797,0
0.109375,179.383416,-97.661167,-79.005155,-1.171959,-4.203163,2.432128,2.171477,4.448366,-2.389552,-2.665228,-0.021072,0.416383,-0.037023,147.332905,188.721837,1257.758577,-22.087618,0
0.110417,185.756574,-23.972974,-134.987906,-2.264111,-4.206832,0.950623,3.567148,4.448366,-0.837449,-3.883737,-0.068472,0.405704,-0.018440,145.745481,188.571107,1257.962688,-21.378422,0
