1-Time,2-VGERA,3-VGERB,4-VGERC,5-VN,6-IGERAN,7-IGERBN,8-IGERCN,9-IGERAT,10-IGERBT,11-IGERCT,12-IN,13-IFD,14-IFAULT,15-VFAULT,16-Speed (rad/s),17-Active Power,18-Reactive Power,19-FAULT 
0.000000,-113.612348,-88.476569,183.288679,3.838430,5.924526,0.150098,-5.605521,-5.695733,0.074774,5.776139,-0.243995,0.614057,-0.100873,104.900279,188.496471,1615.033807,882.221417,0
0.001042,-29.269705,-140.119379,188.878448,3.883467,4.434720,2.579822,-6.354939,-4.244933,-2.309529,6.570988,-0.243995,0.642513,-0.078573,27.217839,188.345534,1614.972480,882.430178,0
0.002083,48.247783,-168.718478,157.442073,3.275465,2.324773,4.542911,-6.029434,-2.282726,-4.309130,6.302253,-0.229410,0.637828,-0.086006,-41.131450,188.345471,1614.906054,882.396652,0
0.003125,105.628803,-190.893057,77.204585,1.766719,-0.453018,6.164068,-4.825824,0.332341,-5.902892,5.091055,-0.251287,0.630662,-0.048839,-92.840935,188.421014,1613.628281,882.877260,0
0.004167,151.325701,-176.810790,0.478930,0.314269,-2.618007,6.489908,-3.096107,2.443255,-6.422873,3.353742,-0.207533,0.629697,-0.078573,-136.680851,188.496333,1612.088153,883.511270,0
0.005208,181.982399,-128.609269,-67.606887,-1.048106,-4.786665,5.942818,-0.446651,4.517899,-5.784523,0.708031,-0.156487,0.623634,-0.056273,-164.927987,188.420799,1611.050973,883.423566,0
0.006250,194.434917,-47.275074,-123.091420,-2.072703,-6.159048,4.659570,1.888656,5.925175,-4.655784,-1.706796,-0.087210,0.613024,-0.056273,-172.876364,188.420860,1610.526082,885.550954,0
0.007292,162.038031,19.859404,-172.050505,-3.029743,-6.525995,2.704527,4.080135,6.211708,-2.732277,-3.894523,-0.032517,0.632040,-0.082290,-149.717991,188.420833,1609.122029,886.660417,0
0.008333,113.922949,87.792542,-183.460924,-3.243670,-5.817787,0.045507,5.753078,5.718436,-0.111236,-5.673471,0.025822,0.629973,-0.071140,-105.337675,188.496424,1608.577665,888.207073,0
0.009375,30.235702,139.458842,-188.321593,-3.367522,-4.405040,-2.376172,6.559269,4.307533,2.260384,-6.487245,0.029468,0.633831,-0.063706,-27.677752,188.420929,1607.253010,890.242526,0
0.010417,-47.315686,168.915327,-157.760139,-2.748261,-2.320779,-4.359374,6.195915,2.301802,4.344535,-6.309350,0.003945,0.635003,-0.086006,41.538428,188.420860,1606.400894,891.912766,0
0.011458,-105.589401,189.187214,-78.336813,-1.250774,0.438664,-5.996622,5.056649,-0.327773,5.929842,-5.075442,-0.003348,0.632178,-0.056273,92.966455,188.420895,1604.096240,892.373213,0
0.012500,-151.162000,177.547909,-0.347384,0.246713,2.658695,-6.366712,3.315578,-2.467703,6.466733,-3.364624,-0.028871,0.628319,-0.059989,136.660013,188.496270,1602.638364,893.496496,0
0.013542,-180.733904,129.217193,67.957163,1.597829,4.786990,-5.839736,0.730465,-4.419029,5.896022,-0.771902,-0.112733,0.620740,-0.078573,164.715758,188.345567,1599.843388,894.790884,0
0.014583,-194.904011,47.542393,122.797657,2.656203,6.144695,-4.596715,-1.597272,-5.858948,4.767283,1.654279,-0.160133,0.597383,-0.071140,172.529035,188.420889,1597.909209,897.169432,0
0.015625,-161.693530,-19.932690,171.695984,3.556947,6.625396,-2.693967,-3.792536,-6.232529,2.949464,3.796587,-0.243995,0.630318,-0.056273,150.113711,188.420958,1594.327578,899.215205,0
0.016667,-113.962645,-87.501733,183.884111,3.872208,5.968560,-0.038970,-5.503328,-5.732003,0.307285,5.689084,-0.225764,0.630938,-0.048839,106.138695,188.496389,1592.616105,901.743267,0
0.017708,-30.840395,-139.038838,187.809101,3.905986,4.548474,2.366618,-6.279240,-4.346489,-2.085472,6.434728,-0.236703,0.640721,-0.078573,29.582087,188.347098,1589.131161,903.187650,0
0.018750,46.530194,-169.188279,158.414207,3.320502,2.489900,4.390047,-6.014294,-2.449568,-4.194988,6.355243,-0.262226,0.646027,-0.056273,-40.253300,188.427278,1588.684849,905.395737,0
0.019792,105.922602,-188.027275,79.914408,1.766719,-0.298900,6.027295,-4.886383,0.154618,-5.797205,5.147830,-0.218472,0.635209,-0.078573,-93.268751,188.420774,1586.397149,906.640964,0
0.020833,151.020603,-178.208446,1.268789,0.235454,-2.463889,6.518067,-3.205870,2.348953,-6.384826,3.490002,-0.189302,0.626459,-0.082290,-135.667601,188.496111,1585.820586,908.342073,0
0.021875,179.733714,-130.042160,-67.849920,-0.991810,-4.566497,5.954886,-0.575339,4.314787,-5.809887,0.870785,-0.123671,0.616331,-0.078573,-163.633280,188.420718,1582.873008,910.187272,0
0.022917,195.282411,-47.791854,-122.605353,-2.061443,-6.030616,4.715888,1.756183,5.830873,-4.706513,-1.623526,-0.058040,0.614333,-0.071140,-172.898881,188.420781,1581.689248,911.074205,0
0.023958,161.755533,19.683229,-171.248494,-2.995965,-6.448936,2.829231,3.917383,6.117406,-2.892922,-3.693918,-0.050748,0.648232,-0.078573,-149.267658,188.420868,1578.143347,913.056689,0
0.025000,114.035948,87.252272,-183.910536,-3.209892,-5.865490,0.178257,5.654669,5.678539,-0.254970,-5.559921,0.014883,0.632867,-0.074856,-106.328408,188.496154,1575.948977,914.101921,0
0.026042,31.150996,138.977296,-187.495279,-3.345004,-4.478429,-2.239399,6.441936,4.332922,2.171607,-6.438040,-0.014286,0.643409,-0.082290,-28.983717,188.420692,1574.504421,914.396968,0
0.027083,-45.948395,169.173717,-158.452784,-2.782039,-2.430863,-4.282942,6.207270,2.417866,4.226165,-6.316920,0.036760,0.647680,-0.104590,41.043062,188.420786,1573.515080,915.763260,0
0.028131,-106.052698,188.235868,-79.102368,-1.262033,0.383622,-5.912145,5.090714,-0.200828,5.862202,-5.098152,-0.021578,0.633763,-0.086006,93.686988,188.428856,1571.906362,917.039965,0
0.029166,-150.868202,178.276100,-1.428882,0.212935,2.537603,-6.346599,3.391276,-2.344385,6.487870,-3.493314,-0.032517,0.630800,-0.074856,136.232196,188.495667,1571.459362,919.057173,0
0.030208,-179.411813,130.262499,67.774888,1.564051,4.684244,-5.783418,0.787239,-4.321100,5.883340,-0.874097,-0.116379,0.621429,-0.089723,163.364759,188.495673,1569.847172,919.765077,0
0.031250,-195.356008,47.953468,122.384500,2.599907,6.126347,-4.612806,-1.563207,-5.782781,4.792648,1.623999,-0.134610,0.587668,-0.097156,172.889301,188.420289,1569.046734,919.938724,0
0.032292,-161.704830,-19.803495,171.051946,3.556947,6.581362,-2.738217,-3.682773,-6.170870,2.991739,3.709532,-0.174718,0.605927,-0.067423,149.787219,188.495658,1567.320282,920.225456,0
0.033333,-113.894846,-87.149383,183.957021,3.804652,5.994246,-0.131493,-5.431414,-5.735630,0.341105,5.620954,-0.240349,0.632178,-0.093440,106.690353,188.495727,1566.352608,920.548023,0
0.034375,-31.201992,-138.674742,187.675432,3.894726,4.552143,2.302254,-6.256530,-4.350116,-2.022060,6.423373,-0.280457,0.642237,-0.052556,30.437720,188.495698,1565.661339,920.785846,0
0.035416,45.739199,-169.282239,158.839516,3.354280,2.544942,4.329706,-6.006724,-2.493092,-4.156940,6.366598,-0.291395,0.640790,-0.048839,-39.037401,188.420339,1565.544972,921.229581,0
0.036458,105.425405,-186.981969,82.223225,1.800497,-0.188816,5.970977,-4.901523,0.078451,-5.712655,5.140260,-0.229410,0.640721,-0.067423,-92.784643,188.495582,1564.387198,920.898607,0
0.037503,150.930204,-178.220191,1.937131,0.269232,-2.394169,6.441636,-3.217225,2.276413,-6.372143,3.482432,-0.167425,0.632316,-0.067423,-135.870251,188.495703,1563.660395,920.958834,0
0.038543,179.033118,-131.087466,-67.461066,-1.036847,-4.518793,5.910636,-0.643467,4.242247,-5.780295,0.927560,-0.120025,0.619569,-0.048839,-162.845197,188.495750,1562.585317,921.028946,0
0.039583,195.497110,-48.437830,-122.022072,-2.072703,-5.968235,4.740024,1.650205,5.798230,-4.710741,-1.498621,-0.116379,0.604756,-0.089723,-173.709480,188.495676,1561.429876,921.759116,0
0.040625,162.038031,19.495308,-170.300664,-3.041003,-6.412241,2.881526,3.837899,6.142795,-2.952107,-3.538734,-0.047102,0.592078,-0.067423,-149.143816,188.495841,1559.860775,923.062132,0
0.041666,113.934249,86.758981,-184.068508,-3.333744,-5.872829,0.258711,5.594110,5.685793,-0.293018,-5.491791,-0.003348,0.604756,-0.037689,-106.215824,188.495711,1558.916418,923.434666,0
0.042708,31.399594,138.190380,-187.483128,-3.390041,-4.511455,-2.122740,6.404087,4.365565,2.057465,-6.309350,-0.006994,0.635692,-0.048839,-30.492333,188.440282,1556.468669,923.819048,0
0.043750,-45.349499,169.373382,-158.817334,-2.815817,-2.518931,-4.202488,6.275399,2.465017,4.137388,-6.313135,0.003945,0.640308,-0.078573,39.568221,188.518012,1555.617551,924.477953,0
0.044791,-105.555501,185.593241,-83.075965,-1.385885,0.196479,-5.835713,5.132348,-0.055748,5.731150,-5.166281,0.014883,0.640032,-0.074856,92.977713,188.450577,1553.839422,924.946817,0
0.045833,-150.777802,179.074761,-2.692656,0.179157,2.390824,-6.346599,3.501040,-2.268218,6.420231,-3.557659,-0.054394,0.629904,-0.059989,135.725572,188.507535,1552.993971,925.424404,0
0.046875,-177.818523,132.000760,67.495399,1.507755,4.526457,-5.771350,0.908357,-4.186901,5.874885,-0.999002,-0.101794,0.619776,-0.067423,162.599193,188.437127,1551.108661,926.322914,0
0.047916,-195.740205,49.362869,121.898434,2.622425,6.071305,-4.677169,-1.468584,-5.717495,4.809558,1.506665,-0.130964,0.594696,-0.089723,173.440959,188.500975,1549.980658,926.923908,0
0.048958,-161.885629,-19.380675,170.019053,3.613244,6.478617,-2.838785,-3.546515,-6.098330,3.084744,3.565702,-0.233057,0.607167,-0.067423,149.573311,188.427711,1547.521119,927.812312,0
0.050000,-113.860946,-86.620858,184.588908,3.860949,5.968560,-0.203902,-5.363285,-5.717495,0.425655,5.507404,-0.225764,0.593387,-0.063706,106.611544,188.495709,1545.803096,928.538652,0
0.051041,-31.247192,-137.746887,187.128607,3.973542,4.592508,2.205709,-6.233821,-4.433537,-1.916372,6.324963,-0.251287,0.629008,-0.108307,31.394678,188.495647,1543.614870,929.544778,0
0.052083,45.355002,-169.763784,159.094701,3.399317,2.651356,4.253275,-6.063498,-2.576513,-4.008978,6.362813,-0.258580,0.634107,-0.097156,-38.474485,188.495711,1542.020628,931.022453,0
0.053136,106.284199,-186.335993,82.126012,1.811756,-0.141112,5.938795,-4.897738,0.038554,-5.687290,5.208390,-0.233057,0.643477,-0.089723,-93.775376,188.495674,1541.558502,932.373880,0
0.054183,151.404801,-178.044016,1.767007,0.325528,-2.372152,6.421522,-3.266429,2.243770,-6.338323,3.524067,-0.200241,0.633900,-0.093440,-136.185484,188.495640,1540.874026,933.136402,0
0.055218,178.445522,-131.228406,-67.789162,-1.036847,-4.518793,5.914659,-0.635898,4.209604,-5.805660,0.980550,-0.123671,0.621843,-0.074856,-162.755131,188.495754,1540.352660,933.994998,0
0.056255,195.689208,-49.353941,-122.313713,-2.083962,-5.968235,4.796342,1.665345,5.790976,-4.740333,-1.430491,-0.090856,0.586635,-0.074856,-173.382989,188.420251,1540.201053,934.832510,0
0.057298,161.732933,19.577524,-170.531546,-3.018484,-6.404903,2.857390,3.781125,6.124660,-2.943652,-3.580369,-0.039809,0.608132,-0.067423,-148.828583,188.495732,1540.400784,934.495853,0
0.058336,114.092448,86.688511,-184.457362,-3.277448,-5.865490,0.282848,5.556261,5.718436,-0.360657,-5.495576,0.000299,0.613988,-0.078573,-106.452249,188.495707,1540.497479,935.559818,0
0.059378,30.857198,138.190380,-187.155033,-3.311226,-4.489438,-2.138831,6.381377,4.361938,2.015190,-6.313135,0.007591,0.620189,-0.078573,-29.479084,188.495769,1539.876503,935.980116,0
0.060416,-45.349499,169.608282,-159.181884,-2.759520,-2.548287,-4.186397,6.301894,2.504914,4.154298,-6.350985,-0.003348,0.627079,-0.063706,39.827163,188.495740,1540.519919,936.725153,0
0.061458,-105.419902,185.135186,-84.278980,-1.284552,0.181801,-5.855827,5.166412,-0.030359,5.786108,-5.196561,-0.014286,0.641755,-0.048839,92.988972,188.495817,1541.392338,936.939957,0
0.062500,-150.506604,179.603286,-3.883520,0.145379,2.442196,-6.390849,3.508609,-2.271845,6.445596,-3.580369,-0.032517,0.633694,-0.052556,135.826897,188.495714,1542.138507,936.836694,0
0.063541,-177.671624,133.046066,66.656934,1.519014,4.585169,-5.815599,0.942422,-4.201409,5.950980,-0.995217,-0.087210,0.622876,-0.059989,162.227668,188.495682,1543.319333,936.933583,0
0.064583,-195.796705,50.866230,121.631097,2.622425,6.063966,-4.713374,-1.498863,-5.786408,4.839151,1.525590,-0.160133,0.625701,-0.100873,173.598576,188.495691,1544.834983,936.765431,0
0.065625,-162.439325,-17.994764,170.140570,3.545688,6.507972,-2.862921,-3.584364,-6.127346,3.067834,3.611122,-0.211179,0.584430,-0.082290,149.854769,188.495725,1546.119157,936.068700,0
0.066666,-114.527642,-86.198037,184.588908,3.827171,5.972229,-0.183788,-5.389779,-5.721122,0.442565,5.526329,-0.236703,0.610130,-0.059989,107.016844,188.495805,1546.533941,936.005432,0
0.067708,-31.009894,-137.688162,187.541764,3.860949,4.607185,2.241913,-6.256530,-4.393640,-1.924827,6.374168,-0.240349,0.613713,-0.041406,30.843020,188.495794,1547.168583,935.734379,0
0.068750,45.750499,-169.587609,159.349886,3.320502,2.629340,4.257297,-6.089993,-2.591021,-4.114665,6.430943,-0.247641,0.642375,-0.063706,-38.654618,188.420349,1548.927715,936.117610,0
0.069791,105.233306,-185.490353,84.653560,1.913090,-0.133773,5.962932,-4.996146,0.005911,-5.699973,5.261380,-0.243995,0.638310,-0.063706,-92.570735,188.495591,1549.684755,935.881384,0
0.070833,150.252209,-179.841003,4.598347,0.359306,-2.353805,6.505999,-3.342128,2.225635,-6.367916,3.630047,-0.182010,0.641342,-0.074856,-135.183494,188.495765,1551.063651,936.107693,0
0.071875,177.598028,-133.671368,-66.015018,-1.014329,-4.500446,5.962932,-0.764585,4.184215,-5.885982,1.063820,-0.120025,0.628182,-0.071140,-161.933273,188.495709,1551.886446,936.589454,0
0.072916,195.949107,-51.679453,-121.365882,-2.061443,-5.982913,4.800365,1.646420,5.812738,-4.803746,-1.498621,-0.068979,0.623014,-0.059989,-174.351205,188.499355,1553.629544,935.786840,0
0.073958,162.851625,17.240267,-169.693080,-2.995965,-6.437928,2.897617,3.769770,6.142795,-3.028201,-3.542519,-0.032517,0.634314,-0.071140,-149.414016,188.496214,1553.991288,936.002155,0
0.075000,114.951242,85.467030,-184.761153,-3.277448,-5.916863,0.278825,5.628175,5.783722,-0.322610,-5.548566,-0.017932,0.591389,-0.067423,-106.553574,188.496111,1555.712572,935.658972,0
0.076041,31.422194,137.286015,-187.580341,-3.367522,-4.529802,-2.110672,6.392732,4.372819,2.019417,-6.358555,0.018530,0.636243,-0.067423,-30.267166,188.495991,1556.510407,935.462339,0
0.077083,-45.507698,169.702243,-159.254794,-2.759520,-2.537278,-4.206511,6.335958,2.501287,4.196573,-6.350985,0.029468,0.618122,-0.045123,39.579480,188.496212,1557.018907,935.337414,0
0.078125,-104.990505,185.029481,-84.497710,-1.329589,0.196479,-5.920190,5.189122,-0.088391,5.769198,-5.230626,-0.010640,0.642375,-0.063706,92.572414,188.496188,1557.423139,934.878974,0
0.079166,-150.212806,180.084831,-4.126554,0.179157,2.416510,-6.439121,3.550244,-2.326250,6.504780,-3.606864,-0.047102,0.643409,-0.063706,135.455372,188.496170,1558.811340,934.968006,0
0.080208,-177.197028,133.891707,66.061502,1.507755,4.596177,-5.863872,0.915927,-4.208663,5.976345,-1.006572,-0.090856,0.629973,-0.082290,162.407801,188.496074,1559.284544,934.830450,0
0.081250,-196.226102,52.099456,121.400215,2.622425,6.148364,-4.717396,-1.472369,-5.833559,4.923700,1.567225,-0.127317,0.628664,-0.071140,174.082684,188.496134,1560.994171,935.152804,0
0.082291,-162.913922,-16.832008,169.763868,3.523169,6.552006,-2.846830,-3.637353,-6.203513,3.088971,3.645187,-0.233057,0.626115,-0.071140,150.248811,188.496130,1562.410973,935.180296,0
0.083335,-115.329936,-85.317162,185.087126,3.849689,5.997916,-0.151606,-5.416274,-5.753765,0.391835,5.609599,-0.200241,0.607787,-0.071140,106.960552,188.496138,1564.381685,934.536031,0
0.084375,-31.766989,-137.147891,187.809101,3.894726,4.599847,2.266050,-6.248960,-4.437164,-1.945965,6.385523,-0.273164,0.639206,-0.082290,30.955603,188.496192,1565.053130,934.531937,0
0.085416,45.569700,-169.857744,159.471402,3.421836,2.629340,4.341775,-6.146767,-2.522108,-4.140030,6.430943,-0.262226,0.621981,-0.067423,-38.744685,188.420779,1565.636929,933.633475,0
0.086458,105.029907,-185.161492,84.604953,1.980645,-0.089740,5.999136,-4.977221,0.024046,-5.695745,5.231100,-0.233057,0.638586,-0.067423,-92.536960,188.496076,1565.409812,932.995677,0
0.087500,149.992310,-180.357783,4.403920,0.404343,-2.405177,6.582431,-3.349698,2.265532,-6.444010,3.618692,-0.233057,0.641410,-0.059989,-134.710644,188.495986,1566.726126,932.973687,0
0.088541,177.281630,-133.741838,-65.711226,-1.036847,-4.581175,5.991091,-0.704026,4.238620,-5.924030,1.033540,-0.138256,0.631075,-0.074856,-161.843206,188.496167,1567.736405,932.613015,0
0.089583,196.310704,-52.583818,-121.135000,-2.061443,-6.100336,4.820478,1.763753,5.899786,-4.807973,-1.559181,-0.094502,0.632591,-0.086006,-174.171072,188.420770,1569.635343,932.029473,0
0.090625,163.055024,16.218451,-170.094086,-2.995965,-6.525995,2.869458,3.913598,6.211708,-2.973244,-3.682563,-0.058040,0.640997,-0.056273,-149.729249,188.496237,1572.232865,930.845647,0
0.091666,116.182934,84.774075,-185.040642,-3.345004,-5.953557,0.210439,5.737938,5.729317,-0.250743,-5.646976,0.003945,0.634865,-0.052556,-107.375432,188.496141,1573.985562,929.066182,0
0.092708,32.303588,137.109840,-188.054256,-3.356263,-4.449074,-2.259513,6.502495,4.416343,2.137787,-6.434255,0.011237,0.578367,-0.082290,-29.659217,188.496467,1576.415791,928.663590,0
0.093750,-45.405998,169.549557,-159.692255,-2.827076,-2.430863,-4.351329,6.351098,2.410612,4.331852,-6.434255,0.022176,0.625426,-0.074856,40.266237,188.345004,1579.034581,927.615006,0
0.094791,-104.346409,186.121767,-83.586335,-1.307070,0.310233,-5.976508,5.162627,-0.193574,5.925615,-5.162496,0.011237,0.637208,-0.067423,91.986981,188.495731,1581.286258,926.099420,0
0.095833,-149.783409,180.190537,-3.810610,0.235454,2.563289,-6.555780,3.470760,-2.409671,6.568193,-3.493314,-0.025225,0.632660,-0.089723,135.331531,188.495667,1582.595336,924.454068,0
0.096875,-178.236621,133.351436,65.429615,1.575311,4.753964,-5.875940,0.806164,-4.419029,6.039757,-0.870312,-0.098148,0.627975,-0.082290,163.027009,188.495854,1586.191865,923.040375,0
0.097916,-196.260002,52.393082,120.829086,2.622425,6.247440,-4.665101,-1.619981,-5.967758,4.860288,1.699699,-0.160133,0.611990,-0.093440,173.913809,188.344878,1588.618760,921.122786,0
0.098958,-163.264220,-15.857172,170.517272,3.523169,6.640073,-2.738217,-3.837955,-6.305069,3.025559,3.823081,-0.225764,0.642720,-0.063706,150.631594,188.495423,1592.092869,919.975615,0
0.100000,-116.290430,-84.682931,184.941306,3.883467,6.071305,-0.034947,-5.567672,-5.822678,0.269238,5.726934,-0.243995,0.642031,-0.052556,107.883735,188.420245,1594.915711,918.824696,0
0.101041,-32.444984,-137.230106,188.526049,3.996060,4.552143,2.382709,-6.343584,-4.360997,-2.148884,6.544493,-0.233057,0.614402,-0.041406,30.662887,188.495656,1598.829921,916.840180,0
0.102083,45.230703,-169.329219,159.945318,3.433095,2.522925,4.490615,-6.124057,-2.438687,-4.275310,6.430943,-0.265872,0.619500,-0.056273,-38.800976,188.344956,1600.618547,915.009358,0
0.103125,103.877315,-187.040694,83.499151,1.913090,-0.317247,6.103727,-4.943157,0.176380,-5.885982,5.166755,-0.225764,0.633349,-0.082290,-91.276027,188.495633,1603.821306,913.068165,0
0.104166,149.495114,-180.181608,4.015066,0.359306,-2.588651,6.602545,-3.224795,2.457763,-6.477830,3.474862,-0.182010,0.632178,-0.033973,-134.676869,188.420263,1605.722372,910.163347,0
0.105208,178.445522,-133.365998,-65.018580,-0.969291,-4.735292,5.999136,-0.545059,4.409089,-5.919802,0.878355,-0.130964,0.621705,-0.089723,-162.946522,188.495683,1608.500381,908.016055,0
0.106250,196.242905,-52.184488,-120.503113,-2.072703,-6.206751,4.736001,1.884871,5.928802,-4.765698,-1.703011,-0.087210,0.627906,-0.086006,-174.520080,188.420361,1609.607844,906.141611,0
0.107291,163.631320,15.478515,-170.276361,-3.063521,-6.570029,2.845322,4.042286,6.262486,-2.897149,-3.792328,-0.032517,0.635623,-0.067423,-150.314682,188.495725,1611.756766,904.770442,0
0.108333,116.555831,84.104609,-184.943428,-3.311226,-5.975574,0.113893,5.768217,5.711182,-0.174648,-5.737816,0.000299,0.640239,-0.089723,-107.611857,188.420254,1613.235735,903.356458,0
0.109375,33.128483,136.804469,-188.673992,-3.446337,-4.456412,-2.384217,6.578194,4.314787,2.260384,-6.506170,0.018530,0.635072,-0.067423,-30.548624,188.495702,1615.327229,901.168997,0
0.110416,-44.569804,169.326402,-159.971743,-2.793298,-2.328118,-4.403624,6.332173,2.327191,4.399492,-6.396405,0.022176,0.646922,-0.078573,39.489413,188.344999,1616.089338,899.225829,0
