1-Time,2-VGERA,3-VGERB,4-VGERC,5-VN,6-IGERAN,7-IGERBN,8-IGERCN,9-IGERAT,10-IGERBT,11-IGERCT,12-IN,13-IFD,14-IFAULT,15-VFAULT,16-Speed (rad/s),17-Active Power,18-Reactive Power,19-FAULT 
0.000000,-80.899064,-87.689654,194.395307,3.984801,2.181664,2.789004,-4.435975,-1.869248,-2.656183,4.602790,-0.229410,0.397642,-0.071140,-13.064446,188.269481,1236.792327,-19.424222,0
0.001042,-16.658988,-141.575760,175.426547,3.658281,0.523062,3.786639,-3.735762,-0.429329,-3.679234,3.917706,-0.222118,0.410458,-0.078573,-128.754990,188.344929,1237.733046,-19.404408,0
0.002083,46.597994,-181.825909,126.576827,2.768796,-1.385064,4.643479,-2.622990,1.489354,-4.537414,2.846553,-0.167425,0.402879,-0.059989,-232.230252,188.420397,1238.436788,-19.895184,0
0.003125,102.317925,-187.721905,52.840483,1.316347,-3.003301,4.534865,-1.071165,3.063472,-4.550096,1.237930,-0.141902,0.414523,-0.071140,-290.165590,188.495613,1239.441703,-20.864759,0
0.004167,160.602940,-158.923140,-11.502618,0.044046,-4.148177,3.963639,0.575283,4.122556,-3.970931,-0.435038,-0.090856,0.413558,-0.089723,-331.157150,188.269608,1240.776997,-21.564234,0
0.005208,181.044505,-105.776969,-72.479707,-1.081884,-4.551819,2.499368,2.210376,4.597693,-2.618135,-2.058801,-0.090856,0.412111,-0.056273,-279.515215,188.420363,1242.045341,-22.153480,0
0.006250,186.649268,-28.952858,-130.941399,-2.230333,-4.533471,0.990847,3.569168,4.510645,-1.020145,-3.463034,-0.058040,0.419139,-0.074856,-211.830168,188.420314,1242.272428,-23.300874,0
0.007292,153.596986,36.631278,-166.570101,-2.962187,-3.645459,-0.746969,4.220178,3.774364,0.598982,-4.182183,-0.036163,0.418795,-0.071140,-109.503255,188.495743,1243.658464,-23.915226,0
0.008333,80.893267,87.604622,-194.421732,-3.525153,-2.174000,-2.818671,4.640306,2.280040,2.623948,-4.590962,-0.032517,0.423686,-0.071140,14.833682,188.269606,1243.962452,-24.571706,0
0.009375,15.862197,141.361533,-175.489428,-3.097299,-0.577780,-3.764011,3.902243,0.821986,3.685047,-3.970223,-0.014286,0.411009,-0.078573,130.783167,188.420320,1244.912362,-24.997173,0
0.010417,-46.999288,181.576448,-125.740484,-2.174036,1.422083,-4.592692,2.815966,-1.020530,4.509407,-2.812015,-0.072625,0.394955,-0.067423,232.839880,188.420354,1244.849726,-25.073320,0
0.011458,-101.860425,187.813048,-50.837580,-0.721587,2.985278,-4.516260,1.199797,-2.652680,4.547454,-1.218532,-0.101794,0.403568,-0.037689,289.953361,188.495729,1245.267556,-25.633912,0
0.012500,-159.975941,158.650188,13.043758,0.505677,4.177857,-3.969170,-0.408801,-3.650105,3.921786,0.454436,-0.149195,0.404739,-0.086006,318.403147,188.269440,1245.277654,-25.805586,0
0.013542,-180.654805,104.376496,72.915045,1.620348,4.555813,-2.508922,-2.043894,-4.132496,2.594355,2.104694,-0.160133,0.408322,-0.045123,279.618219,188.344979,1245.885268,-26.388834,0
0.014583,-186.655065,27.846011,131.036491,2.836352,4.552143,-1.012469,-3.357268,-4.081718,1.064005,3.459722,-0.233057,0.419415,-0.071140,212.394763,188.420312,1246.461790,-26.207710,0
0.015625,-153.297686,-36.504900,166.470765,3.523169,3.612758,0.709256,-4.027202,-3.301913,-0.614307,4.190226,-0.192949,0.392199,-0.056273,111.441366,188.495769,1247.388945,-26.805952,0
0.016667,-80.853864,-87.208108,194.492520,4.018579,2.185333,2.752799,-4.496534,-1.811216,-2.656183,4.621715,-0.225764,0.379590,-0.059989,-12.208814,188.344999,1247.222404,-27.485851,0
0.017708,-16.342591,-141.329115,175.620974,3.669540,0.545079,3.762503,-3.747116,-0.316892,-3.687689,3.993406,-0.214826,0.384482,-0.071140,-128.642407,188.269546,1247.910829,-28.435697,0
0.018750,46.349395,-181.767184,127.062894,2.768796,-1.414419,4.627388,-2.694904,1.485727,-4.562779,2.842768,-0.189302,0.410182,-0.059989,-231.746144,188.420139,1248.203854,-28.666673,0
0.019792,101.854628,-187.780630,53.277943,1.350125,-2.995962,4.526820,-1.025746,3.067099,-4.571234,1.241715,-0.182010,0.410458,-0.074856,-289.951682,188.495693,1248.454140,-28.837965,0
0.020833,160.354342,-159.252000,-10.980096,0.122861,-4.162855,3.919389,0.579068,4.140691,-3.979386,-0.423683,-0.120025,0.414316,-0.067423,-331.055825,188.344936,1248.716955,-28.988420,0
0.021875,180.886306,-106.246770,-72.151612,-1.126922,-4.551819,2.475231,2.240655,4.572304,-2.596998,-2.073941,-0.072625,0.412869,-0.086006,-279.875482,188.344863,1248.353375,-29.504358,0
0.022917,186.886566,-29.704539,-130.661911,-2.219074,-4.537141,0.994870,3.561599,4.481629,-1.062420,-3.466819,-0.076271,0.418037,-0.071140,-212.708317,188.420334,1248.220731,-29.429594,0
0.023958,154.026384,35.856108,-166.375674,-2.917150,-3.616103,-0.714788,4.163404,3.738094,0.594754,-4.197323,-0.025225,0.425547,-0.037689,-110.707896,188.495703,1248.050120,-30.009008,0
0.025000,81.763361,87.158312,-194.288064,-3.446337,-2.210695,-2.770399,4.644091,2.356207,2.661995,-4.609887,-0.010640,0.408873,-0.071140,13.707850,188.344813,1248.948843,-29.925272,0
0.026042,16.257694,141.032673,-175.805371,-3.142336,-0.570441,-3.743897,3.917383,0.872764,3.672365,-3.932373,-0.021578,0.387583,-0.056273,130.051376,188.344849,1248.521163,-29.652235,0
0.027083,-46.648990,181.329803,-126.141489,-2.207814,1.381719,-4.600737,2.819751,-1.006022,4.505179,-2.838510,-0.054394,0.405635,-0.048839,232.502130,188.420312,1248.613071,-29.451319,0
0.028125,-101.453628,188.036203,-51.481618,-0.732846,3.007295,-4.492124,1.226292,-2.656307,4.560137,-1.248812,-0.098148,0.405290,-0.059989,289.728194,188.495727,1248.947874,-29.402915,0
0.029167,-159.512644,158.802873,12.460478,0.516936,4.126485,-3.904806,-0.401231,-3.668240,3.921786,0.409016,-0.149195,0.408528,-0.041406,318.211756,188.344932,1249.016312,-29.230447,0
0.030208,-181.118102,105.186902,72.514040,1.665385,4.530127,-2.516967,-2.036325,-4.136123,2.607038,2.104694,-0.156487,0.410940,-0.059989,280.485110,188.269463,1249.352826,-29.393512,0
0.031250,-186.575966,28.174871,130.477514,2.791315,4.519118,-1.024537,-3.383762,-4.020059,1.064005,3.448367,-0.211179,0.372149,-0.059989,212.473571,188.420265,1248.449800,-29.675224,0
0.032292,-153.749683,-36.375705,166.470765,3.455614,3.653123,0.693165,-4.023417,-3.345437,-0.576259,4.152376,-0.189302,0.409906,-0.078573,111.925474,188.495626,1248.454663,-28.904688,0
0.033333,-81.238062,-87.149383,193.921392,4.052357,2.196342,2.720617,-4.477609,-1.920026,-2.618135,4.568725,-0.269518,0.405979,-0.082290,-11.949872,188.344945,1248.119436,-27.567732,0
0.034375,-16.399090,-141.058979,176.289316,3.669540,0.611130,3.722275,-3.800106,-0.385805,-3.649642,3.951771,-0.182010,0.386894,-0.078573,-128.034457,188.269563,1247.533424,-26.880057,0
0.035417,46.281596,-181.062484,127.439596,2.791315,-1.374055,4.603251,-2.679764,1.434949,-4.503594,2.861693,-0.200241,0.402121,-0.067423,-231.003094,188.420294,1246.734153,-26.150207,0
0.036458,101.391331,-188.250430,53.593887,1.316347,-2.959268,4.571070,-1.074950,3.052591,-4.537414,1.290920,-0.149195,0.415832,-0.056273,-289.692741,188.420253,1246.528119,-25.756404,0
0.037500,159.834545,-158.958375,-10.408968,0.077824,-4.140838,3.963639,0.533648,4.097167,-3.979386,-0.385833,-0.105440,0.417348,-0.071140,-330.909467,188.344901,1245.863893,-25.253253,0
0.038542,181.157504,-106.704825,-71.677697,-1.081884,-4.555488,2.555686,2.187666,4.594066,-2.668865,-2.051231,-0.094502,0.413351,-0.071140,-280.618531,188.269536,1246.567303,-24.592156,0
0.039583,186.445869,-30.197829,-130.260906,-2.219074,-4.555488,1.027051,3.550244,4.528780,-1.113150,-3.474389,-0.079917,0.414040,-0.048839,-212.989775,188.420280,1247.112756,-24.122444,0
0.040625,154.602680,35.163152,-166.436432,-2.905891,-3.671145,-0.698697,4.197468,3.839650,0.586299,-4.163258,-0.025225,0.403637,-0.078573,-111.980086,188.420441,1247.765187,-23.470289,0
0.041667,82.656055,86.735491,-193.656177,-3.536412,-2.188678,-2.762353,4.636521,2.316310,2.632403,-4.590962,0.000299,0.417623,-0.030256,12.435659,188.345015,1247.018808,-23.894735,0
0.042708,17.059989,140.656833,-176.485865,-3.119818,-0.607135,-3.739875,3.947662,0.803851,3.693502,-4.000503,-0.036163,0.416934,-0.086006,128.914285,188.269532,1247.934617,-24.866944,0
0.043750,-46.276093,180.813022,-126.736921,-2.151518,1.378049,-4.564533,2.815966,-1.031411,4.496724,-2.842295,-0.068979,0.421482,-0.071140,231.612723,188.344916,1247.878582,-25.358628,0
0.044792,-101.058131,188.517749,-51.919078,-0.755365,2.988948,-4.508215,1.256571,-2.620037,4.534772,-1.252597,-0.109087,0.404946,-0.063706,289.761969,188.420367,1247.459284,-25.259918,0
0.045833,-159.196247,158.943813,11.707075,0.449381,4.126485,-3.936988,-0.367167,-3.631970,3.913331,0.397661,-0.127317,0.406186,-0.074856,318.200497,188.420292,1246.949470,-25.244986,0
0.046875,-181.197201,105.562742,72.003670,1.609088,4.489762,-2.496854,-2.066604,-4.096226,2.607038,2.066844,-0.174718,0.406324,-0.056273,280.721535,188.269386,1246.330492,-24.997658,0
0.047917,-186.553366,28.703396,130.088660,2.780056,4.515449,-0.996378,-3.353483,-4.088972,1.055550,3.455937,-0.182010,0.416590,-0.067423,212.788804,188.344983,1247.085424,-25.163743,0
0.048958,-154.111280,-35.988119,166.312794,3.466873,3.686148,0.693165,-3.985568,-3.323675,-0.576259,4.152376,-0.207533,0.389857,-0.052556,112.477132,188.420180,1246.905500,-25.501805,0
0.050000,-81.949957,-86.691328,193.714813,3.984801,2.200011,2.752799,-4.409481,-1.861994,-2.601225,4.564940,-0.196595,0.397022,-0.082290,-10.936623,188.420227,1246.393668,-26.198049,0
0.051042,-16.647689,-140.366024,176.641715,3.714578,0.585443,3.734343,-3.747116,-0.374924,-3.641187,3.997191,-0.211179,0.397229,-0.048839,-126.976175,188.269548,1246.709654,-26.279126,0
0.052083,45.976498,-180.498723,128.083634,2.780056,-1.344699,4.579115,-2.668409,1.434949,-4.512049,2.850338,-0.171072,0.414454,-0.074856,-230.046137,188.344858,1246.648536,-26.654837,0
0.053125,100.928035,-188.403115,54.092105,1.361384,-2.940920,4.510729,-1.090090,3.067099,-4.528959,1.294705,-0.138256,0.409217,-0.074856,-289.512607,188.420276,1246.674936,-27.004127,0
0.054167,159.201749,-159.287235,-9.619109,0.100342,-4.074787,3.927434,0.545003,4.017373,-3.907519,-0.363123,-0.141902,0.416865,-0.063706,-330.819400,188.495734,1245.082041,-27.071073,0
0.055208,181.304403,-107.562211,-71.106568,-1.104403,-4.485768,2.575799,2.146032,4.557796,-2.651955,-1.994456,-0.101794,0.415212,-0.067423,-281.552972,188.269640,1244.394011,-26.911759,0
0.056250,186.411970,-30.867295,-129.738384,-2.207814,-4.485768,1.035097,3.485900,4.463494,-1.113150,-3.406259,-0.079917,0.414592,-0.074856,-213.665274,188.344885,1243.013824,-26.845084,0
0.057292,155.212876,34.658117,-166.254157,-2.894632,-3.649128,-0.654447,4.136909,3.774364,0.514432,-4.106483,-0.032517,0.423755,-0.063706,-112.959561,188.420358,1241.726424,-26.523866,0
0.058333,83.819948,86.676766,-192.866318,-3.513893,-2.210695,-2.653740,4.575962,2.352580,2.547853,-4.530402,-0.028871,0.399089,-0.030256,11.456185,188.420269,1240.654031,-25.643785,0
0.059375,17.432886,140.374952,-176.984083,-3.164855,-0.643830,-3.651375,3.909813,0.880018,3.587815,-3.981578,-0.025225,0.420173,-0.067423,128.137461,188.269429,1239.660019,-24.376612,0
0.060417,-45.903195,179.685501,-127.587538,-2.185296,1.330346,-4.512237,2.781901,-0.966125,4.395265,-2.846080,-0.039809,0.411698,-0.089723,230.610732,188.344854,1238.180005,-23.711884,0
0.061458,-100.560934,188.717414,-52.733240,-0.744105,2.897211,-4.463965,1.298206,-2.576513,4.509407,-1.286662,-0.083563,0.403705,-0.082290,289.446736,188.420303,1237.769172,-23.324391,0
0.062500,-158.326152,158.603208,10.990126,0.471899,4.027409,-3.876647,-0.329318,-3.592073,3.879511,0.306821,-0.127317,0.405704,-0.045123,317.468706,188.420092,1236.700153,-22.512942,0
0.063542,-181.502299,106.537578,71.590513,1.597829,4.453068,-2.500876,-1.968196,-4.059956,2.619720,1.976004,-0.182010,0.399709,-0.074856,281.768559,188.269577,1236.131497,-21.697807,0
0.064583,-185.931870,29.314137,129.274498,2.723759,4.449398,-1.052696,-3.296709,-3.969281,1.102053,3.346172,-0.189302,0.401776,-0.056273,212.676221,188.269574,1233.695774,-20.932380,0
0.065625,-154.811876,-35.588789,166.118367,3.455614,3.660461,0.677074,-3.943933,-3.305540,-0.521302,4.103171,-0.192949,0.399296,-0.056273,113.377798,188.420338,1232.977662,-20.486670,0
0.066667,-83.023450,-86.785288,192.208006,4.086135,2.218359,2.688436,-4.386771,-1.909145,-2.503993,4.504381,-0.225764,0.403430,-0.071140,-10.441257,188.420298,1231.708877,-19.298661,0
0.067708,-16.523389,-140.189849,177.443725,3.759615,0.691858,3.649866,-3.735762,-0.461972,-3.615822,3.970696,-0.233057,0.414178,-0.063706,-126.683458,188.269581,1231.483978,-18.359254,0
0.068750,46.258996,-179.065832,128.484640,2.768796,-1.274980,4.514752,-2.683549,1.384171,-4.406362,2.820058,-0.182010,0.398469,-0.093440,-229.190504,188.269453,1229.617774,-17.881869,0
0.069792,100.453438,-189.154796,54.456656,1.406421,-2.900556,4.506706,-1.116585,2.994559,-4.533187,1.317415,-0.134610,0.410044,-0.093440,-289.377508,188.420370,1229.415552,-17.193374,0
0.070833,158.241256,-158.899650,-8.841402,0.145379,-4.012406,3.915366,0.495799,3.955714,-3.911746,-0.298778,-0.105440,0.415418,-0.071140,-330.008801,188.495700,1228.480226,-16.354298,0
0.071875,181.756400,-108.313891,-70.559743,-1.048106,-4.467421,2.595913,2.096828,4.543288,-2.702685,-1.926326,-0.083563,0.417279,-0.074856,-282.813904,188.269554,1228.510237,-15.433323,0
0.072917,185.688774,-31.759916,-129.155104,-2.174036,-4.452743,1.075324,3.425341,4.423597,-1.180790,-3.341914,-0.043455,0.418381,-0.078573,-214.104349,188.269539,1227.448230,-14.587334,0
0.073958,156.049070,33.742006,-166.339219,-2.894632,-3.674815,-0.602151,4.102845,3.799753,0.480612,-4.072418,-0.028871,0.421413,-0.074856,-114.839701,188.420410,1227.416690,-14.280767,0
0.075000,85.379337,86.359651,-191.845578,-3.401300,-2.232712,-2.609490,4.564607,2.370715,2.450621,-4.507692,-0.043455,0.419621,-0.082290,9.902536,188.495716,1226.562456,-13.592112,0
0.076042,17.918783,139.940387,-177.761790,-3.209892,-0.629152,-3.615170,3.868179,0.865510,3.583587,-3.966438,-0.021578,0.429405,-0.041406,127.157987,188.269525,1226.450172,-14.103892,0
0.077083,-45.688497,178.663685,-128.231577,-2.275370,1.249618,-4.472010,2.823536,-0.915347,4.369900,-2.842295,-0.036163,0.417623,-0.074856,229.529933,188.269442,1225.810453,-13.765982,0
0.078125,-100.380135,189.257684,-53.389431,-0.811661,2.831161,-4.484078,1.290636,-2.511227,4.526317,-1.328297,-0.098148,0.406117,-0.052556,289.761969,188.420305,1225.896766,-12.917337,0
0.079167,-157.636857,158.720658,10.139509,0.449381,3.939341,-3.884693,-0.302823,-3.519533,3.871056,0.314391,-0.141902,0.406944,-0.108307,317.299831,188.495721,1224.945233,-12.977162,0
0.080208,-181.807397,107.383219,71.201659,1.609088,4.427381,-2.492831,-1.877357,-4.016432,2.666223,1.945724,-0.156487,0.407977,-0.063706,282.849358,188.269494,1224.794484,-12.434507,0
0.081250,-185.796271,30.018838,129.031465,2.712500,4.420042,-1.036605,-3.209655,-3.969281,1.118963,3.285612,-0.196595,0.421344,-0.086006,213.047745,188.269536,1224.293224,-11.994326,0
0.082292,-155.444671,-35.248184,166.142670,3.410576,3.649453,0.556393,-3.902299,-3.323675,-0.466345,4.035041,-0.189302,0.403292,-0.048839,114.019522,188.420178,1223.754154,-11.167402,0
0.083333,-84.040443,-86.620858,191.503209,4.018579,2.196342,2.620049,-4.360276,-1.861994,-2.444808,4.436251,-0.214826,0.382760,-0.071140,-9.394233,188.420321,1222.259738,-11.349997,0
0.084375,-16.715488,-139.579108,177.990550,3.748356,0.695527,3.589525,-3.735762,-0.487361,-3.522817,3.970696,-0.211179,0.393233,-0.089723,-126.064251,188.269631,1221.442578,-10.661973,0
0.085417,46.326795,-178.149721,129.177285,2.802574,-1.241954,4.478547,-2.694904,1.358782,-4.406362,2.857908,-0.174718,0.404946,-0.048839,-228.447455,188.269509,1221.547698,-10.251604,0
0.086458,100.250039,-189.190031,54.651082,1.417680,-2.812489,4.462456,-1.192283,2.947408,-4.516277,1.366620,-0.134610,0.411147,-0.052556,-289.276183,188.420368,1221.226232,-9.412620,0
0.087500,157.495461,-159.087570,-8.525459,0.179157,-3.957364,3.907321,0.408745,3.897682,-3.924429,-0.245788,-0.109087,0.417210,-0.093440,-329.344560,188.495633,1220.620559,-8.600343,0
0.088542,181.779000,-108.889397,-70.365316,-1.048106,-4.390362,2.612004,2.032484,4.448986,-2.685775,-1.873336,-0.072625,0.413627,-0.063706,-283.545695,188.269471,1219.262518,-8.222444,0
0.089583,185.587075,-32.394146,-128.401700,-2.151518,-4.423387,1.107506,3.342072,4.394581,-1.176562,-3.254859,-0.032517,0.404532,-0.074856,-214.588457,188.269572,1218.060358,-7.964033,0
0.090625,156.252469,33.424890,-166.120489,-2.883372,-3.641789,-0.549856,4.034716,3.792499,0.434110,-4.015643,-0.006994,0.407564,-0.067423,-115.548975,188.420236,1217.272120,-7.397611,0
0.091667,86.701429,86.242201,-190.715472,-3.423819,-2.196017,-2.529035,4.492693,2.396104,2.353389,-4.416852,-0.006994,0.417485,-0.078573,8.506504,188.420323,1215.647854,-6.548212,0
0.092708,18.653278,139.588037,-178.235706,-3.198633,-0.757584,-3.558852,3.940092,0.945304,3.499038,-3.943728,-0.025225,0.418106,-0.052556,126.077188,188.269505,1214.820709,-5.493503,0
0.093750,-45.304299,177.371734,-129.483199,-2.230333,1.201915,-4.395578,2.850030,-0.842807,4.306487,-2.849865,-0.079917,0.411422,-0.056273,228.246484,188.269463,1213.816393,-4.902702,0
0.094792,-99.928138,189.586545,-54.398019,-0.822920,2.801805,-4.463965,1.309561,-2.478584,4.500952,-1.347222,-0.072625,0.407977,-0.071140,289.469253,188.420330,1213.490154,-4.813029,0
0.095833,-156.732863,158.685423,9.349650,0.415603,3.902647,-3.828375,-0.268759,-3.432485,3.858374,0.280326,-0.130964,0.407839,-0.071140,316.646849,188.420260,1212.260935,-4.318209,0
0.096875,-182.259394,108.005705,70.739896,1.575311,4.420042,-2.545126,-1.866002,-4.045448,2.695815,1.854884,-0.163779,0.407977,-0.086006,283.761282,188.269563,1212.536201,-3.367585,0
0.097917,-185.152175,30.782263,128.083634,2.689981,4.376009,-1.100969,-3.164236,-3.911249,1.131645,3.225052,-0.160133,0.411973,-0.115740,213.126554,188.269599,1211.109187,-3.245669,0
0.098958,-155.975768,-34.414288,166.081912,3.466873,3.656792,0.540302,-3.883374,-3.327302,-0.402932,3.989621,-0.185656,0.412111,-0.056273,115.359263,188.420312,1210.608881,-2.642079,0
0.100000,-85.565933,-86.385957,190.312345,3.917245,2.203681,2.563731,-4.326212,-1.880129,-2.444808,4.436251,-0.178364,0.420793,-0.052556,-8.234625,188.420406,1210.570674,-2.855817,0
0.101042,-17.088386,-139.391188,178.901925,3.737096,0.688188,3.629753,-3.743332,-0.483734,-3.527045,3.959341,-0.203887,0.424169,-0.074856,-125.568884,188.269474,1210.678500,-3.218728,0
0.102083,46.304195,-176.740320,129.906385,2.802574,-1.183243,4.426252,-2.740323,1.304377,-4.296447,2.869263,-0.203887,0.391855,-0.063706,-227.344139,188.269572,1209.143571,-2.479529,0
0.103125,99.809342,-190.035672,55.112846,1.451458,-2.783133,4.474524,-1.207423,2.911138,-4.520504,1.396900,-0.156487,0.413834,-0.059989,-289.625191,188.420300,1209.272333,-2.055091,0
0.104167,156.670566,-158.817435,-8.173060,0.122861,-3.902322,3.915366,0.397391,3.879547,-3.915974,-0.215508,-0.094502,0.417692,-0.067423,-327.475678,188.420262,1208.739412,-1.820551,0
0.105208,182.377896,-109.570607,-69.818491,-1.014329,-4.419718,2.668322,1.971925,4.441732,-2.753415,-1.824131,-0.065333,0.412387,-0.048839,-285.054311,188.344976,1209.093375,-0.927039,0
0.106250,185.168978,-33.028377,-127.830571,-2.151518,-4.386692,1.147733,3.330717,4.387327,-1.201927,-3.179159,-0.032517,0.420448,-0.082290,-215.083823,188.269494,1208.269859,-0.310313,0
0.107292,156.885265,32.696700,-166.290612,-2.905891,-3.627112,-0.525720,4.030931,3.814261,0.421427,-4.042138,0.014883,0.413972,-0.067423,-117.158916,188.344994,1208.888550,-0.417965,0
0.108333,87.774921,86.089516,-189.840552,-3.378782,-2.229042,-2.516967,4.451059,2.403358,2.349161,-4.401712,-0.058040,0.395437,-0.067423,7.369413,188.420249,1208.622414,-0.582502,0
0.109375,19.206975,139.400116,-178.916199,-3.131077,-0.768592,-3.550807,3.940092,0.974320,3.482128,-3.985363,-0.068979,0.420310,-0.071140,125.367913,188.344882,1209.101049,-0.203766,0
0.110417,-45.078301,176.537838,-130.042176,-2.309148,1.135864,-4.407647,2.906804,-0.773894,4.259985,-2.865005,-0.090856,0.415281,-0.067423,227.210718,188.269510,1208.372771,0.584174,0
