1-Time,2-VGERA,3-VGERB,4-VGERC,5-VN,6-IGERAN,7-IGERBN,8-IGERCN,9-IGERAT,10-IGERBT,11-IGERCT,12-IN,13-IFD,14-IFAULT,15-VFAULT,16-Speed (rad/s),17-Active Power,18-Reactive Power,19-FAULT 
0.000000,-151.387998,166.437130,-2.680505,0.201676,4.706317,-5.087756,0.021910,-4.525790,5.093172,-0.232017,0.066437,0.462270,-0.040740,-152.172305,188.495960,1610.460578,-15.173072,0
0.001042,-186.598565,117.988963,59.815543,1.395162,5.686066,-3.751905,-2.131522,-5.403938,3.585163,1.866104,0.117483,0.459239,-0.007290,-180.318117,188.571494,1610.403847,-14.412505,0
0.002083,-189.446147,41.012167,118.301539,2.566129,5.686066,-1.700271,-4.072318,-5.529917,1.530390,3.770025,0.132068,0.461099,-0.003573,-185.204230,188.571446,1610.284013,-14.667776,0
0.003125,-162.631424,-23.961229,165.206991,3.444354,5.120968,0.405463,-5.348140,-4.933369,-0.533201,4.840028,0.153945,0.475224,-0.022156,-155.065695,188.571599,1609.555963,-15.212474,0
0.004167,-95.114370,-77.706395,192.037883,4.063616,3.410993,2.777534,-5.800476,-3.280820,-2.980409,5.449283,0.157591,0.473983,0.003860,-85.230307,188.496033,1609.098748,-15.037811,0
0.005208,-26.297825,-134.000228,186.982787,3.928504,1.557909,4.479600,-5.390667,-1.394840,-4.528103,4.878107,0.146652,0.480391,-0.022156,-21.575740,188.646864,1608.057544,-14.824235,0
0.006250,37.863151,-176.376225,138.011550,2.960204,-0.632766,5.557436,-4.126444,0.895015,-5.674543,3.632943,0.117483,0.460548,-0.029590,40.086104,188.496056,1607.539520,-14.304368,0
0.007292,90.780702,-196.941737,63.655471,1.541533,-2.940864,5.865389,-2.197246,3.062596,-5.833281,1.610979,0.106545,0.463166,-0.014723,92.065789,188.571413,1607.044679,-13.929277,0
0.008333,151.224002,-166.392966,1.523974,0.336788,-4.412323,5.058053,0.014178,4.633629,-5.092504,-0.586146,0.055498,0.452280,0.011294,152.432926,188.496049,1606.577788,-13.412594,0
0.009375,186.298970,-117.228354,-59.975637,-0.845439,-5.322352,3.738848,2.144414,5.511778,-3.632998,-2.684267,0.044560,0.456758,-0.029590,180.635029,188.646869,1606.918664,-13.127020,0
0.010417,189.462949,-39.805247,-118.012021,-1.993888,-5.395742,1.683052,4.058146,5.604409,-1.573816,-4.599611,-0.010133,0.462615,0.011294,185.554917,188.571458,1606.759836,-12.925797,0
0.011458,162.343129,24.792308,-164.917473,-2.928410,-4.852660,-0.397712,5.295307,4.955988,0.472138,-5.688654,-0.046595,0.463717,-0.018440,155.450157,188.571467,1606.876241,-12.755438,0
0.012500,94.826075,77.762304,-192.404555,-3.457597,-3.183049,-2.753138,5.794037,3.351607,2.967849,-6.248407,-0.064826,0.468403,-0.048173,86.324043,188.496272,1607.386971,-13.411756,0
0.013542,26.992623,133.997412,-186.438084,-3.322485,-1.293271,-4.500980,5.469282,1.469332,4.550818,-5.700078,-0.039302,0.478255,-0.018440,23.322459,188.646884,1607.584756,-13.889936,0
0.014583,-36.976254,177.078109,-137.734184,-2.387963,0.963455,-5.599624,4.177996,-0.779765,5.701667,-4.432066,-0.021072,0.471848,-0.025873,-38.902301,188.496020,1607.611271,-15.024758,0
0.015625,-90.854298,196.292945,-64.423149,-1.003069,3.242198,-5.861800,2.167610,-2.988104,5.833948,-2.402487,-0.002841,0.462546,-0.022156,-91.940269,188.571581,1607.734611,-15.884381,0
0.016667,-152.111193,166.343170,-1.987859,0.235454,4.709987,-5.050302,-0.070877,-4.559137,5.040259,-0.140629,0.051852,0.455518,-0.011006,-152.487538,188.495899,1607.661165,-17.036175,0
0.017708,-186.090069,117.284262,60.398823,1.383902,5.623685,-3.664513,-2.181782,-5.422464,3.532250,1.953684,0.084667,0.455725,-0.059323,-179.901559,188.646607,1607.591441,-18.158630,0
0.018750,-189.525246,39.602766,118.653937,2.588648,5.678727,-1.625364,-4.103247,-5.552149,1.517162,3.857605,0.117483,0.459377,-0.022156,-185.373105,188.495993,1608.476402,-18.423654,0
0.019792,-161.998628,-25.687745,164.757380,3.489392,5.106290,0.484532,-5.355872,-4.874085,-0.542020,4.897146,0.161237,0.452693,-0.029590,-154.153771,188.571413,1608.248405,-18.501033,0
0.020833,-93.204683,-78.058745,193.034320,4.074875,3.425671,2.835796,-5.858468,-3.217831,-2.993638,5.460707,0.150299,0.450626,0.007577,-84.172025,188.496056,1608.069506,-18.601914,0
0.021875,-24.919234,-134.164659,186.411659,3.894726,1.554240,4.525377,-5.464123,-1.365197,-4.558969,4.878107,0.157591,0.455863,-0.040740,-21.305540,188.646820,1608.022688,-18.568574,0
0.022917,38.021350,-177.538981,137.598393,2.881389,-0.687808,5.603213,-4.157373,0.906131,-5.687771,3.629135,0.124775,0.456001,-0.025873,39.793388,188.571453,1608.478017,-18.489794,0
0.023958,90.927601,-196.366232,64.117235,1.541533,-2.933525,5.890358,-2.216577,3.095944,-5.842099,1.584324,0.073729,0.462064,-0.014723,92.471089,188.571346,1608.543957,-19.170357,0
0.025000,152.071497,-166.510416,2.192316,0.359306,-4.434340,5.128799,0.014178,4.663272,-5.101323,-0.608993,0.066437,0.461030,-0.025873,153.142200,188.495957,1609.184646,-19.663627,0
0.026042,185.903473,-117.545469,-60.157912,-0.856698,-5.351708,3.738848,2.156012,5.489546,-3.571267,-2.653804,0.015390,0.461513,0.003860,180.139663,188.646956,1608.319117,-19.899851,0
0.027083,189.881047,-40.709613,-118.728969,-2.016406,-5.425097,1.691375,4.062012,5.630346,-1.591454,-4.580572,-0.032010,0.459790,-0.007290,185.858891,188.571527,1608.946584,-19.645103,0
0.028125,162.399628,24.392978,-164.808108,-2.917150,-4.808626,-0.406035,5.252779,4.955988,0.480957,-5.665807,-0.032010,0.478600,-0.014723,154.977307,188.571429,1608.677638,-19.805244,0
0.029167,94.769575,77.832774,-192.538223,-3.491375,-3.197727,-2.757300,5.790171,3.344197,2.910527,-6.240791,-0.086703,0.474052,-0.025873,85.333311,188.496138,1608.274787,-19.252744,0
0.030208,26.348527,134.103117,-186.243657,-3.356263,-1.311618,-4.459365,5.434487,1.461921,4.519952,-5.627729,-0.032010,0.477773,-0.018440,21.982718,188.646840,1607.102207,-19.131194,0
0.031250,-37.857648,177.113344,-137.138752,-2.421741,0.934099,-5.549686,4.104540,-0.809407,5.653164,-4.432066,-0.039302,0.464337,-0.029590,-39.757934,188.571415,1606.546097,-18.839848,0
0.032292,-91.102897,196.469121,-63.122920,-0.958032,3.227520,-5.807701,2.132815,-2.969578,5.758989,-2.394871,0.000805,0.457379,-0.007290,-92.097885,188.571453,1605.468386,-18.324894,0
0.033333,-151.760896,166.014309,-0.821299,0.246713,4.702648,-5.050302,-0.097940,-4.522085,5.053488,-0.216786,0.040913,0.453245,-0.040740,-152.251114,188.496091,1605.081623,-16.721267,0
0.034375,-186.169168,116.391642,60.824132,1.428940,5.634694,-3.668674,-2.197246,-5.363180,3.527841,1.877527,0.088314,0.454623,-0.025873,-179.969109,188.722268,1603.949107,-15.395459,0
0.035417,-189.378347,38.874575,118.666089,2.588648,5.645702,-1.654494,-4.083916,-5.563265,1.574484,3.754794,0.117483,0.459928,-0.029590,-185.159197,188.571478,1603.326646,-13.591057,0
0.036458,-161.863029,-25.558550,165.085475,3.466873,5.073264,0.392978,-5.266951,-4.885201,-0.480289,4.840028,0.124775,0.462822,-0.007290,-154.514037,188.571480,1602.817358,-12.511697,0
0.037500,-94.040877,-78.152705,192.523949,3.996060,3.425671,2.794181,-5.831405,-3.232652,-2.945134,5.403589,0.157591,0.479151,-0.029590,-85.174016,188.496109,1601.988406,-12.056397,0
0.038542,-25.970127,-134.587479,186.411659,3.894726,1.623960,4.517054,-5.433194,-1.424482,-4.545741,4.832413,0.132068,0.476119,0.026161,-22.149914,188.722322,1601.712114,-11.735514,0
0.039583,38.032650,-177.033945,137.768517,2.960204,-0.651113,5.549113,-4.145774,0.872784,-5.643677,3.617711,0.124775,0.473157,-0.011006,39.838421,188.496111,1600.914579,-11.391375,0
0.040625,91.458697,-196.342742,64.445330,1.541533,-2.907839,5.857066,-2.208845,3.029249,-5.802415,1.607171,0.088314,0.468471,-0.025873,92.853872,188.571433,1600.266072,-10.499841,0
0.041667,152.308795,-166.240281,1.912827,0.348047,-4.408653,5.120476,0.014178,4.607693,-5.101323,-0.597570,0.022683,0.462959,-0.048173,153.175975,188.496051,1599.715391,-9.811344,0
0.042708,186.095572,-117.345804,-60.498159,-0.867958,-5.307674,3.722202,2.148280,5.482136,-3.580086,-2.676651,-0.013779,0.458894,-0.011006,180.387346,188.722279,1599.858475,-9.780324,0
0.043750,189.553349,-39.652562,-118.789728,-2.005147,-5.362716,1.687214,4.073611,5.574767,-1.547360,-4.595804,-0.013779,0.455587,-0.014723,185.656242,188.571283,1598.995523,-10.125618,0
0.044792,162.004131,25.743654,-164.832412,-2.905891,-4.782940,-0.451812,5.287574,4.959693,0.498594,-5.658191,-0.035656,0.441600,-0.044457,154.560749,188.571339,1598.916323,-9.704180,0
0.045833,93.164986,78.467004,-192.805560,-3.491375,-3.186719,-2.790592,5.805635,3.329376,2.967849,-6.233176,-0.053887,0.477015,-0.018440,84.083637,188.495951,1598.920430,-9.771394,0
0.046875,24.969936,134.361507,-186.061382,-3.345004,-1.333635,-4.480173,5.403558,1.454511,4.515543,-5.711501,-0.046595,0.464406,-0.011006,21.284702,188.722201,1599.676041,-8.923401,0
0.047917,-38.648643,177.665359,-136.567623,-2.376704,0.937769,-5.574655,4.116138,-0.824228,5.666392,-4.458721,-0.039302,0.488797,-0.011006,-40.016875,188.571377,1600.178129,-8.443609,0
0.048958,-91.487094,196.187240,-62.904190,-0.958032,3.223850,-5.857639,2.136681,-2.988104,5.833948,-2.425334,0.000805,0.462684,-0.040740,-92.593251,188.571513,1601.248287,-8.005486,0
0.050000,-152.597090,166.073034,-0.954967,0.224195,4.746681,-5.079433,-0.063145,-4.577664,5.097581,-0.193938,0.081021,0.457723,-0.011006,-153.208071,188.571558,1602.483334,-8.266586,0
0.051042,-185.818871,116.861442,61.127923,1.417680,5.594330,-3.731097,-2.197246,-5.400233,3.541069,1.885143,0.091960,0.461099,-0.029590,-179.800234,188.722275,1603.064406,-8.376101,0
0.052083,-189.683445,39.931626,119.662526,2.599907,5.715422,-1.600394,-4.134176,-5.559559,1.552437,3.846182,0.121129,0.462959,-0.007290,-185.508205,188.496063,1604.149609,-9.548067,0
0.053125,-162.089027,-25.253180,165.182688,3.489392,5.109959,0.392978,-5.336541,-4.907432,-0.559658,4.885723,0.161237,0.474672,-0.029590,-154.198804,188.571587,1605.033847,-10.676342,0
0.054167,-93.860078,-78.281901,193.265201,4.063616,3.466035,2.831634,-5.819807,-3.247473,-2.989228,5.483554,0.135714,0.477980,-0.025873,-84.307125,188.496096,1606.557116,-10.925689,0
0.055208,-26.037926,-134.751909,185.791923,3.872208,1.594604,4.521215,-5.425462,-1.398545,-4.510466,4.874299,0.183114,0.480873,-0.014723,-21.237990,188.722246,1606.488581,-10.688938,0
0.056250,38.021350,-178.267171,137.002961,2.903908,-0.654783,5.615698,-4.168971,0.906131,-5.692180,3.644366,0.106545,0.467231,-0.018440,40.502662,188.571364,1607.574479,-10.697378,0
0.057292,91.582996,-196.002137,63.218011,1.507755,-2.867475,5.882035,-2.162451,3.058891,-5.837690,1.622402,0.055498,0.462684,-0.025873,93.022747,188.571455,1607.987139,-10.312421,0
0.058333,152.636493,-166.252026,0.466778,0.291750,-4.452687,5.107991,0.060571,4.696619,-5.079276,-0.612801,0.029975,0.452762,0.026161,153.322333,188.496149,1608.732039,-10.592552,0
0.059375,185.598375,-116.218283,-61.227259,-0.834180,-5.259971,3.668102,2.206272,5.471020,-3.531582,-2.722345,-0.013779,0.451798,-0.037023,179.903238,188.722273,1608.120817,-10.980519,0
0.060417,189.858447,-38.384101,-119.142126,-1.993888,-5.399411,1.637275,4.062012,5.630346,-1.582635,-4.599611,0.004452,0.459652,-0.011006,185.903925,188.495948,1608.974177,-9.973596,0
0.061458,161.439135,26.518825,-164.613682,-2.917150,-4.782940,-0.410197,5.268244,4.981925,0.507413,-5.684846,-0.032010,0.447801,-0.014723,154.335582,188.571493,1609.270581,-9.700347,0
0.062500,92.656489,78.596199,-193.121503,-3.468856,-3.161033,-2.811399,5.790171,3.355312,2.954621,-6.263638,-0.064826,0.478462,0.003860,84.545228,188.496100,1609.748642,-9.140465,0
0.063542,25.467133,134.619897,-185.611770,-3.345004,-1.300610,-4.488496,5.411291,1.465626,4.541999,-5.707693,-0.064826,0.476050,0.003860,22.241660,188.722268,1609.937469,-9.268584,0
0.064583,-38.038447,177.782809,-136.798505,-2.365445,0.926760,-5.587139,4.139335,-0.794586,5.653164,-4.451106,-0.024718,0.475775,-0.011006,-39.566542,188.495973,1609.722176,-9.211931,0
0.065625,-91.814792,195.787910,-63.779110,-1.003069,3.183486,-5.824347,2.194673,-2.954757,5.803083,-2.429142,0.015390,0.465164,-0.029590,-92.897226,188.571516,1609.196723,-9.067103,0
0.066667,-152.834389,166.073034,-1.392427,0.224195,4.724665,-5.091917,-0.074743,-4.548022,5.040259,-0.186323,0.070083,0.461926,-0.014723,-153.309396,188.495991,1608.387562,-9.392626,0
0.067708,-186.067469,116.884932,61.298047,1.440199,5.660380,-3.685321,-2.181782,-5.359475,3.510203,1.907990,0.113837,0.456896,-0.011006,-179.811492,188.722105,1607.907832,-9.760062,0
0.068750,-189.593046,39.262160,119.650374,2.588648,5.700744,-1.625364,-4.118711,-5.537328,1.486296,3.827143,0.121129,0.459790,-0.014723,-185.271780,188.571478,1607.186489,-10.148315,0
0.069792,-161.637030,-26.157546,165.219143,3.500651,5.080603,0.422109,-5.305612,-4.855559,-0.524383,4.866683,0.121129,0.474672,-0.003573,-153.714696,188.571377,1606.354834,-9.575050,0
0.070833,-92.730086,-78.880896,193.119381,4.041097,3.521077,2.802504,-5.796610,-3.240062,-2.993638,5.407397,0.168530,0.442358,-0.040740,-83.102484,188.495957,1605.261354,-9.149667,0
0.071875,-24.354238,-134.998554,185.791923,3.905986,1.609282,4.492085,-5.406131,-1.391134,-4.536922,4.855260,0.183114,0.473570,-0.040740,-20.100899,188.722226,1605.204755,-8.869399,0
0.072917,39.253042,-177.903076,136.431833,2.892649,-0.695147,5.582405,-4.138042,0.876489,-5.674543,3.625327,0.113837,0.450006,-0.022156,41.043062,188.571426,1604.572880,-8.081301,0
0.073958,91.888094,-196.225292,62.573972,1.530273,-2.911508,5.848743,-2.162451,3.055186,-5.775959,1.607171,0.073729,0.463442,-0.025873,93.281688,188.571391,1603.818619,-7.985574,0
0.075000,152.715592,-165.923166,0.381717,0.325528,-4.419662,5.095506,0.006446,4.641040,-5.061638,-0.612801,0.044560,0.460410,-0.033307,153.828958,188.571453,1603.017659,-7.623641,0
0.076042,185.745274,-116.476673,-61.227259,-0.867958,-5.337030,3.701394,2.136681,5.482136,-3.602132,-2.684267,0.008098,0.460341,-0.011006,180.094629,188.722237,1603.607269,-6.657195,0
0.077083,189.587249,-39.253232,-119.725406,-2.016406,-5.388403,1.678891,4.062012,5.619230,-1.564997,-4.611035,-0.002841,0.463717,-0.055607,185.712533,188.571451,1603.657657,-7.122083,0
0.078125,161.789432,25.708419,-165.282024,-2.905891,-4.834312,-0.356097,5.314637,4.978219,0.525051,-5.684846,-0.042949,0.476050,-0.018440,154.515716,188.496100,1603.939998,-7.619994,0
0.079167,93.390984,78.678414,-193.255172,-3.525153,-3.146355,-2.819722,5.813368,3.362723,2.972258,-6.282678,-0.119518,0.477153,-0.044457,84.455162,188.571400,1604.524393,-7.918266,0
0.080208,26.201628,134.960503,-185.405192,-3.333744,-1.315288,-4.496819,5.442220,1.424868,4.515543,-5.654384,-0.064826,0.478462,0.018727,21.802585,188.722215,1603.707615,-8.558676,0
0.081250,-38.038447,178.464020,-136.251680,-2.331667,0.974463,-5.607947,4.135469,-0.824228,5.675211,-4.447298,-0.050241,0.473708,0.000144,-40.151975,188.571431,1604.093807,-8.788887,0
0.082292,-92.131190,195.764420,-62.588246,-0.969291,3.220181,-5.816024,2.152146,-2.999220,5.767808,-2.417718,0.015390,0.461168,0.018727,-93.212459,188.496083,1603.820171,-8.884731,0
0.083333,-153.388085,165.920349,0.162986,0.235454,4.724665,-5.058625,-0.067011,-4.599895,5.053488,-0.159668,0.051852,0.457310,-0.033307,-153.523304,188.571482,1604.575865,-8.749149,0
0.084375,-185.570272,115.757411,62.002844,1.451458,5.649372,-3.622898,-2.220443,-5.396528,3.532250,1.942261,0.099252,0.454967,-0.011006,-179.473743,188.722212,1604.981114,-8.490571,0
0.085417,-189.819044,37.876249,120.148593,2.588648,5.733770,-1.608717,-4.138042,-5.570675,1.517162,3.838566,0.139360,0.450420,-0.018440,-185.508205,188.571471,1605.626365,-7.567999,0
0.086458,-161.083334,-27.367282,164.939655,3.489392,5.076934,0.497016,-5.336541,-4.900022,-0.555248,4.878107,0.124775,0.479564,-0.033307,-153.163038,188.495980,1606.005283,-7.182361,0
0.087500,-91.193296,-79.010091,193.945695,4.119912,3.451357,2.852442,-5.843004,-3.251178,-3.011275,5.475938,0.172176,0.460203,-0.055607,-82.866059,188.571330,1606.972057,-6.801588,0
0.088542,-24.467237,-135.162984,185.172188,3.860949,1.576257,4.479600,-5.448659,-1.357787,-4.523694,4.897146,0.139360,0.478117,-0.048173,-20.922757,188.722188,1607.089068,-6.823187,0
0.089583,38.710646,-179.077577,136.261709,2.881389,-0.709825,5.632344,-4.188302,0.902426,-5.731865,3.640558,0.110191,0.466887,-0.051890,40.603987,188.571437,1608.257822,-7.211729,0
0.090625,92.227092,-195.567571,63.412438,1.507755,-2.937195,5.877874,-2.146987,3.095944,-5.811234,1.607171,0.055498,0.464820,-0.014723,93.709504,188.496051,1608.864015,-7.709678,0
0.091667,153.766485,-166.228536,0.843480,0.325528,-4.434340,5.120476,0.072170,4.715145,-5.118960,-0.608993,0.037267,0.463648,-0.029590,154.346841,188.571399,1610.563335,-7.818169,0
0.092708,185.451476,-116.629358,-61.518899,-0.879217,-5.344369,3.709717,2.148280,5.485841,-3.575676,-2.710922,0.022683,0.464406,-0.018440,179.723105,188.646869,1610.500988,-8.328040,0
0.093750,189.982746,-39.264977,-120.126412,-2.016406,-5.381064,1.658083,4.085209,5.630346,-1.534132,-4.641498,-0.024718,0.463028,-0.011006,186.039025,188.571254,1611.018112,-8.829449,0
0.094792,161.416535,26.565805,-164.990384,-2.917150,-4.845321,-0.439328,5.310771,4.963398,0.525051,-5.703886,-0.032010,0.474810,-0.063040,153.693858,188.496042,1610.904152,-8.674969,0
0.095833,92.249692,78.854589,-193.887059,-3.525153,-3.150024,-2.828046,5.844297,3.325670,3.003124,-6.236983,-0.097641,0.472261,-0.025873,83.036613,188.496025,1610.329305,-8.956246,0
0.096875,24.721338,135.077953,-185.137855,-3.345004,-1.285932,-4.492657,5.384228,1.447100,4.484677,-5.707693,-0.079410,0.462133,-0.011006,20.507878,188.647471,1610.500687,-7.678510,0
0.097917,-39.044141,179.039526,-135.510428,-2.331667,1.022166,-5.574655,4.139335,-0.853871,5.719304,-4.416835,-0.032010,0.472743,-0.022156,-40.906283,188.571203,1610.878922,-7.796896,0
0.098959,-92.221589,195.764420,-61.689022,-0.946773,3.198164,-5.849316,2.140548,-2.976988,5.820720,-2.368216,0.019036,0.460824,-0.011006,-93.370076,188.495589,1611.007880,-7.711021,0
0.100000,-153.218586,165.814644,0.576143,0.246713,4.743012,-5.066948,-0.051546,-4.588779,5.084353,-0.190131,0.029975,0.457516,-0.037023,-153.703438,188.571008,1611.144010,-6.979678,0
0.101041,-185.638072,115.651706,62.124360,1.473977,5.597999,-3.660351,-2.208845,-5.389117,3.519022,1.896567,0.084667,0.456621,-0.055607,-179.473743,188.646500,1610.790326,-6.510055,0
0.102083,-189.796444,38.369540,120.330868,2.588648,5.686066,-1.637848,-4.122577,-5.537328,1.517162,3.800488,0.128422,0.462546,-0.014723,-185.485688,188.571116,1610.193566,-6.395674,0
0.103125,-161.298033,-26.533386,165.486480,3.478132,5.117298,0.397140,-5.290148,-4.888906,-0.515564,4.878107,0.139360,0.474466,-0.007290,-153.658404,188.495707,1610.248948,-6.283880,0
0.104166,-92.424988,-79.104051,193.666207,4.063616,3.455027,2.802504,-5.831405,-3.280820,-2.993638,5.456899,0.146652,0.476257,-0.018440,-83.586592,188.571160,1610.290087,-6.131283,0
0.105208,-25.427731,-135.726745,185.160036,3.905986,1.579926,4.521215,-5.417730,-1.383724,-4.563378,4.881915,0.153945,0.480047,-0.033307,-21.069115,188.646409,1610.777540,-6.388324,0
0.106250,38.608946,-178.936637,136.115889,2.937686,-0.717164,5.632344,-4.141908,0.887605,-5.687771,3.632943,0.153945,0.477911,-0.033307,40.975512,188.571042,1610.095093,-6.149932,0
0.107291,92.498290,-195.708511,62.756247,1.519014,-2.915178,5.882035,-2.185648,3.088533,-5.767140,1.572900,0.084667,0.465853,-0.022156,93.900896,188.495635,1609.392781,-6.203050,0
0.108333,153.800385,-165.852696,-0.092199,0.291750,-4.449018,5.137122,0.033509,4.652156,-5.066048,-0.620417,0.037267,0.460479,0.000144,154.245516,188.571078,1608.137717,-5.819602,0
0.109375,185.632275,-115.865933,-61.956359,-0.901736,-5.344369,3.680586,2.175343,5.511778,-3.571267,-2.699498,0.029975,0.457172,-0.040740,179.790654,188.571006,1608.309863,-5.412238,0
0.110416,189.847147,-37.843831,-120.077805,-2.038925,-5.373725,1.683052,4.131603,5.611820,-1.534132,-4.664345,-0.002841,0.452073,-0.022156,185.858891,188.571009,1608.082741,-5.154681,0
0.111458,160.953238,27.716816,-164.905322,-2.928410,-4.823304,-0.426843,5.310771,4.981925,0.498594,-5.707693,-0.064826,0.472261,-0.025873,153.356108,188.495721,1608.147951,-4.254565,0
