1-Time,2-VGERA,3-VGERB,4-VGERC,5-VN,6-IGERAN,7-IGERBN,8-IGERCN,9-IGERAT,10-IGERBT,11-IGERCT,12-IN,13-IFD,14-IFAULT,15-VFAULT,16-Speed (rad/s),17-Active Power,18-Reactive Power,19-FAULT 
0.000000,144.523146,-158.241929,19.423386,0.674567,-6.199412,1.328755,4.935531,6.501868,-1.409074,-4.806707,-0.036163,0.184052,-0.045123,-299.183508,188.571248,971.522019,-1282.317413,0
0.001042,192.073232,-95.218205,-26.789421,-0.226178,-4.929774,-1.201537,5.995314,5.203402,1.093598,-5.870290,0.058637,0.193767,-0.089723,-287.722534,188.571194,971.924488,-1282.950192,0
0.002083,184.660481,-48.320380,-102.226999,-1.644849,-3.300529,-3.273239,6.165636,3.763483,3.211568,-6.222295,0.018530,0.206720,-0.067423,-226.758706,188.571026,971.700455,-1282.780967,0
0.003125,140.511673,-4.875587,-173.824649,-3.029743,-1.230946,-4.749578,5.544906,1.692466,4.737691,-5.514501,-0.003348,0.208098,-0.086006,-139.540465,188.495617,971.919873,-1282.784889,0
0.004167,86.746628,47.107827,-201.457550,-3.547671,1.458778,-5.719054,3.769770,-0.788402,5.684648,-3.818823,-0.017932,0.174131,-0.093440,-33.678439,188.571084,971.636335,-1282.111460,0
0.005208,38.993144,126.269195,-174.748176,-3.097299,3.763207,-6.004667,1.922720,-2.957348,6.001709,-1.877121,-0.068979,0.164278,-0.048839,94.936662,188.570993,971.665928,-1281.601931,0
0.006250,-3.268577,181.893563,-121.681826,-2.083962,5.190632,-4.854169,-0.556414,-4.451672,5.071662,0.473361,-0.163779,0.185844,-0.078573,186.410549,188.571094,972.220296,-1281.286330,0
0.007292,-67.237454,191.007691,-64.520362,-0.980551,6.460269,-3.297375,-3.065828,-5.583296,3.410260,3.145567,-0.192949,0.178196,-0.089723,263.541331,188.495763,972.781668,-1280.985456,0
0.008333,-144.585443,158.027702,-18.939441,-0.079807,6.203406,-1.265900,-4.719845,-5.539772,1.486754,4.803395,-0.192949,0.187015,-0.082290,299.399095,188.646431,973.184335,-1279.789672,0
0.009375,-192.124229,94.827803,27.431338,0.832197,5.003489,1.236233,-5.806123,-4.263068,-1.037055,5.889689,-0.229410,0.196385,-0.063706,287.960637,188.571116,973.377687,-1279.349378,0
0.010417,-184.688878,48.270583,102.953977,2.295906,3.396259,3.328048,-5.976445,-2.873927,-3.167708,6.237908,-0.273164,0.203275,-0.071140,227.717342,188.571129,973.876126,-1278.957553,0
0.011458,-140.178472,4.908006,174.345049,3.601985,1.286313,4.824501,-5.370855,-0.792029,-4.634646,5.571749,-0.269518,0.225875,-0.074856,140.634201,188.495640,974.653814,-1278.397851,0
0.012500,-86.752425,-47.239839,201.394670,4.187468,-1.388733,5.773864,-3.614644,1.714228,-5.674608,3.898781,-0.225764,0.215057,-0.045123,35.031116,188.646525,975.743974,-1277.517499,0
0.013542,-39.191040,-126.800537,174.928329,3.658281,-3.667476,6.131886,-1.748669,3.952087,-5.983214,1.934369,-0.167425,0.190667,-0.082290,-94.225709,188.495696,976.357480,-1277.308773,0
0.014583,3.500078,-182.201750,122.311590,2.678722,-5.179299,4.941160,0.738035,5.413768,-5.057395,-0.431253,-0.116379,0.172959,-0.056273,-186.026088,188.571158,977.122851,-1277.471723,0
0.015625,68.090452,-191.280643,65.660497,1.564051,-6.393894,3.452753,3.292868,6.538138,-3.404448,-3.084534,-0.054394,0.180332,-0.048839,-264.350252,188.495631,977.768244,-1276.873907,0
0.016667,144.929944,-158.124479,19.666420,0.685826,-6.195743,1.360937,4.916606,6.469225,-1.447121,-4.768857,-0.010640,0.192734,-0.078573,-299.780200,188.646500,977.969902,-1276.107296,0
0.017708,192.468730,-95.605790,-27.287640,-0.237437,-5.003164,-1.161310,6.002884,5.257807,1.051323,-5.866505,0.011237,0.199486,-0.052556,-288.690750,188.495617,979.134029,-1276.052603,0
0.018750,184.366683,-48.954610,-103.186981,-1.712405,-3.326215,-3.249103,6.199700,3.792499,3.186204,-6.241220,0.011237,0.211061,-0.074856,-226.916323,188.571049,979.870712,-1276.058885,0
0.019792,140.195275,-5.380623,-175.100574,-3.063521,-1.296996,-4.745555,5.563831,1.696093,4.670051,-5.540996,0.014883,0.214230,-0.067423,-139.540465,188.495658,980.408577,-1275.665314,0
0.020833,87.447224,47.530648,-201.226669,-3.581449,1.407405,-5.763304,3.788695,-0.799283,5.718468,-3.886953,-0.017932,0.207409,-0.104590,-33.633405,188.721940,981.295456,-1276.321197,0
0.021875,39.569440,127.760811,-174.480839,-3.086040,3.752198,-6.109258,1.975710,-3.000872,6.065122,-1.933896,-0.065333,0.199624,-0.045123,95.972428,188.495848,982.683110,-1277.233240,0
0.022917,-3.302477,181.846583,-121.584612,-2.083962,5.227326,-4.922555,-0.586693,-4.487942,5.092800,0.511211,-0.116379,0.196730,-0.071140,186.714524,188.495738,982.621506,-1277.927006,0
0.023958,-68.762944,191.313061,-64.775547,-1.014329,6.529989,-3.357716,-3.115032,-5.648582,3.482128,3.187202,-0.160133,0.185844,-0.052556,265.128755,188.495691,984.131705,-1279.007917,0
0.025000,-144.574143,157.452197,-19.146020,-0.158622,6.269457,-1.245787,-4.727415,-5.579669,1.452934,4.837460,-0.265872,0.188393,-0.086006,298.723596,188.721942,983.990508,-1279.654243,0
0.026042,-193.649719,94.639883,27.820191,0.809678,5.029175,1.260369,-5.851542,-4.328354,-1.015918,5.991884,-0.243995,0.197143,-0.078573,288.478520,188.495779,985.813484,-1280.985120,0
0.027083,-183.796184,48.141388,103.658774,2.273387,3.414607,3.340117,-6.074853,-2.892062,-3.155026,6.302253,-0.247641,0.205549,-0.048839,225.972302,188.495667,986.637084,-1281.090332,0
0.028125,-139.398777,5.048946,176.119193,3.635763,1.323007,4.872774,-5.435199,-0.831926,-4.736106,5.632309,-0.240349,0.218985,-0.052556,139.136844,188.495647,988.179550,-1282.365009,0
0.029167,-86.582926,-47.780109,200.945058,4.074875,-1.440106,5.842250,-3.614644,1.761379,-5.704200,3.891211,-0.207533,0.202173,-0.071140,33.004618,188.721806,988.009966,-1282.816345,0
0.030208,-38.388745,-128.621014,174.794660,3.658281,-3.700501,6.192227,-1.771379,3.955714,-6.063537,1.987359,-0.156487,0.201553,-0.086006,-96.871415,188.495638,990.041045,-1283.080949,0
0.031250,3.692177,-181.861145,121.084272,2.678722,-5.197646,4.981387,0.764530,5.399260,-5.044712,-0.446393,-0.083563,0.196041,-0.071140,-186.330062,188.495712,989.756213,-1282.398073,0
0.032292,69.548142,-192.138028,64.360268,1.575311,-6.503978,3.436662,3.315578,6.628813,-3.488997,-3.148879,-0.039809,0.179987,-0.067423,-265.937676,188.495754,991.811486,-1283.572094,0
0.033333,144.647446,-156.938233,19.010229,0.708344,-6.210420,1.356915,4.950671,6.541765,-1.447121,-4.833202,-0.043455,0.189426,-0.093440,-298.001384,188.646467,992.368266,-1284.162692,0
0.034375,194.186318,-93.914509,-27.615735,-0.259955,-5.003164,-1.189469,6.040733,5.265061,1.114735,-5.949775,0.018530,0.198039,-0.074856,-288.431808,188.495749,993.015802,-1285.296060,0
0.035417,183.304490,-47.686149,-103.515076,-1.734924,-3.340893,-3.253125,6.279184,3.796126,3.198886,-6.290425,0.022176,0.207203,-0.071140,-224.687174,188.495658,993.517747,-1285.118236,0
0.036458,138.861884,-4.793372,-176.412955,-3.153596,-1.311674,-4.797851,5.620605,1.768633,4.763056,-5.624266,0.003945,0.190115,-0.041406,-137.986816,188.495575,995.620147,-1285.786391,0
0.037500,86.204232,48.153133,-200.679843,-3.513893,1.458778,-5.783418,3.800050,-0.828299,5.739605,-3.860458,-0.047102,0.202035,-0.086006,-31.933398,188.646248,995.411068,-1285.538831,0
0.038542,38.190849,128.911822,-174.383626,-3.086040,3.763207,-6.125349,1.987064,-3.044396,6.115852,-1.986886,-0.076271,0.198383,-0.063706,97.807535,188.495640,996.977080,-1285.795919,0
0.039583,-3.743174,181.964033,-120.600327,-2.061443,5.249343,-4.874282,-0.563984,-4.469807,5.042070,0.507426,-0.127317,0.155941,-0.067423,187.063532,188.495627,996.676533,-1284.924851,0
0.040625,-69.542639,191.782861,-63.985688,-0.958032,6.552006,-3.426102,-3.122602,-5.634074,3.473673,3.183417,-0.214826,0.180814,-0.074856,266.299621,188.495651,997.064040,-1284.564986,0
0.041667,-144.834041,156.606556,-18.830076,-0.079807,6.276796,-1.302105,-4.719845,-5.623193,1.486754,4.882880,-0.218472,0.189771,-0.059989,298.588496,188.646431,997.854311,-1284.841517,0
0.042708,-194.531113,93.770752,28.245500,0.899753,5.120912,1.272437,-5.870467,-4.390013,-1.020145,6.003239,-0.233057,0.199486,-0.063706,289.154020,188.495832,999.005938,-1284.988614,0
0.043750,-183.208588,47.988703,104.472936,2.284646,3.436624,3.356208,-6.052144,-2.866673,-3.133889,6.347673,-0.236703,0.189564,-0.056273,225.961044,188.495626,999.365184,-1284.996707,0
0.044792,-138.732082,5.295591,177.310056,3.624503,1.363371,4.937137,-5.435199,-0.853688,-4.698059,5.715579,-0.251287,0.237794,-0.078573,139.474594,188.495752,1000.681213,-1284.920292,0
0.045833,-86.616826,-48.296890,200.361778,4.153690,-1.410750,5.858341,-3.656278,1.786768,-5.716883,3.925276,-0.207533,0.173648,-0.089723,33.263559,188.646542,1000.992077,-1285.091632,0
0.046875,-38.705143,-129.736790,174.539475,3.635763,-3.718848,6.228431,-1.809228,4.006492,-6.101584,2.028994,-0.156487,0.188531,-0.033973,-97.389298,188.571017,1001.919317,-1285.840045,0
0.047917,3.714777,-182.201750,121.047817,2.667463,-5.212324,5.025637,0.741820,5.442784,-5.070077,-0.461533,-0.094502,0.204860,-0.056273,-186.769137,188.495680,1002.230778,-1286.565702,0
0.048958,70.768534,-192.091048,64.919245,1.552792,-6.529665,3.488957,3.270158,6.657829,-3.505907,-3.133739,-0.050748,0.179780,-0.071140,-267.187350,188.495714,1002.999606,-1286.776442,0
0.050000,145.223742,-156.644608,19.459841,0.629529,-6.254454,1.373005,4.950671,6.538138,-1.442894,-4.825632,-0.050748,0.195145,-0.074856,-298.282842,188.646533,1002.986389,-1286.738726,0
0.051042,195.112912,-94.431289,-28.028892,-0.271215,-5.094901,-1.157287,6.135356,5.308585,1.085143,-6.002765,0.014883,0.203275,-0.045123,-289.658966,188.571180,1004.265496,-1287.534004,0
0.052083,182.908993,-48.437830,-104.511513,-1.678627,-3.443638,-3.305421,6.294324,3.836023,3.215796,-6.294210,0.018530,0.209270,-0.071140,-224.709691,188.495769,1004.827052,-1287.830745,0
0.053125,138.409887,-5.615523,-177.919762,-3.108558,-1.341030,-4.838078,5.669809,1.801276,4.763056,-5.722676,-0.010640,0.218571,-0.030256,-138.133175,188.495676,1006.369961,-1288.452898,0
0.054167,86.543230,48.564208,-200.400355,-3.536412,1.491803,-5.803531,3.868179,-0.835553,5.811473,-3.932373,-0.028871,0.212852,-0.041406,-31.381740,188.571038,1007.514957,-1289.306425,0
0.055208,38.778445,130.473909,-174.079834,-3.119818,3.792562,-6.177645,2.017344,-3.062531,6.208856,-2.028521,-0.072625,0.192458,-0.052556,98.922109,188.571122,1009.079508,-1290.209409,0
0.056250,-3.709274,181.940543,-120.175018,-2.106481,5.289707,-4.926578,-0.533704,-4.560482,5.126620,0.480931,-0.134610,0.202242,-0.059989,187.513865,188.495705,1010.310959,-1291.155420,0
0.057292,-71.102029,191.947292,-63.876323,-0.980551,6.640073,-3.450239,-3.156666,-5.706614,3.562450,3.190987,-0.203887,0.184121,-0.071140,267.549295,188.495718,1012.289904,-1291.778169,0
0.058333,-145.026140,155.807896,-18.854380,-0.102325,6.375871,-1.306128,-4.795544,-5.666717,1.558621,4.879095,-0.225764,0.192940,-0.052556,297.890480,188.571069,1013.382522,-1291.421225,0
0.059375,-195.841904,93.312697,28.707263,0.820937,5.190632,1.304619,-5.972660,-4.444418,-1.049738,6.094078,-0.225764,0.200313,-0.071140,289.041437,188.495761,1014.669542,-1292.847782,0
0.060417,-182.462793,47.483668,104.959003,2.273387,3.469649,3.388389,-6.150552,-2.942840,-3.197301,6.408233,-0.236703,0.198315,-0.048839,223.934545,188.495671,1015.836699,-1293.523880,0
0.061458,-137.974987,5.213376,178.598134,3.725837,1.389058,4.941160,-5.507113,-0.889958,-4.714968,5.776139,-0.243995,0.226426,-0.045123,138.056045,188.495772,1017.221731,-1293.756535,0
0.062500,-85.724132,-48.731455,200.106593,4.052357,-1.447445,5.914659,-3.625998,1.750498,-5.780295,3.955556,-0.192949,0.211957,-0.026539,31.146994,188.646500,1018.259851,-1293.643935,0
0.063542,-37.676850,-131.110956,174.381504,3.669540,-3.740865,6.268659,-1.839508,3.988357,-6.190361,2.085769,-0.174718,0.202655,-0.059989,-99.494604,188.495758,1020.354786,-1293.606691,0
0.064583,4.223274,-181.943360,119.808346,2.667463,-5.219663,4.977365,0.802379,5.479054,-5.078532,-0.503168,-0.116379,0.204171,-0.078573,-187.377086,188.495763,1020.260986,-1293.683920,0
0.065625,71.469129,-192.713534,63.606864,1.507755,-6.555351,3.557344,3.319363,6.708607,-3.535500,-3.182944,-0.065333,0.193216,-0.041406,-267.975432,188.495738,1021.259380,-1294.318428,0
0.066667,145.178542,-155.376147,18.633527,0.697085,-6.265463,1.373005,4.931746,6.585289,-1.404847,-4.852127,-0.006994,0.190529,-0.045123,-297.044427,188.646449,1021.394475,-1294.422872,0
0.067708,196.073406,-92.974908,-28.563565,-0.259955,-5.113248,-1.213605,6.124002,5.348482,1.064005,-6.002765,-0.014286,0.201415,-0.033973,-289.174858,188.495656,1022.571649,-1293.961313,0
0.068750,182.117998,-47.028429,-104.815305,-1.656109,-3.417952,-3.301398,6.317033,3.796126,3.203114,-6.286640,0.022176,0.224497,-0.063706,-222.964651,188.495624,1022.360313,-1293.127881,0
0.069792,137.392894,-4.887332,-178.746076,-3.153596,-1.326352,-4.830033,5.643314,1.739617,4.813786,-5.688611,0.029468,0.224152,-0.086006,-137.131184,188.495756,1021.902390,-1293.455855,0
0.070833,85.548836,49.045754,-199.962895,-3.536412,1.495472,-5.795486,3.800050,-0.839180,5.794563,-3.917233,-0.043455,0.194525,-0.063706,-30.537366,188.646556,1021.772320,-1292.753604,0
0.071875,37.546753,131.084649,-174.055531,-3.131077,3.770546,-6.217872,2.028699,-3.058904,6.196174,-2.036091,-0.061686,0.202793,-0.100873,99.890325,188.495734,1022.253434,-1292.229465,0
0.072917,-4.116071,181.928798,-119.579586,-2.050184,5.234665,-4.914510,-0.522349,-4.433537,5.122392,0.499856,-0.130964,0.167999,-0.067423,187.558898,188.495893,1021.997979,-1290.647252,0
0.073958,-71.384527,192.146957,-63.511773,-0.958032,6.581362,-3.462307,-3.130172,-5.739257,3.566677,3.183417,-0.182010,0.192803,-0.059989,268.044661,188.495683,1022.484998,-1290.788895,0
0.075000,-145.342538,155.255880,-18.526285,-0.124844,6.302482,-1.281991,-4.761480,-5.619566,1.482527,4.916945,-0.251287,0.196799,-0.048839,297.980546,188.646533,1021.453447,-1290.997052,0
0.076042,-196.045303,93.289207,29.071813,0.832197,5.146598,1.292551,-5.927241,-4.422656,-1.011690,6.037304,-0.243995,0.205549,-0.071140,289.716936,188.495682,1021.511350,-1290.011261,0
0.077083,-182.281994,47.671588,105.651648,2.340943,3.429285,3.352185,-6.086208,-2.870300,-3.159253,6.321178,-0.258580,0.209959,-0.082290,224.373620,188.495727,1020.427828,-1289.010499,0
0.078125,-137.703789,5.213376,179.108504,3.759615,1.378049,4.900933,-5.454123,-0.875450,-4.698059,5.711794,-0.240349,0.232765,-0.071140,138.202403,188.495712,1019.795956,-1288.567034,0
0.079167,-86.266528,-49.201256,199.960773,4.074875,-1.451114,5.874432,-3.644923,1.757752,-5.716883,3.906351,-0.189302,0.210923,-0.097156,31.428453,188.646498,1018.991264,-1288.075552,0
0.080208,-38.106247,-131.686461,174.296442,3.658281,-3.759213,6.208318,-1.824368,3.991984,-6.131176,2.040349,-0.185656,0.196248,-0.056273,-99.607188,188.495680,1018.124990,-1287.973425,0
0.081250,4.189374,-182.260475,120.136441,2.611166,-5.212324,5.001501,0.753175,5.446411,-5.057395,-0.457748,-0.109087,0.198935,-0.074856,-187.602253,188.495740,1018.326738,-1287.407971,0
0.082292,72.248824,-192.290713,64.165841,1.575311,-6.511317,3.488957,3.357212,6.697726,-3.467860,-3.156449,-0.054394,0.187842,-0.041406,-268.527090,188.495973,1017.759997,-1287.086631,0
0.083333,145.754838,-155.399637,18.791499,0.674567,-6.276471,1.320710,4.931746,6.523630,-1.425984,-4.761287,-0.025225,0.195696,-0.067423,-297.494760,188.646533,1017.681737,-1285.652537,0
0.084375,196.310704,-93.198063,-28.915964,-0.293733,-5.087562,-1.149242,6.071012,5.326720,1.089370,-6.010335,-0.003348,0.202724,-0.078573,-289.400024,188.495694,1017.485260,-1285.973035,0
0.085417,182.117998,-47.533464,-105.495799,-1.757442,-3.388596,-3.329557,6.294324,3.777991,3.198886,-6.297995,0.000299,0.221878,-0.067423,-222.998426,188.495588,1017.556444,-1286.242412,0
0.086458,137.257294,-5.098743,-179.365811,-3.108558,-1.311674,-4.805896,5.684949,1.775887,4.771511,-5.684826,0.007591,0.221258,-0.063706,-136.624559,188.495736,1017.982888,-1285.667359,0
0.087500,85.797434,49.574279,-199.938591,-3.491375,1.484464,-5.787440,3.834114,-0.853688,5.790335,-3.905878,-0.039809,0.214988,-0.089723,-29.422792,188.571038,1017.907454,-1285.782047,0
0.088542,37.874451,131.953780,-174.006924,-3.041003,3.821918,-6.197758,2.021129,-3.084293,6.187719,-2.013381,-0.050748,0.195352,-0.093440,100.847282,188.495622,1017.771940,-1286.205228,0
0.089583,-4.466369,182.069738,-119.227188,-2.050184,5.282368,-4.938646,-0.598048,-4.513331,5.092800,0.549061,-0.149195,0.207685,-0.097156,188.470823,188.495649,1017.337850,-1287.138710,0
0.090625,-72.571019,192.299642,-63.183678,-0.958032,6.607048,-3.470352,-3.171806,-5.717495,3.583587,3.232622,-0.214826,0.187497,-0.063706,268.911552,188.495609,1017.688955,-1287.265756,0
0.091667,-145.387738,154.621650,-18.149583,-0.124844,6.331838,-1.257855,-4.852318,-5.623193,1.474072,4.939655,-0.229410,0.192389,-0.108307,297.136172,188.495624,1017.692865,-1287.261159,0
0.092708,-196.621599,92.584506,29.460667,0.843456,5.164945,1.324733,-5.991585,-4.466180,-1.066648,6.097863,-0.284103,0.199141,-0.052556,288.951370,188.495687,1018.334817,-1288.293987,0
0.093750,-181.603998,46.755477,105.943289,2.295906,3.403598,3.408503,-6.108918,-2.855792,-3.222666,6.351458,-0.225764,0.197143,-0.104590,222.425930,188.495694,1018.318662,-1288.730624,0
0.094792,-136.709395,4.543911,179.679632,3.782133,1.326677,4.917024,-5.495758,-0.842807,-4.736106,5.745859,-0.240349,0.219329,-0.089723,136.412330,188.495698,1018.708700,-1289.088909,0
0.095833,-85.023537,-49.600586,199.717739,4.041097,-1.553859,5.922704,-3.607074,1.804903,-5.771840,3.879856,-0.182010,0.208443,-0.071140,29.424471,188.571141,1018.541024,-1289.447027,0
0.096875,-36.897155,-132.344182,174.199229,3.624503,-3.770221,6.280727,-1.767594,4.031881,-6.139631,2.047919,-0.138256,0.202104,-0.071140,-101.172095,188.495756,1019.079876,-1289.526832,0
0.097917,4.935169,-182.084300,118.909122,2.566129,-5.230671,4.981387,0.813734,5.475427,-4.993983,-0.552373,-0.101794,0.189013,-0.074856,-188.356561,188.495700,1017.887371,-1289.624748,0
0.098958,72.949419,-192.631319,62.853461,1.530273,-6.540673,3.480912,3.342072,6.690472,-3.488997,-3.171589,-0.054394,0.173511,-0.063706,-269.078748,188.495734,1018.585045,-1289.290025,0
0.100000,145.483640,-154.307351,18.013792,0.629529,-6.217759,1.320710,4.980950,6.498241,-1.387937,-4.878622,-0.003348,0.192871,-0.074856,-296.470252,188.495691,1017.923442,-1290.004691,0
0.101042,196.841801,-92.129267,-29.389879,-0.271215,-5.072884,-1.229696,6.108862,5.272315,1.135873,-5.995195,0.044053,0.198452,-0.056273,-288.983466,188.495703,1017.363981,-1289.737061,0
0.102083,181.394803,-46.358963,-105.763136,-1.746183,-3.296859,-3.337603,6.275399,3.734467,3.241161,-6.294210,0.044053,0.199899,-0.059989,-221.940143,188.495693,1016.897160,-1289.611503,0
0.103125,136.466300,-4.382297,-179.572390,-3.119818,-1.271310,-4.793828,5.616820,1.743244,4.788421,-5.654546,-0.021578,0.192665,-0.045123,-136.106676,188.495635,1016.531638,-1289.407889,0
0.104167,84.938640,49.914885,-199.331008,-3.592708,1.484464,-5.795486,3.811404,-0.860942,5.731150,-3.822608,-0.014286,0.174406,-0.078573,-29.208884,188.495658,1015.307457,-1288.275841,0
0.105208,36.880058,132.329620,-173.751739,-3.086040,3.810910,-6.173622,1.979495,-3.069785,6.191946,-1.937681,-0.068979,0.189151,-0.067423,101.365165,188.495693,1014.894176,-1288.028539,0
0.106250,-4.895766,181.999268,-118.874789,-2.016406,5.234665,-4.854169,-0.616973,-4.527839,5.033615,0.594481,-0.116379,0.211474,-0.082290,188.639698,188.495774,1014.047170,-1288.060622,0
0.107292,-73.023016,192.135212,-63.135071,-0.946773,6.566684,-3.401966,-3.160451,-5.735630,3.511720,3.232622,-0.207533,0.184810,-0.056273,269.361885,188.495819,1013.508428,-1288.174328,0
0.108333,-145.771935,154.398494,-18.100976,-0.068547,6.295143,-1.217628,-4.818254,-5.579669,1.397977,4.901805,-0.182010,0.193492,-0.048839,297.473922,188.495731,1012.547004,-1287.760252,0
0.109375,-196.644199,92.690211,29.983189,0.854715,5.109903,1.324733,-5.915886,-4.375505,-1.125833,6.052443,-0.229410,0.200106,-0.100873,289.266603,188.495745,1011.189401,-1287.498036,0
