1-Time,2-VGERA,3-VGERB,4-VGERC,5-VN,6-IGERAN,7-IGERBN,8-IGERCN,9-IGERAT,10-IGERBT,11-IGERCT,12-IN,13-IFD,14-IFAULT,15-VFAULT,16-Speed (rad/s),17-Active Power,18-Reactive Power,19-FAULT 
0.000000,-157.783756,148.302834,2.204467,0.291750,6.786908,-3.221228,-3.534926,-6.606212,3.125819,3.715927,0.066437,0.334185,0.000144,-3.855137,188.495597,1575.801044,-839.825360,0
0.001042,-202.859158,84.492194,53.411612,1.305087,6.493350,-0.649793,-5.529847,-6.260603,0.606583,5.581769,0.110191,0.336941,0.003860,24.380741,188.495626,1575.778256,-840.399684,0
0.002083,-177.988022,30.993673,129.651200,2.847611,5.201696,1.615032,-6.357199,-4.946527,-1.735790,6.419495,0.132068,0.337975,-0.033307,70.472322,188.495741,1576.279040,-841.418175,0
0.003125,-131.703528,-17.783354,188.720476,3.951023,3.550433,3.712244,-6.569836,-3.229874,-3.797768,6.461381,0.132068,0.318338,-0.025873,107.624794,188.495729,1575.547866,-842.658384,0
0.004167,-71.395827,-75.427863,197.894988,4.108653,0.831354,5.482406,-5.522115,-0.472594,-5.566410,5.467534,0.110191,0.319510,-0.037023,118.241394,188.570973,1575.980041,-843.720765,0
0.005208,-17.031886,-149.444917,173.652403,3.669540,-1.645540,6.553496,-3.998861,2.015034,-6.489555,3.841586,0.062790,0.349826,-0.014723,110.349308,188.495669,1575.412162,-843.767937,0
0.006250,30.563399,-188.074255,111.849001,2.442277,-3.740809,6.107890,-1.427887,4.248202,-6.045237,1.275100,0.051852,0.331016,0.011294,77.846525,188.571073,1575.903592,-844.556625,0
0.007292,100.148340,-194.381325,49.814717,1.293828,-5.623249,5.245294,1.162417,6.105378,-5.135034,-1.329463,-0.039302,0.338250,-0.007290,41.313262,188.495727,1575.832323,-845.677965,0
0.008333,158.060457,-148.611021,-1.744826,0.291750,-6.181009,3.336136,3.493692,6.713043,-3.103252,-3.629400,-0.079410,0.343005,-0.022156,4.419732,188.571042,1575.891996,-846.712851,0
0.009375,202.796861,-85.152731,-53.425886,-0.732846,-5.891120,0.817847,5.453818,6.416806,-0.631467,-5.525705,-0.097641,0.346794,-0.011006,-24.210188,188.495653,1576.402966,-846.827245,0
0.010417,178.298623,-32.065286,-129.944962,-2.219074,-4.614144,-1.520565,6.300500,5.083742,1.693651,-6.344391,-0.141395,0.352237,0.015011,-69.817661,188.570988,1576.704950,-847.082811,0
0.011458,132.466126,16.923151,-188.686143,-3.378782,-3.003245,-3.605513,6.563396,3.386078,3.725432,-6.458626,-0.145042,0.359816,-0.033307,-108.422456,188.494712,1576.643629,-846.680257,0
0.012500,73.141518,75.448537,-197.581167,-3.536412,-0.291505,-5.400203,5.496345,0.598415,5.558781,-5.411470,-0.064826,0.364088,-0.011006,-118.791373,188.646746,1576.431298,-847.023777,0
0.013542,18.506379,149.712235,-173.411492,-3.097299,2.218415,-6.491734,4.011753,-1.896809,6.499181,-3.800753,-0.061180,0.346243,-0.014723,-111.338362,188.571426,1576.083130,-846.722955,0
0.014583,-30.173699,187.672108,-112.239977,-1.926332,4.269650,-6.095185,1.491038,-4.091998,6.076432,-1.234267,0.000805,0.353477,-0.025873,-79.117037,188.571377,1576.723715,-846.429206,0
0.015625,-100.572234,194.272804,-49.865446,-0.699068,6.221809,-5.159003,-1.203652,-5.983355,5.114464,1.351257,0.015390,0.337493,-0.018440,-39.960584,188.496053,1576.989052,-846.252659,0
0.016667,-158.021054,148.584714,2.070799,0.280491,6.750214,-3.208964,-3.542658,-6.598616,3.069741,3.689272,0.088314,0.337906,0.026161,-3.843878,188.722266,1576.491315,-846.370644,0
0.017708,-202.938257,84.785820,53.630342,1.282569,6.504359,-0.702939,-5.549178,-6.275794,0.541876,5.562730,0.106545,0.339973,0.003860,25.078757,188.571312,1576.266783,-846.859434,0
0.018750,-178.055822,31.240319,129.857779,2.813834,5.194357,1.623209,-6.341734,-4.995900,-1.748731,6.427110,0.143006,0.347207,-0.029590,70.539872,188.571560,1576.913705,-847.008298,0
0.019792,-131.545329,-17.536708,189.242998,3.951023,3.517408,3.691804,-6.554371,-3.237470,-3.754630,6.526114,0.150299,0.374767,-0.022156,108.581751,188.495944,1577.724655,-846.801710,0
0.020833,-71.678325,-75.580548,197.834230,4.131172,0.824015,5.490582,-5.502785,-0.419424,-5.570724,5.440879,0.132068,0.356027,-0.003573,120.661934,188.722125,1577.189659,-847.449638,0
0.021875,-17.235285,-149.938207,173.348612,3.680800,-1.638201,6.582113,-4.014326,2.034023,-6.511124,3.833970,0.095606,0.335494,0.011294,111.644016,188.646839,1577.381881,-847.794074,0
0.022917,30.755498,-187.968550,111.460148,2.464795,-3.733470,6.111978,-1.435620,4.255798,-6.066806,1.244638,0.044560,0.336666,-0.014723,76.810759,188.571437,1577.379360,-847.959104,0
0.023958,100.509937,-194.381325,49.024858,1.282569,-5.615910,5.249382,1.201079,6.093984,-5.087582,-1.329463,-0.057533,0.332049,-0.033307,40.919220,188.571442,1576.969357,-847.555676,0
0.025000,157.924858,-148.152966,-2.376713,0.291750,-6.162661,3.307519,3.516889,6.697851,-3.129135,-3.652247,-0.083057,0.335150,-0.018440,4.363440,188.722275,1577.075646,-847.211321,0
0.026042,202.943760,-84.013465,-53.243611,-0.721587,-5.916807,0.781053,5.519542,6.401615,-0.618526,-5.552360,-0.093995,0.342936,0.000144,-23.241972,188.646770,1576.890896,-847.199991,0
0.027083,177.801427,-30.820315,-129.859901,-2.219074,-4.661847,-1.512389,6.327563,5.117923,1.728161,-6.382470,-0.108580,0.346450,-0.003573,-70.493160,188.571413,1577.438418,-847.173493,0
0.028125,131.505632,17.686577,-188.746902,-3.367522,-2.973889,-3.662747,6.574995,3.367088,3.742687,-6.462434,-0.126811,0.347965,-0.014723,-106.868807,188.646806,1577.369490,-846.923987,0
0.029167,71.706428,75.683437,-197.641925,-3.547671,-0.265819,-5.465613,5.527274,0.560436,5.554467,-5.426701,-0.126811,0.356027,0.000144,-118.183423,188.722244,1577.357847,-846.621477,0
0.030208,17.658885,149.465590,-173.435795,-3.119818,2.240431,-6.520351,3.992422,-1.946182,6.533691,-3.854063,-0.072118,0.337217,0.011294,-110.471471,188.646927,1578.185613,-846.825513,0
0.031250,-30.286698,188.165398,-111.571635,-1.903813,4.350378,-6.103362,1.429180,-4.156563,6.033295,-1.222844,0.000805,0.347896,0.026161,-76.820339,188.571516,1577.984202,-847.260470,0
0.032292,-100.640033,193.943943,-50.059873,-0.744105,6.254835,-5.159003,-1.230715,-6.066909,5.097208,1.389336,0.011744,0.336804,0.003860,-39.769192,188.646853,1578.126330,-848.431004,0
0.033333,-158.857249,147.973974,1.341699,0.280491,6.783239,-3.253933,-3.589052,-6.617606,3.134447,3.776852,0.059144,0.340869,-0.007290,-4.474345,188.722241,1579.026416,-849.170906,0
0.034375,-202.802658,85.337835,53.593887,1.305087,6.493350,-0.698851,-5.580107,-6.294784,0.589328,5.638887,0.121129,0.341489,0.000144,24.324450,188.646956,1579.873118,-849.775729,0
0.035417,-177.829823,32.062469,130.744851,2.847611,5.227382,1.651826,-6.395860,-4.988304,-1.800496,6.461381,0.128422,0.352030,0.000144,71.080272,188.571444,1580.149970,-850.824313,0
0.036458,-132.325024,-17.172613,188.756931,3.928504,3.517408,3.794007,-6.612363,-3.237470,-3.797768,6.488036,0.146652,0.367671,0.000144,107.545985,188.722244,1579.680697,-851.511856,0
0.037500,-72.198121,-75.909408,197.834230,4.131172,0.768973,5.580521,-5.514383,-0.453605,-5.665626,5.482766,0.113837,0.361470,-0.014723,118.410269,188.722257,1581.057347,-852.218978,0
0.038542,-17.517783,-149.609347,173.518735,3.703318,-1.696913,6.639347,-4.025924,2.094790,-6.515437,3.818739,0.077375,0.353891,-0.029590,110.135400,188.722177,1580.727790,-853.188179,0
0.039583,30.506900,-188.720230,111.229266,2.453536,-3.792182,6.173300,-1.404691,4.293777,-6.062493,1.214175,0.022683,0.344451,-0.018440,77.227317,188.571326,1580.758811,-853.916214,0
0.040625,100.577737,-193.993740,49.498774,1.305087,-5.685630,5.261646,1.220409,6.158549,-5.074641,-1.375158,-0.035656,0.333772,0.026161,40.964254,188.722163,1580.743068,-855.092804,0
0.041667,158.806252,-147.730145,-1.963556,0.291750,-6.181009,3.258462,3.559416,6.732033,-3.085997,-3.728404,-0.108580,0.334185,-0.018440,4.025690,188.797518,1580.886800,-856.385226,0
0.042708,202.808161,-84.025210,-53.413734,-0.755365,-5.880112,0.785141,5.515676,6.390221,-0.584015,-5.575207,-0.126811,0.338044,0.003860,-24.255221,188.722244,1580.648170,-856.877301,0
0.043750,177.790127,-30.773335,-130.102934,-2.241592,-4.625152,-1.561447,6.354625,5.072348,1.766985,-6.420548,-0.115872,0.353202,-0.011006,-69.851436,188.646860,1580.478359,-857.705209,0
0.044792,131.257034,17.757047,-188.698295,-3.345004,-2.981228,-3.670923,6.578861,3.355694,3.807394,-6.451011,-0.148688,0.368911,-0.011006,-108.388681,188.722224,1580.323874,-858.338526,0
0.045833,70.915433,75.671692,-197.799897,-3.558930,-0.218115,-5.486054,5.492479,0.556638,5.645056,-5.464780,-0.112226,0.380348,-0.018440,-118.994023,188.797557,1581.308261,-858.935003,0
0.046875,16.833990,149.536060,-173.034790,-3.074780,2.273457,-6.528527,3.992422,-1.972767,6.568201,-3.796945,-0.068472,0.355200,-0.025873,-111.146970,188.797704,1581.026416,-859.259768,0
0.047917,-30.591796,188.482514,-110.635956,-1.870035,4.368726,-6.070657,1.413716,-4.156563,6.059177,-1.184765,-0.028364,0.347001,-0.011006,-78.306438,188.722250,1581.140289,-859.203309,0
0.048958,-100.640033,194.061393,-49.148497,-0.721587,6.243826,-5.167179,-1.203652,-5.994749,5.058385,1.374104,0.019036,0.332256,0.007577,-39.893034,188.722250,1580.379673,-858.130194,0
0.050000,-158.563451,147.762564,2.058647,0.280491,6.761222,-3.172171,-3.596784,-6.553041,3.056799,3.734966,0.091960,0.337217,0.015011,-4.114078,188.797536,1578.988965,-857.443827,0
0.051042,-202.791358,84.550919,53.861224,1.327606,6.482342,-0.617088,-5.553044,-6.298582,0.554818,5.627464,0.124775,0.341282,-0.003573,25.101274,188.797684,1578.804702,-857.269245,0
0.052083,-177.750724,31.533944,130.659789,2.836352,5.146654,1.623209,-6.364931,-4.931336,-1.770300,6.430918,0.132068,0.350239,-0.022156,71.001464,188.797644,1578.002744,-856.653148,0
0.053125,-131.760028,-17.149123,189.194391,3.939764,3.477044,3.794007,-6.581434,-3.191895,-3.758944,6.484228,0.117483,0.368980,0.000144,108.671818,188.722252,1577.547654,-856.358984,0
0.054167,-72.424120,-75.885918,197.566893,4.119912,0.765303,5.551904,-5.460257,-0.461201,-5.622489,5.456111,0.110191,0.361194,0.003860,120.628159,188.797615,1576.929933,-855.919749,0
0.055208,-18.161879,-150.114382,173.421522,3.680800,-1.649210,6.533056,-3.991129,2.049215,-6.485241,3.856817,0.117483,0.352375,0.007577,111.475141,188.797563,1577.212271,-855.229820,0
0.056250,30.529500,-188.250430,111.654574,2.453536,-3.784843,6.103802,-1.427887,4.282383,-6.049551,1.187520,0.015390,0.348654,0.003860,76.675659,188.797784,1576.682981,-855.413650,0
0.057292,101.233132,-193.923270,49.911930,1.293828,-5.641596,5.237118,1.197213,6.112974,-5.066014,-1.352310,-0.002841,0.335012,-0.003573,41.223195,188.797684,1576.548139,-854.801630,0
0.058333,158.930551,-147.835850,-1.756978,0.291750,-6.162661,3.262550,3.551684,6.694054,-3.103252,-3.705557,-0.083057,0.336321,-0.018440,4.599865,188.797773,1576.353845,-854.327435,0
0.059375,202.909861,-84.518501,-53.620312,-0.744105,-5.869104,0.744260,5.511810,6.382625,-0.566760,-5.575207,-0.123164,0.340386,-0.003573,-23.399588,188.873132,1576.290014,-854.637590,0
0.060417,177.688427,-31.160920,-130.552546,-2.252852,-4.628822,-1.585975,6.373956,5.068550,1.771298,-6.412932,-0.112226,0.354924,-0.014723,-70.797135,188.797683,1576.280695,-854.722611,0
0.061458,131.539532,17.839262,-188.953480,-3.378782,-2.926186,-3.654570,6.574995,3.302524,3.828963,-6.428164,-0.101287,0.364019,-0.007290,-107.026424,188.797692,1575.780364,-855.341205,0
0.062500,71.231831,76.059277,-197.666229,-3.536412,-0.225454,-5.477877,5.484747,0.549042,5.653684,-5.426701,-0.104934,0.361814,-0.044457,-118.419848,188.797717,1575.449617,-855.539347,0
0.063542,16.958289,149.406865,-173.204914,-3.097299,2.277126,-6.553056,3.946029,-1.980363,6.533691,-3.743635,-0.093995,0.353202,-0.014723,-110.280079,188.873054,1574.530693,-855.769648,0
0.064583,-30.467497,188.799629,-110.198496,-1.824998,4.394412,-6.037951,1.332527,-4.224925,6.072119,-1.180958,0.011744,0.346587,-0.048173,-76.043514,188.797702,1574.906719,-856.474223,0
0.065625,-100.538334,193.826493,-48.686734,-0.732846,6.302538,-5.146739,-1.292573,-6.040324,5.041130,1.412183,0.062790,0.330051,-0.003573,-38.958593,188.797603,1574.806186,-857.098383,0
0.066667,-159.015448,146.963903,2.204467,0.291750,6.830942,-3.180347,-3.581320,-6.636595,3.035230,3.776852,0.102898,0.331843,-0.018440,-3.888912,188.797702,1575.508695,-857.828571,0
0.067708,-202.678359,83.517358,53.666797,1.305087,6.504359,-0.653881,-5.607170,-6.256805,0.550504,5.646503,0.132068,0.335563,-0.022156,24.482066,188.873047,1574.946106,-857.633288,0
0.068750,-177.310027,30.488638,130.817761,2.825093,5.190688,1.696795,-6.453852,-4.946527,-1.826379,6.488036,0.106545,0.350377,-0.011006,71.316697,188.797717,1575.496135,-858.122462,0
0.069792,-131.149832,-17.936039,188.732628,3.905986,3.469705,3.798095,-6.604631,-3.229874,-3.780513,6.499459,0.161237,0.354029,-0.029590,107.523469,188.797619,1575.931211,-857.647187,0
0.070833,-70.864730,-76.285249,197.846382,4.131172,0.783651,5.613226,-5.560777,-0.392838,-5.652685,5.440879,0.117483,0.351273,0.000144,118.489077,188.797751,1575.740553,-857.952376,0
0.071875,-16.918887,-149.726797,173.433673,3.680800,-1.671227,6.594378,-3.987263,2.068204,-6.511124,3.826354,0.077375,0.354855,-0.022156,110.045333,188.948459,1575.638575,-858.005360,0
0.072917,30.563399,-188.931641,111.326479,2.464795,-3.825207,6.095625,-1.377628,4.331756,-6.066806,1.225598,0.011744,0.340524,-0.003573,77.418709,188.797731,1576.527690,-858.192328,0
0.073958,101.007134,-193.841055,50.057750,1.305087,-5.667283,5.249382,1.247472,6.143357,-5.044445,-1.359926,0.019036,0.337286,-0.003573,41.482136,188.797670,1576.347814,-858.666648,0
0.075000,159.439048,-147.894575,-1.355972,0.280491,-6.177339,3.266638,3.582613,6.697851,-3.094625,-3.736019,-0.050241,0.340111,-0.014723,4.554832,188.797650,1576.445272,-859.233137,0
0.076042,202.661262,-85.000046,-53.802588,-0.744105,-5.865434,0.760613,5.504078,6.359838,-0.566760,-5.548552,-0.112226,0.344383,-0.014723,-24.345288,188.948452,1576.046616,-859.040472,0
0.077083,177.891826,-31.865621,-130.904944,-2.230333,-4.625152,-1.561447,6.331429,5.022975,1.775612,-6.390085,-0.101287,0.360436,-0.022156,-70.290510,188.797728,1575.476925,-859.346299,0
0.078125,132.002829,17.392952,-188.892722,-3.367522,-2.970220,-3.658658,6.505404,3.310120,3.772884,-6.420548,-0.130457,0.365466,-0.003573,-108.535039,188.797628,1575.307039,-858.945721,0
0.079167,72.147125,76.047532,-197.641925,-3.558930,-0.225454,-5.522847,5.453818,0.518659,5.610546,-5.381007,-0.108580,0.360781,-0.033307,-118.903956,188.797661,1574.370043,-859.230610,0
0.080208,17.523286,149.735725,-172.974032,-3.097299,2.244101,-6.487646,3.899635,-1.957576,6.468985,-3.736019,-0.053887,0.355820,-0.033307,-111.068162,189.023778,1573.730329,-858.721178,0
0.081250,-30.546597,188.388554,-110.684563,-1.858776,4.335700,-5.992982,1.378921,-4.167957,6.011726,-1.139071,-0.032010,0.343487,-0.037023,-78.115046,188.872952,1572.460858,-858.434118,0
0.082292,-101.012931,193.873473,-48.856857,-0.699068,6.251165,-5.101769,-1.246179,-6.028930,4.967796,1.404567,0.022683,0.331016,-0.022156,-39.442701,188.797583,1571.774101,-858.379192,0
0.083333,-158.642550,147.504173,2.544714,0.280491,6.728197,-3.168083,-3.600650,-6.530254,3.009348,3.719735,0.070083,0.332532,-0.029590,-3.607454,188.797619,1570.483714,-857.372476,0
0.084375,-202.689659,83.752259,53.934134,1.338865,6.449317,-0.596647,-5.556910,-6.218826,0.528935,5.589385,0.117483,0.336597,-0.011006,25.258891,188.948588,1569.749417,-856.951445,0
0.085417,-177.592525,30.312463,130.428907,2.813834,5.135645,1.672266,-6.353332,-4.908548,-1.796182,6.396648,0.132068,0.351962,-0.037023,70.877622,188.873108,1568.588456,-856.051549,0
0.086458,-130.923833,-18.088724,189.157936,3.917245,3.429341,3.749037,-6.484781,-3.161512,-3.767571,6.423303,0.135714,0.355751,0.000144,108.615526,188.797788,1567.297282,-855.981127,0
0.087500,-70.593532,-76.003369,197.603348,4.142431,0.746956,5.498758,-5.437060,-0.389040,-5.605234,5.414224,0.132068,0.332601,-0.018440,120.605642,188.873077,1566.491926,-855.461516,0
0.088542,-16.512089,-149.973442,173.081275,3.635763,-1.689574,6.537144,-3.952468,2.083396,-6.476614,3.773045,0.081021,0.323230,-0.011006,111.407591,188.872996,1565.661497,-855.370185,0
0.089583,31.128396,-188.320900,110.852564,2.442277,-3.773835,6.054744,-1.381494,4.248202,-5.980531,1.195136,0.011744,0.347207,-0.007290,76.518043,188.873056,1564.097685,-854.067059,0
0.090625,101.097533,-193.993740,48.818280,1.282569,-5.601232,5.192148,1.251338,6.093984,-5.027190,-1.356118,-0.028364,0.332118,-0.025873,40.986770,188.797585,1563.760934,-853.143120,0
0.091667,158.591553,-147.671420,-2.352410,0.291750,-6.096611,3.188963,3.482093,6.656074,-3.068742,-3.682710,-0.072118,0.334048,-0.033307,4.521057,188.873072,1562.917472,-852.063754,0
0.092708,202.672562,-84.072190,-53.863346,-0.755365,-5.825070,0.711555,5.484747,6.306667,-0.579702,-5.537129,-0.093995,0.340249,-0.011006,-23.557205,188.873115,1562.336782,-851.376898,0
0.093750,177.767527,-31.031725,-130.819883,-2.264111,-4.518738,-1.573711,6.273437,5.003986,1.766985,-6.352007,-0.130457,0.351135,0.003860,-71.101110,188.873177,1561.847837,-850.695678,0
0.094792,131.799431,17.710067,-188.904873,-3.356263,-2.911508,-3.662747,6.482208,3.279736,3.751315,-6.359622,-0.141395,0.360712,0.015011,-107.048940,188.797574,1560.920648,-850.250558,0
0.095833,72.192324,76.153237,-197.313830,-3.513893,-0.163073,-5.457437,5.415157,0.541446,5.601919,-5.339121,-0.123164,0.356302,-0.029590,-118.149648,188.948352,1560.435275,-849.884417,0
0.096875,17.670185,149.712235,-173.071245,-3.097299,2.269787,-6.422236,3.930564,-1.984161,6.473298,-3.705557,-0.090349,0.353822,-0.033307,-110.201271,188.797770,1560.112968,-850.449809,0
0.097917,-30.716096,188.294593,-111.024810,-1.881295,4.361387,-5.988894,1.375054,-4.145169,5.951333,-1.112416,-0.042949,0.343762,0.000144,-76.370006,188.872974,1559.204220,-850.352137,0
0.098958,-101.182430,193.650318,-49.415834,-0.721587,6.225479,-5.114034,-1.253912,-5.979558,4.972109,1.435030,0.015390,0.331705,-0.018440,-39.262568,188.797597,1558.729459,-850.375540,0
0.100000,-159.218846,147.468938,2.253074,0.280491,6.706180,-3.114937,-3.589052,-6.526456,3.000720,3.731158,0.095606,0.332601,0.011294,-3.843878,188.948443,1558.778403,-850.605782,0
0.101042,-202.531460,84.374744,54.116409,1.327606,6.430969,-0.600735,-5.529847,-6.165655,0.546190,5.581769,0.117483,0.336735,0.000144,24.741008,188.797648,1558.284838,-850.482026,0
0.102083,-177.569925,31.111123,130.732699,2.825093,5.102620,1.692707,-6.303073,-4.866771,-1.791869,6.400455,0.135714,0.355407,-0.018440,71.147822,188.873010,1557.901301,-850.868487,0
0.103125,-131.567929,-18.065234,188.659718,3.962282,3.433010,3.773566,-6.519576,-3.093149,-3.840905,6.366185,0.106545,0.352651,-0.007290,107.489694,188.797646,1556.730662,-852.132522,0
0.104167,-70.955130,-76.437934,197.603348,4.097394,0.732278,5.519199,-5.425462,-0.354859,-5.609548,5.345683,0.102898,0.357887,0.000144,118.308944,188.948478,1555.937197,-852.605838,0
0.105208,-16.613789,-149.726797,173.202791,3.669540,-1.704252,6.500351,-3.917673,2.132769,-6.472300,3.723543,0.081021,0.349206,-0.018440,110.000300,188.797722,1555.227637,-853.462234,0
0.106250,31.071896,-188.473585,110.828261,2.453536,-3.770165,6.009775,-1.346699,4.286181,-5.907197,1.164673,0.019036,0.343556,-0.011006,77.035926,188.797597,1554.339399,-853.975483,0
0.107292,100.939334,-193.876290,48.611702,1.271309,-5.579215,5.102209,1.251338,6.063601,-4.992680,-1.409428,0.008098,0.329362,-0.037023,40.468887,188.797565,1553.450709,-854.269807,0
0.108333,158.580254,-147.530480,-2.753415,0.269232,-6.052577,3.119465,3.513022,6.583914,-2.991094,-3.697941,-0.057533,0.331774,-0.033307,3.609132,188.797755,1552.067814,-854.332502,0
0.109375,202.367464,-83.344000,-53.960559,-0.777883,-5.729664,0.642057,5.461550,6.230709,-0.502054,-5.487627,-0.104934,0.330051,0.003860,-24.604229,188.797634,1550.356088,-854.078142,0
0.110417,177.609328,-29.927694,-130.297361,-2.264111,-4.456357,-1.569623,6.223177,4.939421,1.741102,-6.287273,-0.123164,0.352375,-0.037023,-70.110377,188.797654,1549.034423,-853.059377,0
