1-Time,2-VGERA,3-VGERB,4-VGERC,5-VN,6-IGERAN,7-IGERBN,8-IGERCN,9-IGERAT,10-IGERBT,11-IGERCT,12-IN,13-IFD,14-IFAULT,15-VFAULT,16-Speed (rad/s),17-FAULT 
0.000000,-86.722307,-43.548767,202.619887,6.728208,-1.280635,5.707068,-4.089749,1.665244,-5.602368,4.119826,-0.227071,0.191816,-0.031958,30.222658,188.495790,0
0.001042,-40.955317,-127.341917,176.164394,6.253188,-3.559914,6.107101,-2.232646,3.980967,-6.029424,2.216378,-0.168623,0.200373,-0.039427,14.603548,188.721940,0
0.002083,-0.417221,-184.037599,123.253409,5.269218,-4.944522,4.895572,0.384537,5.410834,-5.038333,-0.239070,-0.139399,0.192992,-0.073035,10.384918,188.495678,0
0.003125,63.679250,-196.843358,69.985417,4.262628,-6.261675,3.444023,3.162355,6.686319,-3.442918,-3.029524,-0.066339,0.179077,-0.020755,2.411368,188.571075,0
0.004167,140.547375,-160.624808,26.405871,3.403068,-6.119664,1.420997,5.031212,6.693671,-1.525197,-4.936779,0.006721,0.186002,-0.046895,-19.032391,188.495756,0
0.005208,193.255975,-96.728906,-19.869697,2.554818,-4.969374,-0.994442,6.202676,5.429212,0.916271,-6.063620,0.035945,0.192534,-0.054364,-35.940841,188.721907,0
0.006250,182.389860,-51.993319,-94.742803,1.095828,-3.336246,-3.116523,6.547454,3.914803,3.063635,-6.516641,-0.015197,0.173329,-0.076769,-41.652391,188.495749,0
0.007292,138.346930,-9.541022,-170.625379,-0.351852,-1.326789,-4.594741,5.900995,1.797571,4.558329,-5.899924,-0.029809,0.207951,-0.054364,-37.886161,188.571053,0
0.008333,87.078828,44.134434,-202.756061,-0.917352,1.364322,-5.520532,3.942025,-0.771778,5.484958,-4.042159,-0.059033,0.205207,-0.009553,-25.230271,188.495705,0
0.009375,41.754196,127.238973,-176.091288,-0.431022,3.657802,-5.905326,2.069251,-3.061770,5.960360,-2.169166,-0.102869,0.197499,-0.028224,-10.120111,188.721967,0
0.010417,0.444809,184.333325,-123.488069,0.552948,4.985606,-4.739515,-0.465656,-4.506340,4.953154,0.286282,-0.183235,0.194168,-0.043161,-5.618731,188.571102,0
0.011458,-63.277358,196.728333,-69.382955,1.593468,6.313410,-3.246058,-3.263064,-5.756095,3.349681,3.114805,-0.183235,0.178555,-0.031958,2.852458,188.571035,0
0.012500,-140.871404,161.017181,-25.237121,2.407788,6.185600,-1.245891,-5.077069,-5.844313,1.431960,4.923081,-0.219765,0.180319,-0.046895,23.775958,188.495629,0
0.013542,-192.888112,96.758852,20.189015,3.278658,4.982056,1.192407,-6.283795,-4.539422,-0.997421,6.095605,-0.267254,0.189138,-0.065566,40.130218,188.721851,0
0.014583,-183.167589,52.530663,95.320644,4.703718,3.370229,3.287819,-6.608984,-3.002958,-3.148814,6.544819,-0.256295,0.194690,-0.035692,45.061377,188.571174,0
0.015625,-139.113317,10.030042,170.587690,6.117468,1.442428,4.727939,-5.974277,-0.966593,-4.591133,5.882419,-0.248989,0.209715,-0.061832,43.183918,188.495749,0
0.016667,-87.879242,-43.717899,202.866099,6.728208,-1.234481,5.638491,-4.085831,1.639514,-5.513734,4.104598,-0.197847,0.202921,-0.020755,28.605328,188.495667,0
0.017708,-40.932632,-126.435849,176.189016,6.264498,-3.520861,6.023285,-2.240482,3.936858,-5.944819,2.182116,-0.194194,0.190052,-0.017021,13.902328,188.721876,0
0.018750,0.002452,-184.436269,123.265720,5.257908,-4.877067,4.910811,0.353193,5.388779,-5.002073,-0.235263,-0.110175,0.172676,-0.058098,10.056928,188.571040,0
0.019792,63.078097,-196.384283,69.653031,4.228698,-6.208421,3.463072,3.138848,6.627507,-3.410688,-2.999069,-0.062686,0.179469,-0.031958,2.049448,188.495673,0
0.020833,140.615430,-161.277176,25.642614,3.425688,-6.073511,1.382899,4.956771,6.660589,-1.537284,-4.864448,-0.015197,0.184303,-0.009553,-18.512131,188.495696,0
0.021875,192.235150,-97.429599,-20.029735,2.543508,-4.919670,-1.028730,6.136071,5.396131,0.900155,-6.014131,0.003068,0.192861,-0.046895,-35.771191,188.721849,0
0.022917,183.059067,-52.899387,-94.853599,1.118448,-3.322045,-3.147002,6.465178,3.907452,3.043490,-6.501413,0.028639,0.198479,-0.050629,-40.634491,188.571013,0
0.023958,138.585123,-9.178595,-170.256061,-0.317922,-1.337440,-4.587122,5.900995,1.826977,4.542213,-5.873276,0.006721,0.212263,-0.039427,-36.608131,188.495689,0
0.025000,86.568416,44.255244,-203.223864,-0.939972,1.339470,-5.463385,3.981205,-0.771778,5.476901,-4.068807,-0.044421,0.197630,-0.050629,-25.128481,188.571075,0
0.026042,40.926194,126.779899,-176.226705,-0.419712,3.604548,-5.848179,2.092758,-3.054419,5.899927,-2.165359,-0.099216,0.196715,-0.031958,-10.255831,188.721880,0
0.027083,-0.099631,184.454135,-123.992803,0.519018,4.992707,-4.724276,-0.461738,-4.465907,4.920923,0.229178,-0.132093,0.198348,-0.054364,-5.539561,188.571044,0
0.028125,-63.674346,196.257178,-69.863068,1.525608,6.245955,-3.272726,-3.251310,-5.719338,3.385941,3.065316,-0.175929,0.183128,-0.054364,2.897698,188.495740,0
0.029167,-141.109597,161.681630,-25.187879,2.407788,6.192701,-1.230652,-5.049644,-5.778150,1.476277,4.885012,-0.212459,0.184957,-0.046895,23.956918,188.495721,0
0.030208,-192.536494,97.085037,20.435227,3.289968,4.992707,1.158118,-6.268123,-4.513692,-0.953104,6.049922,-0.241683,0.192273,-0.017021,39.813538,188.571085,0
0.031250,-183.541891,52.168236,95.086743,4.669788,3.416383,3.303058,-6.573722,-3.047067,-3.140756,6.510557,-0.263601,0.199132,-0.054364,46.045347,188.571125,0
0.032292,-139.328824,9.039408,170.218372,6.140088,1.399825,4.716509,-5.993867,-0.970269,-4.530701,5.878612,-0.248989,0.208408,-0.028224,43.274397,188.495645,0
0.033333,-87.629707,-43.693738,202.939963,6.728208,-1.252233,5.585153,-4.070159,1.624811,-5.509705,4.070336,-0.208806,0.206122,-0.046895,30.426238,188.571035,0
0.034375,-41.783320,-126.242555,176.385985,6.253188,-3.513760,6.019475,-2.209138,3.914803,-5.908559,2.223992,-0.205153,0.196519,-0.031958,15.010708,188.721974,0
0.035417,0.172589,-184.049680,124.053599,5.303148,-4.877067,4.884142,0.364947,5.355697,-4.981929,-0.216228,-0.121134,0.186655,-0.043161,10.317058,188.571161,0
0.036458,62.839905,-196.275555,69.394508,4.262628,-6.194220,3.379255,3.107504,6.568695,-3.422774,-2.987649,-0.088257,0.169344,-0.043161,2.286958,188.495398,0
0.037500,140.445293,-161.542956,25.310227,3.403068,-6.013156,1.390518,4.929346,6.660589,-1.501024,-4.845414,-0.048074,0.181952,-0.039427,-18.874051,188.495680,0
0.038542,191.668025,-97.296709,-20.152841,2.532198,-4.848665,-1.013491,6.077302,5.337319,0.875982,-5.937993,-0.015197,0.190967,-0.050629,-35.567611,188.721918,0
0.039583,183.467397,-52.500717,-94.841288,1.129758,-3.300743,-3.086044,6.382901,3.852316,3.023346,-6.440503,-0.015197,0.197173,-0.054364,-41.697631,188.571125,0
0.040625,139.934880,-9.118190,-169.135796,-0.283992,-1.312588,-4.503305,5.806964,1.779193,4.518040,-5.797138,-0.015197,0.212132,-0.005818,-38.010571,188.495743,0
0.041667,86.851978,44.255244,-203.002273,-0.883422,1.325269,-5.390998,3.934189,-0.786481,5.416468,-4.049773,-0.059033,0.214745,-0.017021,-25.535641,188.495761,0
0.042708,40.404439,125.704698,-176.399054,-0.431022,3.554844,-5.760552,2.033989,-3.021337,5.795178,-2.119676,-0.117481,0.186002,-0.017021,-10.267141,188.721860,0
0.043750,-0.576016,184.659510,-123.992803,0.530328,4.914600,-4.655699,-0.465656,-4.462231,4.848404,0.259634,-0.146705,0.196258,-0.050629,-5.268121,188.571257,0
0.044792,-62.721576,195.955155,-69.530682,1.548228,6.228203,-3.215579,-3.216049,-5.620092,3.309393,3.050088,-0.197847,0.178882,-0.054364,2.931628,188.495676,0
0.045833,-141.370474,162.430647,-25.052462,2.396478,6.150097,-1.253511,-5.037890,-5.734041,1.468220,4.824102,-0.216112,0.185022,-0.050629,23.719408,188.571147,0
0.046875,-191.152709,98.510583,20.496780,3.301278,4.964304,1.150499,-6.174092,-4.454880,-0.973248,5.962364,-0.259948,0.192926,-0.058098,39.949258,188.646451,0
0.047917,-184.267811,52.168236,95.246781,4.692408,3.380880,3.276390,-6.538461,-3.021337,-3.060180,6.442032,-0.278213,0.198152,-0.050629,45.083997,188.571127,0
0.048958,-140.054744,8.266230,168.888826,6.106158,1.374973,4.647932,-5.872411,-0.966593,-4.502499,5.813895,-0.252642,0.215986,-0.058098,43.330947,188.495678,0
0.050000,-87.028555,-43.826628,203.223107,6.728208,-1.252233,5.543245,-3.956539,1.577026,-5.489561,4.093178,-0.216112,0.202921,-0.031958,28.707118,188.571062,0
0.051042,-41.318278,-124.853251,176.398296,6.219258,-3.481808,5.931849,-2.119026,3.822910,-5.840069,2.182116,-0.194194,0.195082,-0.058098,13.947568,188.646397,0
0.052083,0.342727,-184.520836,124.496781,5.257908,-4.802511,4.846044,0.337522,5.271155,-4.929555,-0.170546,-0.124787,0.197695,-0.054364,9.864658,188.571183,0
0.053125,62.340835,-195.369487,69.763826,4.251318,-6.073511,3.386875,3.091833,6.484153,-3.386515,-2.991455,-0.062686,0.177052,0.005384,1.868488,188.495683,0
0.054167,140.740198,-162.436943,24.522349,3.436998,-5.974103,1.386709,4.917592,6.605453,-1.513111,-4.780697,-0.033462,0.184565,-0.031958,-18.466891,188.571058,0
0.055208,190.182158,-97.477922,-20.768371,2.520888,-4.820262,-0.975393,6.014615,5.263804,0.867925,-5.865662,-0.004238,0.189138,-0.050629,-35.341411,188.646520,0
0.056250,184.227345,-51.787943,-94.410417,1.141068,-3.290093,-3.055566,6.406409,3.878046,2.975000,-6.398627,-0.033462,0.195735,-0.050629,-40.860691,188.571078,0
0.057292,140.354553,-8.248365,-167.929357,-0.261372,-1.280635,-4.472826,5.795210,1.790220,4.441493,-5.732421,0.003068,0.209650,-0.031958,-36.608131,188.495693,0
0.058333,87.770721,44.158596,-203.310039,-0.917352,1.307518,-5.356709,3.922436,-0.764427,5.376180,-3.988862,-0.044421,0.206449,-0.046895,-25.320751,188.646547,0
0.059375,41.187071,125.136896,-176.386743,-0.431022,3.508690,-5.741503,2.049661,-3.021337,5.730717,-2.127290,-0.091910,0.195605,-0.058098,-10.889191,188.571020,0
0.060417,-1.154483,184.792400,-124.485228,0.541638,4.840045,-4.682368,-0.453902,-4.414446,4.892721,0.244406,-0.157664,0.200177,-0.028224,-5.222881,188.570995,0
0.061458,-62.438013,195.447757,-69.407576,1.582158,6.182050,-3.207959,-3.223885,-5.605389,3.301335,2.996792,-0.190541,0.175223,-0.050629,3.010798,188.495613,0
0.062500,-141.041542,162.780993,-24.621591,2.419098,6.057790,-1.203983,-5.010465,-5.715662,1.440018,4.862171,-0.223418,0.180841,-0.054364,23.742028,188.646558,0
0.063542,-190.404104,98.631392,20.853788,3.278658,4.886198,1.165738,-6.130995,-4.385040,-0.932960,5.897646,-0.259948,0.190901,-0.069301,39.485548,188.571129,0
0.064583,-184.721511,53.025980,94.975947,4.703718,3.370229,3.245911,-6.495363,-2.973552,-3.092410,6.449646,-0.256295,0.193776,-0.080503,46.101897,188.571109,0
0.065625,-140.780664,8.121260,168.113258,6.083538,1.374973,4.628883,-5.821478,-0.937187,-4.478326,5.764405,-0.227071,0.200831,-0.054364,43.477977,188.495595,0
0.066667,-86.915130,-43.790385,203.296970,6.750828,-1.216730,5.474668,-3.987883,1.610108,-5.408985,4.028461,-0.219765,0.211544,-0.050629,30.550648,188.646485,0
0.067708,-40.671755,-124.345853,176.693751,6.253188,-3.403701,5.851842,-2.095518,3.833937,-5.779637,2.125013,-0.157664,0.187700,-0.073035,15.055948,188.571069,0
0.068750,1.000592,-184.339622,124.730682,5.280528,-4.777659,4.788896,0.380619,5.249101,-4.861065,-0.193387,-0.146705,0.197107,-0.069301,9.808108,188.571170,0
0.069792,62.045930,-195.152031,69.948485,4.251318,-6.034458,3.318298,3.091833,6.432692,-3.358313,-2.953387,-0.095563,0.179273,-0.054364,2.094688,188.495721,0
0.070833,141.080473,-162.968503,24.571591,3.403068,-5.892446,1.382899,4.788300,6.513559,-1.452678,-4.731207,-0.044421,0.184565,-0.069301,-18.885361,188.571136,0
0.071875,189.388183,-98.420233,-20.940720,2.532198,-4.727955,-0.990632,5.916666,5.234398,0.819579,-5.766683,-0.007891,0.190771,-0.050629,-35.069971,188.570979,0
0.072917,184.601647,-51.389274,-94.607387,1.129758,-3.265241,-3.013657,6.320214,3.811882,3.003202,-6.292034,0.003068,0.189138,-0.069301,-41.833351,188.570993,0
0.073958,141.080473,-7.100679,-167.190720,-0.261372,-1.245132,-4.465207,5.685508,1.746111,4.381060,-5.625827,-0.015197,0.206906,-0.065566,-38.157601,188.495680,0
0.075000,87.044801,44.363972,-203.273107,-0.962592,1.282666,-5.299562,3.844077,-0.735021,5.299633,-3.958407,-0.084604,0.204816,-0.039427,-25.603501,188.646458,0
0.076042,41.413921,124.013372,-176.792993,-0.464952,3.480288,-5.642447,1.975220,-2.918416,5.650140,-2.047345,-0.084604,0.196258,-0.061832,-10.753471,188.571136,0
0.077083,-1.086428,184.828643,-125.162311,0.496398,4.825844,-4.609981,-0.442148,-4.388716,4.824231,0.191109,-0.150358,0.189072,-0.039427,-5.222881,188.571080,0
0.078125,-61.575983,194.819550,-69.419887,1.559538,6.008086,-3.139382,-3.165115,-5.454684,3.216730,2.981564,-0.168623,0.177118,-0.046895,2.988178,188.495714,0
0.079167,-141.359132,163.385038,-24.018371,2.441718,5.986784,-1.200173,-4.943860,-5.583335,1.395701,4.759385,-0.252642,0.180319,-0.020755,23.425348,188.646523,0
0.080208,-188.816154,98.812606,21.050758,3.289968,4.786790,1.154308,-6.017375,-4.282119,-0.973248,5.829122,-0.241683,0.188354,-0.043161,39.632578,188.495698,0
0.081250,-185.413404,52.313206,94.840531,4.681098,3.348928,3.181144,-6.401333,-2.940471,-3.036007,6.388736,-0.274560,0.193906,-0.046895,45.197097,188.571078,0
0.082292,-142.209819,7.541376,166.389773,6.026988,1.328819,4.541257,-5.723529,-0.907781,-4.434009,5.642584,-0.274560,0.208474,-0.058098,43.477977,188.495683,0
0.083333,-87.709105,-44.007841,203.506251,6.716898,-1.156375,5.421330,-3.936949,1.591729,-5.376754,3.998005,-0.248989,0.203509,-0.058098,29.114278,188.646485,0
0.084375,-40.694440,-122.835740,176.989205,6.275808,-3.425003,5.756596,-2.024995,3.800855,-5.662801,2.045068,-0.183235,0.213112,-0.020755,14.252938,188.495720,0
0.085417,1.669799,-185.052395,124.939963,5.314458,-4.710204,4.750798,0.298342,5.234398,-4.873151,-0.204808,-0.084604,0.182670,-0.039427,9.333088,188.570986,0
0.086458,61.308667,-194.475501,69.837690,4.262628,-5.949251,3.223052,3.083997,6.373880,-3.229390,-2.968614,-0.095563,0.177052,-0.031958,1.574428,188.495658,0
0.087500,141.364035,-163.632953,24.263826,3.403068,-5.874695,1.367659,4.800054,6.458423,-1.460736,-4.719786,-0.051727,0.181429,-0.046895,-18.229381,188.721920,0
0.088542,187.879630,-99.676647,-21.223864,2.498268,-4.688902,-1.017301,5.861815,5.124125,0.839723,-5.701965,-0.018850,0.190967,-0.076769,-34.855081,188.495776,0
0.089583,185.327567,-51.908752,-94.422728,1.141068,-3.233288,-3.013657,6.257527,3.793504,2.946799,-6.257772,-0.011544,0.202921,-0.065566,-41.019031,188.571138,0
0.090625,141.624913,-6.303340,-165.898107,-0.216132,-1.238032,-4.362341,5.579724,1.716705,4.328686,-5.553496,-0.011544,0.194298,-0.058098,-36.630751,188.495683,0
0.091667,86.489018,44.376053,-203.507008,-0.906042,1.318169,-5.280513,3.840159,-0.705615,5.311719,-3.912724,-0.077298,0.189334,-0.039427,-25.252891,188.646578,0
0.092708,40.722029,123.216032,-176.743751,-0.431022,3.476738,-5.627208,1.924287,-2.911065,5.573593,-2.024504,-0.077298,0.193449,-0.050629,-10.990981,188.495636,0
0.093750,-1.880403,184.889047,-125.482387,0.473778,4.793891,-4.594741,-0.430394,-4.355634,4.796029,0.229178,-0.124787,0.193645,-0.024490,-4.872271,188.569436,0
0.094792,-61.655381,194.191343,-70.232387,1.491678,6.011636,-3.097474,-3.176869,-5.414250,3.196586,2.981564,-0.216112,0.177902,-0.031958,3.146518,188.495450,0
0.095833,-141.325104,164.085730,-23.846023,2.453028,5.979684,-1.200173,-4.904680,-5.579659,1.440018,4.759385,-0.230724,0.181756,-0.035692,23.696788,188.645696,0
0.096875,-188.112919,99.175033,21.481629,3.323898,4.737087,1.180977,-5.970360,-4.285795,-0.965191,5.760598,-0.267254,0.186133,-0.039427,39.089698,188.495034,0
0.097917,-185.776364,51.503786,94.680493,4.681098,3.327626,3.181144,-6.373907,-2.955174,-3.027949,6.335439,-0.245336,0.189399,-0.061832,46.260237,188.570566,0
0.098958,-142.311902,6.599066,165.897349,6.004368,1.314618,4.514588,-5.723529,-0.871023,-4.381634,5.581674,-0.212459,0.207494,-0.028224,43.692867,188.494793,0
0.100000,-87.981325,-44.007841,203.383145,6.716898,-1.188328,5.413710,-3.933031,1.551296,-5.324379,3.998005,-0.234377,0.203966,-0.069301,30.765538,188.646438,0
0.101042,-41.635868,-122.727012,177.100001,6.275808,-3.346897,5.699448,-2.048503,3.786152,-5.598340,2.041261,-0.143052,0.192992,-0.065566,15.711928,188.492944,0
0.102083,2.123499,-184.665807,125.543182,5.325768,-4.688902,4.724129,0.298342,5.201316,-4.820776,-0.185773,-0.132093,0.188419,-0.084238,9.615838,188.559766,0
0.103125,61.229269,-194.354692,69.628409,4.285248,-5.885346,3.196383,2.982130,6.263608,-3.237448,-2.915318,-0.080951,0.180515,-0.050629,1.766698,188.494533,0
0.104167,141.091815,-163.959137,23.709849,3.357828,-5.860494,1.340991,4.753039,6.425341,-1.472823,-4.700752,-0.055380,0.179927,-0.028224,-18.568681,188.645489,0
0.105208,187.187737,-99.640404,-21.445455,2.509578,-4.642749,-0.960153,5.803046,5.113098,0.855838,-5.682931,-0.040768,0.189595,-0.043161,-34.606261,188.494867,0
0.106250,185.792610,-52.150370,-94.471970,1.129758,-3.229738,-2.941270,6.187004,3.767773,2.902482,-6.280614,-0.004238,0.195997,-0.020755,-41.878591,188.570097,0
0.107292,142.997356,-6.291259,-164.999432,-0.238752,-1.198979,-4.324242,5.497447,1.698326,4.231994,-5.507814,-0.007891,0.206710,-0.039427,-38.315941,188.495702,0
0.108333,86.851978,44.629752,-203.445455,-0.939972,1.243613,-5.196696,3.808815,-0.712966,5.198912,-3.882269,-0.040768,0.200765,-0.024490,-25.852321,188.721882,0
0.109375,40.381754,122.177074,-177.211554,-0.431022,3.416383,-5.490054,1.939959,-2.892686,5.517189,-1.982628,-0.066339,0.178947,-0.035692,-10.979671,188.495721,0
0.110417,-2.504241,185.336041,-125.580872,0.530328,4.776140,-4.560453,-0.473492,-4.311525,4.735597,0.236792,-0.150358,0.192338,-0.024490,-4.736551,188.571138,0
0.111458,-60.963488,193.877240,-70.244697,1.548228,5.922879,-2.986988,-3.133772,-5.351763,3.156298,2.970143,-0.190541,0.178032,-0.076769,3.203068,188.482183,0
0.112500,-142.016997,164.532724,-23.698296,2.441718,5.929980,-1.192553,-4.845911,-5.495117,1.419874,4.687053,-0.205153,0.180711,-0.039427,23.300938,188.716773,0
0.113542,-186.672421,100.709308,21.764773,3.312588,4.669631,1.135259,-5.876329,-4.208604,-0.908787,5.650198,-0.248989,0.191489,-0.031958,39.406378,188.495577,0
0.114583,-186.275434,51.515867,94.508144,4.681098,3.313425,3.131616,-6.334728,-2.911065,-2.971546,6.263108,-0.259948,0.194168,-0.035692,45.298887,188.495392,0
0.115625,-143.230644,5.451380,164.247728,6.015678,1.264914,4.438391,-5.637335,-0.837942,-4.309116,5.459853,-0.245336,0.185087,-0.024490,43.658937,188.495539,0
0.116667,-87.244062,-44.370268,203.752463,6.773448,-1.188328,5.383231,-3.889934,1.551296,-5.320351,3.929481,-0.201500,0.204620,-0.046895,29.193448,188.721755,0
0.117708,-41.340963,-121.458517,177.469319,6.287118,-3.272341,5.634681,-1.997570,3.734692,-5.525821,1.984157,-0.161317,0.193972,-0.028224,14.445208,188.495477,0
0.118750,2.225582,-185.366499,126.207955,5.325768,-4.660500,4.712700,0.266999,5.153531,-4.784517,-0.121056,-0.139399,0.195343,-0.024490,9.129508,188.495546,0
0.119792,60.752884,-193.388219,70.403977,4.251318,-5.810790,3.200193,2.958623,6.157011,-3.221333,-2.816338,-0.077298,0.181756,-0.087972,1.257748,188.495379,0
0.120833,141.534173,-164.575263,23.488258,3.391758,-5.824991,1.386709,4.721695,6.399610,-1.440592,-4.632228,-0.033462,0.183128,-0.024490,-18.082351,188.721730,0
0.121875,185.815295,-100.111559,-21.950189,2.475648,-4.578844,-0.941104,5.759949,5.072665,0.851810,-5.530655,-0.022503,0.189007,-0.031958,-34.380061,188.495597,0
0.122917,186.280337,-51.195979,-94.250379,1.129758,-3.211986,-2.929841,6.190922,3.775125,2.894424,-6.189248,-0.018850,0.192338,-0.028224,-41.233921,188.495555,0
0.123958,143.700591,-5.530162,-164.063826,-0.170892,-1.184778,-4.331862,5.470021,1.672596,4.240051,-5.484972,-0.037115,0.206645,-0.017021,-36.755161,188.495600,0
0.125000,87.736693,44.665994,-203.470076,-0.985212,1.254264,-5.196696,3.804897,-0.694587,5.210998,-3.931759,-0.044421,0.205991,-0.017021,-25.456471,188.721670,0
0.126042,40.778741,121.899214,-177.371591,-0.397092,3.348928,-5.444336,1.889025,-2.804468,5.472872,-1.967401,-0.073645,0.191163,-0.046895,-11.635651,188.495539,0
0.127083,-3.105393,185.468930,-126.122538,0.507708,4.719335,-4.564262,-0.430394,-4.278444,4.755741,0.183496,-0.168623,0.192273,-0.009553,-4.465111,188.474519,0
