1-Time,2-VGERA,3-VGERB,4-VGERC,5-VN,6-IGERAN,7-IGERBN,8-IGERCN,9-IGERAT,10-IGERBT,11-IGERCT,12-IN,13-IFD,14-IFAULT,15-VFAULT,16-Speed (rad/s),17-Active Power,18-Reactive Power,19-FAULT 
0.000000,-160.323793,163.566251,10.623674,3.052458,3.963126,-3.541470,-0.553912,-3.572700,3.690126,0.539338,-0.146705,0.399223,-0.050629,-142.526278,188.495720,1212.350999,-6.784864,0
0.001042,-182.543751,110.627730,72.804546,4.262628,4.385609,-2.311210,-2.139745,-4.153468,2.481478,2.033634,-0.197847,0.400529,-0.031958,-159.355558,188.495651,1212.024266,-6.738793,0
0.002083,-186.048584,31.473647,131.920076,5.404938,4.463715,-0.830928,-3.501695,-4.171847,1.008439,3.382058,-0.219765,0.406278,-0.058098,-168.392248,188.420220,1211.826524,-6.670215,0
0.003125,-155.616655,-38.172765,170.636932,6.128778,3.700405,0.633480,-4.020355,-3.576375,-0.435223,3.961987,-0.197847,0.417579,-0.054364,-138.002279,188.495759,1211.244481,-6.355114,0
0.004167,-83.591777,-91.244176,195.455114,6.615108,2.319347,2.586023,-4.475582,-2.098724,-2.336325,4.307098,-0.205153,0.397655,-0.035692,-72.381660,188.495700,1210.680714,-6.287579,0
0.005208,-15.684226,-145.849862,180.362311,6.354978,0.845982,3.522609,-3.800204,-0.628424,-3.406482,3.816115,-0.248989,0.430579,-0.043161,-12.958921,188.495712,1210.817521,-5.577054,0
0.006250,48.140024,-186.574589,130.996781,5.404938,-1.017914,4.316325,-2.688256,1.191073,-4.098936,2.681162,-0.168623,0.379103,-0.020755,43.274397,188.495635,1209.977167,-5.364136,0
0.007292,101.756024,-195.248678,54.929546,3.968568,-2.665244,4.292514,-1.080036,2.885593,-4.271001,1.197540,-0.139399,0.402228,-0.017021,93.716996,188.495627,1210.351832,-4.436559,0
0.008333,160.362724,-163.572548,-10.341288,2.713158,-3.819084,3.780567,0.513259,3.947885,-3.696054,-0.339450,-0.150358,0.404318,-0.013287,147.179365,188.495759,1210.032236,-4.425316,0
0.009375,182.174352,-110.211195,-72.571402,1.480368,-4.234467,2.419342,2.110286,4.517626,-2.470619,-1.876439,-0.059033,0.403404,-0.058098,164.415805,188.495589,1209.960892,-4.940477,0
0.010417,185.803952,-30.827575,-131.908523,0.394608,-4.333874,0.998589,3.461042,4.495572,-0.968203,-3.217748,-0.059033,0.406735,-0.039427,173.011405,188.495667,1209.956119,-5.422118,0
0.011458,155.065776,38.734270,-170.477652,-0.385782,-3.556363,-0.461849,4.005822,3.914803,0.412508,-3.804792,-0.051727,0.415227,-0.005818,141.637465,188.495745,1210.223656,-5.556256,0
0.012500,82.859418,91.612387,-195.689773,-0.860802,-2.193057,-2.414393,4.420004,2.459206,2.347184,-4.149904,-0.037115,0.371721,-0.050629,77.227017,188.495794,1210.480319,-6.203932,0
0.013542,15.496307,146.109345,-180.264584,-0.589362,-0.655786,-3.414476,3.733432,0.944797,3.408947,-3.666036,-0.055380,0.420061,-0.050629,18.256678,188.495741,1210.882369,-6.262980,0
0.014583,-47.976325,187.172338,-130.800569,0.394608,1.211660,-4.148664,2.636409,-0.885726,4.155958,-2.563104,-0.040768,0.413398,-0.020755,-37.637341,188.420376,1211.839797,-6.745152,0
0.015625,-102.023340,195.314867,-54.942614,1.819668,2.851889,-4.160570,0.994606,-2.613329,4.273466,-1.018998,-0.095563,0.399353,-0.020755,-88.871640,188.495698,1213.032312,-6.789105,0
0.016667,-160.981658,163.880355,10.660606,3.075078,3.966676,-3.545439,-0.617346,-3.642539,3.660749,0.571359,-0.139399,0.397590,-0.035692,-142.548898,188.420339,1213.680347,-7.692195,0
0.017708,-182.475696,110.156575,72.829167,4.273938,4.431763,-2.279461,-2.244223,-4.226983,2.435314,2.101233,-0.154011,0.400725,-0.043161,-159.864508,188.495694,1214.446039,-8.871293,0
0.018750,-186.479599,30.881683,132.178599,5.337078,4.456615,-0.807116,-3.572591,-4.175523,0.995849,3.431868,-0.175929,0.401640,-0.031958,-168.889888,188.420321,1215.014830,-9.239991,0
0.019792,-155.265037,-38.619758,170.624622,6.117468,3.661352,0.653323,-4.053937,-3.477130,-0.485584,4.004681,-0.216112,0.399419,-0.050629,-138.477299,188.495676,1214.611511,-10.531637,0
0.020833,-82.718404,-91.111286,196.242993,6.592488,2.329998,2.625709,-4.497970,-2.065642,-2.395079,4.360466,-0.201500,0.393931,-0.020755,-71.974500,188.495655,1215.481082,-11.276316,0
0.021875,-15.672884,-145.777377,180.066857,6.287118,0.835331,3.558326,-3.781547,-0.617397,-3.419072,3.823231,-0.201500,0.411961,-0.054364,-13.275601,188.495691,1215.578888,-11.425338,0
0.022917,47.743036,-187.214877,131.021402,5.359698,-1.049867,4.348074,-2.703181,1.264588,-4.216444,2.723856,-0.194194,0.409936,-0.050629,42.584488,188.420269,1217.647873,-12.258136,0
0.023958,101.676626,-194.801685,55.372727,3.968568,-2.665244,4.280608,-1.050185,2.966460,-4.275197,1.154846,-0.124787,0.400595,-0.043161,93.897956,188.495725,1217.991007,-13.573943,0
0.025000,160.612259,-163.971218,-10.439773,2.701848,-3.826185,3.756755,0.490871,3.999346,-3.670874,-0.375028,-0.084604,0.400399,-0.005818,146.919235,188.495738,1218.422555,-14.443130,0
0.026042,181.834077,-109.776283,-72.829924,1.491678,-4.248668,2.459028,2.117749,4.536005,-2.470619,-1.904902,-0.062686,0.399941,-0.050629,164.608075,188.495602,1218.641105,-14.637428,0
0.027083,186.178255,-30.223530,-131.834659,0.394608,-4.291271,0.998589,3.475967,4.517626,-0.993384,-3.224863,-0.040768,0.404775,-0.080503,174.210265,188.495685,1219.062788,-14.217292,0
0.028125,154.941009,39.217507,-170.403788,-0.329232,-3.556363,-0.473755,3.934926,3.859667,0.441885,-3.794119,-0.048074,0.420649,-0.061832,141.694015,188.495682,1218.471552,-14.761671,0
0.029167,82.598540,91.576145,-195.935985,-0.849492,-2.207258,-2.386613,4.408810,2.462882,2.342987,-4.135672,-0.059033,0.397459,-0.028224,77.396667,188.495682,1218.319678,-14.640870,0
0.030208,15.530335,146.133507,-180.141478,-0.544122,-0.655786,-3.386696,3.722238,0.981555,3.387964,-3.605553,-0.059033,0.398831,-0.050629,18.539428,188.495660,1217.499018,-14.359792,0
0.031250,-47.545310,187.063610,-131.034470,0.360678,1.190359,-4.136758,2.602827,-0.878375,4.155958,-2.545315,-0.059033,0.406474,-0.050629,-37.026601,188.495624,1217.314260,-14.603240,0
0.032292,-102.011998,195.169896,-55.385796,1.808358,2.851889,-4.120884,0.972218,-2.572896,4.239892,-0.990536,-0.110175,0.399811,-0.054364,-88.713300,188.495709,1216.510056,-14.723086,0
0.033333,-160.698095,163.735384,10.709849,3.063768,3.934724,-3.549408,-0.598689,-3.624160,3.694322,0.546454,-0.135746,0.397786,-0.031958,-142.458418,188.495691,1216.552715,-14.118922,0
0.034375,-182.589121,109.818310,73.050758,4.262628,4.389159,-2.267555,-2.210641,-4.168171,2.481478,2.065655,-0.161317,0.397655,-0.054364,-159.344248,188.495875,1216.025731,-13.072720,0
0.035417,-186.184694,30.422608,131.883144,5.337078,4.403360,-0.819022,-3.505426,-4.146117,0.966472,3.389174,-0.230724,0.396022,-0.054364,-168.595828,188.420271,1215.083597,-13.064995,0
0.036458,-155.185640,-38.873457,170.563069,6.128778,3.711056,0.633480,-4.046475,-3.554321,-0.401650,3.947756,-0.186888,0.409413,-0.020755,-137.798699,188.495723,1214.969090,-11.227547,0
0.037500,-83.070022,-91.413308,195.664395,6.581178,2.315797,2.550306,-4.438268,-2.076669,-2.369899,4.275078,-0.190541,0.393213,-0.054364,-72.415590,188.495731,1213.808858,-10.894951,0
0.038542,-16.013159,-145.946509,180.300758,6.332358,0.814029,3.514672,-3.789010,-0.646803,-3.419072,3.741401,-0.197847,0.419082,-0.050629,-13.875031,188.495711,1213.077361,-11.051614,0
0.039583,47.550214,-186.598751,131.403031,5.371008,-1.014364,4.252828,-2.703181,1.165342,-4.111526,2.695394,-0.179582,0.399157,-0.046895,42.697588,188.420278,1211.225738,-10.086310,0
0.040625,101.790051,-195.019141,55.446591,3.957258,-2.647492,4.229017,-1.072573,2.907648,-4.250017,1.226003,-0.164970,0.397916,-0.020755,93.615206,188.495761,1210.895620,-8.813944,0
0.041667,160.476149,-163.500063,-10.772159,2.713158,-3.744528,3.721038,0.509528,3.966264,-3.658284,-0.339450,-0.102869,0.399811,-0.028224,146.998405,188.495723,1210.294163,-8.152405,0
0.042708,182.140325,-109.570907,-72.829924,1.502988,-4.223816,2.427280,2.076703,4.484545,-2.483210,-1.883555,-0.102869,0.398765,-0.069301,164.370565,188.495658,1209.737752,-7.666135,0
0.043750,185.713212,-29.897345,-131.625379,0.405918,-4.266419,1.002558,3.405071,4.499248,-0.968203,-3.182169,-0.080951,0.397002,-0.046895,173.079265,188.420247,1208.910287,-7.587029,0
0.044792,154.736844,39.386639,-170.428410,-0.363162,-3.531511,-0.445975,3.961045,3.855991,0.433492,-3.801235,-0.033462,0.400203,-0.050629,141.637465,188.495718,1208.904633,-7.464973,0
0.045833,82.609883,91.878167,-195.529735,-0.872112,-2.182406,-2.374707,4.393884,2.503315,2.292627,-4.114325,-0.037115,0.375902,-0.046895,77.769897,188.495723,1208.504796,-6.486488,0
0.046875,16.346995,146.073102,-180.178410,-0.498882,-0.691289,-3.347010,3.729700,0.959500,3.371177,-3.598437,-0.040768,0.413333,-0.069301,19.308508,188.495731,1208.264669,-6.899203,0
0.047917,-47.386515,186.761587,-131.219129,0.383298,1.176157,-4.132789,2.565513,-0.834266,4.143368,-2.538199,-0.062686,0.402620,-0.065566,-37.343281,188.420396,1207.871078,-6.535333,0
0.048958,-102.046025,195.145735,-55.213447,1.830978,2.848339,-4.120884,0.979681,-2.554517,4.252482,-0.976304,-0.099216,0.400595,-0.017021,-88.792470,188.495769,1207.815560,-6.446570,0
0.050000,-160.743465,163.759546,11.091477,3.086388,3.948925,-3.537502,-0.628540,-3.598430,3.690126,0.553570,-0.124787,0.395630,-0.009553,-142.220908,188.420294,1207.545439,-6.306646,0
0.051042,-182.362271,109.576691,73.124621,4.228698,4.374958,-2.243744,-2.173327,-4.179198,2.439511,2.108349,-0.172276,0.396414,-0.050629,-159.706168,188.493485,1207.502203,-7.130446,0
0.052083,-186.388859,29.903130,132.030872,5.359698,4.438863,-0.819022,-3.561397,-4.127738,0.958079,3.396289,-0.197847,0.378057,-0.031958,-168.686308,188.419614,1207.388411,-7.194784,0
0.053125,-155.026845,-39.175480,170.587690,6.128778,3.728808,0.637448,-4.012892,-3.510212,-0.447814,3.979776,-0.201500,0.415097,-0.035692,-138.613019,188.495702,1207.413841,-8.070023,0
0.054167,-83.206132,-91.220014,195.885985,6.649038,2.290945,2.562211,-4.464388,-2.076669,-2.319539,4.317772,-0.216112,0.397198,-0.065566,-73.026330,188.494992,1207.648397,-7.633929,0
0.055208,-16.568941,-145.849862,180.029925,6.321048,0.824680,3.494829,-3.792741,-0.617397,-3.410679,3.766305,-0.186888,0.407127,-0.024490,-14.259571,188.495075,1207.733085,-7.927344,0
0.056250,47.209939,-186.743722,131.452273,5.416248,-1.042766,4.252828,-2.665868,1.191073,-4.149297,2.695394,-0.223418,0.401313,-0.084238,42.346978,188.419638,1208.270083,-8.404909,0
0.057292,101.892134,-194.680876,55.003409,3.912018,-2.693646,4.272671,-1.031528,2.922351,-4.216444,1.183309,-0.132093,0.398439,-0.054364,93.943196,188.495761,1207.699883,-8.932488,0
0.058333,160.271984,-163.500063,-11.203030,2.679228,-3.797782,3.717069,0.561767,3.922155,-3.612120,-0.371470,-0.139399,0.395499,-0.054364,146.579935,188.495179,1206.773333,-9.266451,0
0.059375,181.686625,-109.244723,-73.051515,1.491678,-4.177662,2.391562,2.035658,4.499248,-2.458029,-1.872882,-0.110175,0.395826,-0.035692,164.449735,188.494846,1206.570560,-9.317686,0
0.060417,185.860665,-29.607404,-131.576137,0.405918,-4.241567,0.962872,3.397608,4.469842,-1.014367,-3.164380,-0.059033,0.400791,-0.005818,173.870965,188.419520,1206.218868,-8.671761,0
0.061458,154.612076,39.543691,-170.342235,-0.351852,-3.506660,-0.430101,3.890149,3.844964,0.425099,-3.751425,-0.015197,0.379037,-0.061832,141.897595,188.494733,1205.507040,-8.388970,0
0.062500,83.313118,91.793601,-195.332766,-0.838182,-2.189506,-2.315178,4.349108,2.422449,2.288430,-4.075189,-0.040768,0.407715,-0.028224,78.380637,188.493818,1204.591347,-9.351981,0
0.063542,16.653243,146.061022,-180.079925,-0.555432,-0.680638,-3.295418,3.651342,0.985231,3.320817,-3.591322,-0.051727,0.410916,-0.039427,19.172788,188.495472,1204.054504,-8.823304,0
0.064583,-47.273090,186.483726,-131.292993,0.360678,1.137104,-4.029606,2.625215,-0.793833,4.076221,-2.516852,-0.073645,0.405625,-0.058098,-37.218871,188.420294,1202.919418,-8.446576,0
0.065625,-102.080053,195.242382,-54.893371,1.842288,2.816386,-4.025638,0.968487,-2.514084,4.193729,-0.976304,-0.117481,0.396871,-0.050629,-88.656750,188.495624,1201.958401,-8.111991,0
0.066667,-160.210368,163.360876,11.350000,3.086388,3.888570,-3.549408,-0.594957,-3.528591,3.614585,0.496644,-0.146705,0.393474,-0.043161,-142.107808,188.495642,1200.274972,-7.473217,0
0.067708,-182.509724,109.383397,73.235417,4.228698,4.325254,-2.243744,-2.158401,-4.087305,2.401741,2.054981,-0.175929,0.391580,-0.035692,-159.174598,188.495664,1198.729347,-7.053256,0
0.068750,-185.878446,29.818563,131.624622,5.359698,4.367858,-0.826959,-3.475575,-4.061574,0.970669,3.364269,-0.219765,0.406931,-0.058098,-168.132118,188.420349,1197.522198,-6.859236,0
0.069792,-155.038187,-38.921781,170.575379,6.140088,3.647151,0.593794,-3.990504,-3.535942,-0.389060,3.894388,-0.241683,0.402881,-0.043161,-138.036209,188.495617,1196.685033,-5.708220,0
0.070833,-84.000107,-91.401228,194.962690,6.649038,2.312247,2.522526,-4.371104,-2.087697,-2.294358,4.232383,-0.230724,0.413464,-0.035692,-73.569210,188.495758,1195.486029,-5.499360,0
0.071875,-17.056669,-145.970671,180.251516,6.309738,0.849532,3.467049,-3.721845,-0.646803,-3.351925,3.737843,-0.201500,0.406996,-0.043161,-14.293501,188.495689,1194.753741,-5.043470,0
0.072917,47.357391,-186.043030,131.513826,5.427558,-1.025015,4.185362,-2.602434,1.157991,-4.086346,2.642026,-0.223418,0.402750,-0.043161,43.059508,188.418516,1193.339004,-4.989499,0
0.073958,101.892134,-195.091627,54.794129,3.934638,-2.654593,4.201237,-1.016602,2.914999,-4.149297,1.158404,-0.121134,0.395826,-0.054364,93.683066,188.490526,1192.493841,-5.298164,0
0.075000,160.022449,-163.149716,-11.473864,2.645298,-3.705475,3.681352,0.513259,3.903776,-3.649890,-0.367912,-0.106522,0.393409,-0.061832,146.715655,188.495658,1192.555405,-4.830080,0
0.076042,182.265092,-109.075590,-73.113068,1.514298,-4.152810,2.419342,2.054315,4.444111,-2.441243,-1.858650,-0.073645,0.392102,-0.050629,164.291395,188.495669,1191.878825,-4.679991,0
0.077083,185.429650,-29.389947,-131.699243,0.405918,-4.238017,1.010495,3.330444,4.436760,-0.989187,-3.146591,-0.033462,0.377992,-0.035692,172.751275,188.420300,1191.186629,-4.823745,0
0.078125,154.929666,39.060455,-170.576137,-0.317922,-3.549263,-0.410258,3.901343,3.841288,0.441885,-3.719404,-0.055380,0.402750,-0.017021,141.999385,188.495769,1190.944363,-5.071609,0
0.079167,83.812188,91.841924,-194.901895,-0.815562,-2.164654,-2.358833,4.334182,2.422449,2.271643,-4.085862,-0.055380,0.413268,-0.035692,78.640767,188.495729,1190.932781,-4.993834,0
0.080208,17.118285,146.205992,-180.178410,-0.578052,-0.645135,-3.303355,3.681193,0.959500,3.350193,-3.584206,-0.051727,0.411243,-0.024490,19.206718,188.495698,1191.175018,-5.638510,0
0.081250,-47.533968,186.447484,-130.972917,0.360678,1.179708,-4.057386,2.572976,-0.834266,4.067828,-2.491947,-0.084604,0.403600,-0.069301,-37.920091,188.420197,1190.953376,-6.151569,0
0.082292,-102.136765,195.242382,-54.327084,1.842288,2.809285,-4.061355,0.946098,-2.558193,4.210515,-0.937168,-0.113828,0.393801,-0.054364,-88.905570,188.495765,1191.264985,-6.802029,0
0.083333,-160.176340,163.481685,11.830114,3.052458,3.916972,-3.505753,-0.621077,-3.550645,3.543241,0.585590,-0.132093,0.390143,-0.073035,-142.017328,188.412158,1190.842561,-8.329258,0
0.084375,-182.158106,109.045132,73.346212,4.262628,4.332355,-2.211995,-2.177058,-4.102008,2.384954,2.076328,-0.201500,0.391384,-0.031958,-159.593068,188.495300,1190.866591,-8.662803,0
0.085417,-185.912474,29.866887,131.993940,5.359698,4.435313,-0.811085,-3.516620,-4.035844,0.941292,3.374942,-0.216112,0.369173,-0.065566,-168.471418,188.419981,1190.682211,-9.119553,0
0.086458,-155.151612,-38.583515,170.735417,6.106158,3.686204,0.605700,-3.979310,-3.521239,-0.431027,3.905062,-0.201500,0.406735,-0.054364,-138.907079,188.495175,1190.802649,-9.850108,0
0.087500,-84.351724,-91.207933,195.282766,6.603798,2.312247,2.546337,-4.397223,-2.072994,-2.340522,4.282193,-0.212459,0.416991,-0.061832,-73.671000,188.495323,1191.703684,-10.572694,0
0.088542,-17.396944,-145.922347,180.079167,6.275808,0.799828,3.482923,-3.721845,-0.639451,-3.372908,3.734285,-0.212459,0.412549,-0.024490,-14.022061,188.495240,1191.823267,-10.895226,0
0.089583,47.470816,-186.550428,131.255303,5.393628,-1.053417,4.221079,-2.594972,1.183721,-4.119920,2.631352,-0.186888,0.403077,-0.050629,42.935098,188.419931,1192.296305,-11.246582,0
0.090625,102.039586,-194.922494,54.510985,3.934638,-2.679445,4.213142,-1.035259,2.933378,-4.182870,1.119267,-0.183235,0.394846,-0.043161,94.022366,188.495269,1192.614265,-11.669142,0
0.091667,160.011106,-163.487982,-11.793939,2.679228,-3.751629,3.669446,0.490871,3.903776,-3.607923,-0.382144,-0.124787,0.395761,-0.046895,146.546005,188.495356,1192.284420,-12.069049,0
0.092708,181.811392,-108.870215,-73.420834,1.491678,-4.149260,2.427280,2.054315,4.447787,-2.437046,-1.869324,-0.091910,0.398439,-0.061832,164.415805,188.419808,1192.233361,-12.137060,0
0.093750,185.690527,-29.716132,-131.920834,0.394608,-4.234467,1.038275,3.393877,4.473517,-1.014367,-3.114570,-0.055380,0.396871,-0.080503,173.803105,188.419762,1192.567934,-11.544395,0
0.094792,155.122489,38.710109,-170.551516,-0.351852,-3.556363,-0.457881,3.901343,3.848640,0.408312,-3.740751,-0.044421,0.397916,-0.046895,142.293445,188.495372,1192.825862,-11.313916,0
0.095833,84.447368,91.817763,-194.864963,-0.815562,-2.171755,-2.331052,4.315525,2.437152,2.233873,-4.117883,-0.044421,0.413006,-0.046895,78.697317,188.495227,1193.128344,-10.930489,0
0.096875,17.004860,146.205992,-180.104546,-0.555432,-0.684188,-3.279544,3.640147,0.988906,3.325013,-3.573532,-0.066339,0.413398,-0.069301,18.629908,188.419902,1192.793884,-10.434338,0
0.097917,-47.840215,186.266270,-131.096023,0.383298,1.144205,-4.057386,2.524468,-0.812211,4.034254,-2.467042,-0.073645,0.403469,-0.073035,-37.750441,188.547842,1192.133796,-10.270167,0
0.098958,-102.193478,195.387353,-54.093182,1.819668,2.741830,-4.057386,0.979681,-2.521435,4.176942,-0.997651,-0.099216,0.392821,-0.035692,-88.860330,188.470324,1191.764785,-9.267767,0
0.100000,-159.915463,163.372957,11.928599,3.109008,3.849517,-3.509722,-0.550181,-3.513888,3.581012,0.521549,-0.117481,0.395891,0.005384,-142.062568,188.622100,1191.664660,-8.058204,0
0.101042,-182.282874,109.371316,73.321591,4.296558,4.325254,-2.283429,-2.109894,-4.102008,2.435314,1.998056,-0.157664,0.395434,-0.028224,-159.084118,188.480915,1191.705633,-6.799946,0
0.102083,-185.708309,30.446770,131.920076,5.404938,4.374958,-0.854739,-3.427067,-4.061574,0.995849,3.293112,-0.216112,0.402620,-0.065566,-167.996398,188.481404,1191.395667,-5.582855,0
0.103125,-155.662025,-38.039875,170.870834,6.106158,3.693305,0.546171,-3.953190,-3.543294,-0.368076,3.876599,-0.245336,0.407846,-0.046895,-138.364199,188.487883,1191.283423,-4.790972,0
0.104167,-85.168384,-91.558279,194.617993,6.592488,2.315797,2.455060,-4.404686,-2.106075,-2.252391,4.257288,-0.168623,0.412549,-0.043161,-73.580520,188.489519,1190.620761,-3.684461,0
0.105208,-16.954586,-146.018995,180.411554,6.298428,0.867283,3.399583,-3.736771,-0.624748,-3.335138,3.727169,-0.216112,0.411896,-0.024490,-13.580971,188.491038,1190.231234,-3.536394,0
0.106250,48.015256,-185.861816,131.316856,5.359698,-0.975311,4.197268,-2.613629,1.139612,-4.048576,2.645584,-0.201500,0.400137,-0.028224,43.591077,188.495644,1189.261255,-2.647120,0
0.107292,101.994216,-195.490296,54.129356,3.912018,-2.619090,4.244891,-1.038990,2.870890,-4.199657,1.172635,-0.146705,0.393670,-0.043161,93.852716,188.495656,1189.350241,-1.385848,0
0.108333,159.704859,-163.137636,-11.867803,2.713158,-3.701925,3.693258,0.453558,3.878046,-3.586940,-0.314545,-0.135746,0.395956,-0.058098,146.726965,188.495598,1188.706847,-0.552443,0
0.109375,182.128982,-109.172237,-73.211553,1.514298,-4.177662,2.447122,2.009539,4.433084,-2.495800,-1.826630,-0.095563,0.397851,-0.069301,164.336635,188.420209,1188.836976,0.400703,0
0.110417,185.202800,-30.440986,-131.945455,0.383298,-4.230916,1.034307,3.341638,4.466166,-0.984990,-3.086107,-0.051727,0.387399,-0.065566,172.638175,188.420316,1188.354951,0.119270,0
