1-Time,2-VGERA,3-VGERB,4-VGERC,5-VN,6-IGERAN,7-IGERBN,8-IGERCN,9-IGERAT,10-IGERBT,11-IGERCT,12-IN,13-IFD,14-IFAULT,15-VFAULT,16-Speed (rad/s),17-Active Power,18-Reactive Power,19-FAULT 
0.000000,-70.514433,-109.770273,197.275253,4.153690,5.337411,1.308642,-6.078638,-5.097278,-1.070875,6.306038,-0.276811,0.626115,-0.067423,-46.693062,188.721472,1603.624620,900.949715,0
0.001042,-0.737394,-155.892927,171.258524,3.624503,3.484327,3.412526,-6.203541,-3.417977,-3.125434,6.412018,-0.236703,0.622601,-0.059989,-161.449165,188.570655,1604.536747,900.302330,0
0.002083,69.457742,-186.347738,121.691855,2.611166,0.912026,5.500319,-5.579026,-0.933482,-5.264542,5.813989,-0.243995,0.630800,-0.071140,-258.642281,188.570819,1603.763084,899.175526,0
0.003125,123.573085,-187.240359,39.279218,1.091161,-1.465792,6.421522,-4.099116,1.384171,-6.270683,4.371906,-0.233057,0.626528,-0.067423,-315.001454,188.495356,1603.731941,898.551284,0
0.004167,171.157070,-159.463410,-33.339172,-0.304993,-3.836272,6.658863,-2.009830,3.607522,-6.558153,2.312869,-0.174718,0.625012,-0.074856,-332.249208,188.721529,1603.154904,898.764961,0
0.005208,179.496415,-99.035333,-98.800228,-1.599812,-5.571932,5.612955,0.552573,5.341228,-5.585831,-0.257143,-0.109087,0.621429,-0.048839,-273.593336,188.570678,1603.230235,898.668466,0
0.006250,187.044765,-15.892407,-146.130989,-2.534334,-6.566359,4.076275,2.804611,6.179065,-4.080846,-2.596270,-0.076271,0.638379,-0.019106,-199.310911,188.570749,1602.733939,898.850287,0
0.007292,151.596900,56.926656,-171.394315,-2.995965,-6.313166,1.626437,4.704650,6.070255,-1.759955,-4.564467,-0.021578,0.629146,-0.082290,-87.763430,188.495226,1602.310125,898.448424,0
0.008333,71.536929,109.591281,-196.973583,-3.480115,-5.311400,-1.213605,6.309463,5.080084,1.068233,-6.237435,-0.017932,0.637070,-0.082290,45.557650,188.721433,1602.562875,898.525718,0
0.009375,2.166687,155.619975,-171.357859,-3.086040,-3.487672,-3.269216,6.400302,3.397156,3.198886,-6.350985,0.018530,0.627699,-0.026539,160.538919,188.646038,1603.304875,896.630171,0
0.010417,-68.412646,186.286197,-122.167892,-2.095221,-0.852990,-5.405282,5.790927,0.941677,5.325312,-5.779451,-0.003348,0.646371,-0.100873,258.475085,188.570769,1603.397847,896.230555,0
0.011458,-123.307684,187.460698,-39.876772,-0.552697,1.532167,-6.322463,4.284522,-1.408619,6.322998,-4.303303,-0.043455,0.626321,-0.089723,311.040203,188.497339,1603.447229,895.460260,0
0.012500,-171.275867,159.143478,33.215534,0.877234,3.932002,-6.563826,2.229300,-3.642851,6.542828,-2.225340,-0.068979,0.624461,-0.089723,318.707122,188.721835,1602.404065,895.183153,0
0.013542,-179.570012,98.985537,99.186959,2.172053,5.634638,-5.513895,-0.333102,-5.235104,5.642373,0.333316,-0.130964,0.624806,-0.086006,272.401633,188.570959,1600.798168,895.566481,0
0.014583,-187.073162,14.926500,146.177474,3.084057,6.552006,-4.041579,-2.615420,-6.156362,4.133161,2.664873,-0.178364,0.603309,-0.078573,198.637090,188.571089,1598.644642,896.352709,0
0.015625,-151.512297,-57.493233,171.100552,3.590725,6.287804,-1.623923,-4.466255,-6.014909,1.884138,4.564940,-0.222118,0.587255,-0.071140,88.069084,188.571060,1596.925624,896.692083,0
0.016667,-70.503133,-109.758528,197.007916,4.131172,5.366766,1.248301,-6.074853,-5.108159,-1.020145,6.283328,-0.236703,0.628940,-0.074856,-45.038088,188.721817,1596.240862,897.211340,0
0.017708,-1.889986,-155.493597,171.768894,3.635763,3.587072,3.303912,-6.211111,-3.494144,-3.045111,6.449868,-0.284103,0.633418,-0.063706,-158.983592,188.570919,1596.202732,898.290171,0
0.018750,68.022652,-186.265523,122.749051,2.689981,1.000094,5.468137,-5.613091,-1.035038,-5.201129,5.836699,-0.207533,0.630662,-0.033973,-257.471416,188.571047,1595.657238,898.986105,0
0.019792,123.301887,-187.381299,41.454367,1.102420,-1.443775,6.393363,-4.065051,1.358782,-6.274911,4.421111,-0.200241,0.627975,-0.078573,-314.247147,188.571008,1596.278020,899.059152,0
0.020833,171.609067,-159.334215,-31.832365,-0.372548,-3.810585,6.634726,-2.021185,3.556744,-6.520105,2.309084,-0.167425,0.627424,-0.082290,-332.373049,188.721873,1595.639059,898.575582,0
0.021875,179.609415,-99.916209,-98.423526,-1.599812,-5.531568,5.588818,0.492014,5.279569,-5.598513,-0.219293,-0.123671,0.598761,-0.100873,-273.345653,188.571015,1595.102109,898.818124,0
0.022917,186.830067,-15.269921,-145.681377,-2.489297,-6.478292,4.011911,2.785686,6.208081,-4.118893,-2.596270,-0.054394,0.584568,-0.115740,-197.757262,188.571143,1595.171168,899.407989,0
0.023958,151.438701,57.889746,-170.944703,-3.018484,-6.250785,1.678732,4.655446,6.073882,-1.798003,-4.466057,-0.028871,0.590287,-0.056273,-86.491240,188.646418,1593.654650,900.445284,0
0.025000,69.954939,109.896651,-196.584730,-3.547671,-5.278374,-1.193491,6.286754,5.090965,1.051323,-6.154165,0.007591,0.609716,-0.097156,46.266924,188.721949,1591.967203,901.014210,0
0.026042,0.968895,155.373330,-171.771016,-3.097299,-3.517027,-3.233012,6.381377,3.462442,3.165066,-6.332060,0.011237,0.609234,-0.059989,159.852162,188.570970,1591.319981,902.176979,0
0.027083,-68.333547,185.886866,-122.751173,-2.106481,-0.944727,-5.369077,5.806067,0.970693,5.266127,-5.756741,-0.010640,0.633005,-0.074856,257.315478,188.571073,1590.428697,902.149275,0
0.028125,-123.228584,187.507678,-41.723826,-0.541438,1.469786,-6.326485,4.280737,-1.325198,6.301861,-4.329798,-0.003348,0.631351,-0.071140,310.905103,188.571055,1590.112751,902.549677,0
0.029167,-171.626164,159.331399,30.943171,0.832197,3.836596,-6.539690,2.278505,-3.599327,6.555510,-2.270760,-0.087210,0.633831,-0.067423,318.707122,188.721898,1590.167409,902.643280,0
0.030208,-179.807310,100.688563,98.445707,2.081979,5.528223,-5.529986,-0.287683,-5.227850,5.663511,0.303036,-0.105440,0.605307,-0.048839,273.392365,188.571017,1590.702648,902.584116,0
0.031250,-186.869764,16.523821,145.861530,3.061538,6.552006,-4.005374,-2.558646,-6.134600,4.145843,2.615668,-0.163779,0.617984,-0.067423,198.918548,188.571109,1590.287490,902.354779,0
0.032292,-151.772196,-57.234842,171.137007,3.568207,6.280465,-1.623923,-4.443545,-6.058433,1.879910,4.534661,-0.189302,0.633900,-0.071140,87.089610,188.646438,1590.467849,902.636060,0
0.033333,-70.390133,-109.699803,196.667669,4.153690,5.374105,1.228187,-6.071068,-5.031992,-0.960961,6.203843,-0.225764,0.584637,-0.086006,-45.995046,188.721822,1588.558237,902.204636,0
0.034389,0.946295,-156.315748,170.505120,3.568207,3.458640,3.336094,-6.142982,-3.407096,-3.104296,6.374168,-0.265872,0.645544,-0.078573,-162.676322,188.571035,1587.413482,901.609384,0
0.035427,69.672441,-186.089348,121.691855,2.689981,0.978077,5.423887,-5.579026,-0.944363,-5.192674,5.825344,-0.247641,0.612955,-0.056273,-258.259498,188.570931,1587.054638,901.270474,0
0.036459,122.940289,-187.498749,41.442215,1.147457,-1.377725,6.409454,-4.148320,1.260853,-6.262228,4.440036,-0.207533,0.631489,-0.074856,-314.112047,188.570991,1586.187884,902.178744,0
0.037501,171.383069,-159.228510,-30.519985,-0.248696,-3.726187,6.594499,-2.130948,3.487831,-6.494740,2.392353,-0.174718,0.632385,-0.030256,-332.418083,188.721896,1585.166974,902.761829,0
0.038543,179.575515,-101.677961,-97.888852,-1.532256,-5.469187,5.604909,0.431455,5.214283,-5.632333,-0.090603,-0.094502,0.629422,-0.067423,-275.237052,188.570986,1584.441084,903.886735,0
0.039584,186.750967,-17.842079,-145.815046,-2.500556,-6.503978,4.120525,2.702418,6.153676,-4.156940,-2.524355,-0.065333,0.643133,-0.074856,-199.795019,188.571060,1583.860054,903.842105,0
0.040625,152.896391,56.503835,-170.677366,-3.052262,-6.250785,1.735050,4.568392,6.063001,-1.878325,-4.428207,-0.010640,0.617847,-0.052556,-88.056147,188.646475,1583.717119,904.051434,0
0.041672,71.265731,110.025846,-196.475365,-3.468856,-5.296722,-1.141196,6.207270,5.109100,1.017503,-6.120100,0.036760,0.629215,-0.030256,47.201365,188.721759,1583.544808,904.260526,0
0.042715,0.573398,155.255880,-171.576590,-3.007225,-3.476663,-3.208875,6.347313,3.451561,3.063606,-6.271500,-0.003348,0.633763,-0.041406,161.676010,188.571094,1581.691321,904.471567,0
0.043751,-68.616045,185.499281,-122.240802,-2.083962,-0.966744,-5.288623,5.798497,1.064995,5.190032,-5.752956,0.033114,0.634934,-0.037689,257.833361,188.495740,1580.047556,905.702017,0
0.044805,-123.477183,187.084857,-39.220581,-0.428845,1.480795,-6.294303,4.288307,-1.303436,6.272269,-4.352508,-0.028871,0.625219,-0.071140,311.119011,188.646485,1578.766305,906.834115,0
0.045838,-171.174167,158.673678,31.623665,0.843456,3.748529,-6.547735,2.339064,-3.497771,6.563965,-2.304825,-0.072625,0.629215,-0.071140,318.898514,188.721904,1577.231307,907.938951,0
0.046879,-179.536112,101.052659,98.542921,2.127016,5.480520,-5.586304,-0.174135,-5.198834,5.676193,0.197056,-0.127317,0.629284,-0.045123,274.439390,188.570709,1576.372853,909.081175,0
0.047929,-186.451666,16.664761,146.760754,3.084057,6.518981,-4.037556,-2.494302,-6.174497,4.221938,2.589173,-0.189302,0.633556,-0.056273,199.335106,188.493398,1576.711251,910.587251,0
0.048965,-153.071687,-56.201282,171.027642,3.523169,6.317160,-1.712423,-4.329997,-6.087449,1.981370,4.462746,-0.225764,0.630938,-0.059989,89.284983,188.721969,1576.410707,911.663129,0
0.050004,-72.943917,-109.981683,195.926418,4.153690,5.374105,1.135665,-6.018079,-5.140802,-0.880638,6.162208,-0.240349,0.637552,-0.052556,-45.060605,188.646422,1576.438336,912.975873,0
0.051045,-2.217684,-154.859366,172.777483,3.601985,3.638445,3.187253,-6.127842,-3.515906,-2.922514,6.393093,-0.251287,0.620878,-0.056273,-158.882267,188.571017,1576.108792,913.901641,0
0.052086,68.259950,-185.396393,122.688292,2.622425,1.084492,5.343432,-5.582811,-1.064054,-5.082760,5.829129,-0.258580,0.606065,-0.041406,-257.403866,188.495555,1574.597494,914.576289,0
0.053126,122.454392,-188.414860,41.101968,1.102420,-1.296996,6.296818,-4.189954,1.213702,-6.224181,4.477886,-0.203887,0.623496,-0.059989,-314.269663,188.721791,1574.123759,915.328850,0
0.054168,170.964972,-158.406359,-30.981748,-0.248696,-3.619773,6.570363,-2.233141,3.375394,-6.435555,2.449128,-0.192949,0.626184,-0.048839,-332.192916,188.646444,1571.769459,916.212008,0
0.055209,179.677214,-101.208160,-97.828094,-1.498478,-5.399467,5.685364,0.329262,5.159878,-5.657698,-0.052753,-0.134610,0.622463,-0.056273,-275.146985,188.570126,1570.914981,916.978474,0
0.056251,186.118172,-16.925968,-145.207462,-2.545593,-6.445267,4.168797,2.611579,6.092017,-4.161168,-2.365385,-0.065333,0.616055,-0.086006,-200.020185,188.495673,1568.157227,917.950395,0
0.057292,153.404888,56.210210,-170.665214,-2.962187,-6.305827,1.847687,4.492693,6.088390,-1.950192,-4.348723,-0.003348,0.631971,-0.056273,-90.341587,188.721962,1567.473014,919.064732,0
0.058335,73.842113,109.873161,-195.065771,-3.446337,-5.388459,-1.000401,6.169421,5.127235,0.865314,-6.059540,0.003945,0.638379,-0.082290,43.463602,188.646493,1566.061652,919.774285,0
0.059384,2.788183,155.373330,-172.172021,-2.995965,-3.597756,-3.108307,6.343528,3.538609,2.995967,-6.324490,-0.003348,0.643202,-0.093440,159.683287,188.511991,1566.694237,920.850791,0
0.060419,-67.350453,184.876796,-123.662548,-2.162777,-1.095175,-5.208168,5.832561,1.130281,5.101255,-5.790806,0.014883,0.644511,-0.074856,256.639978,188.496382,1566.077288,921.217136,0
0.061470,-123.251184,187.472443,-40.338535,-0.563957,1.337685,-6.266144,4.367790,-1.198253,6.255359,-4.375218,-0.003348,0.627837,-0.078573,311.051461,188.721065,1565.555911,921.991566,0
0.062501,-170.846470,158.520993,30.335587,0.787160,3.653123,-6.515553,2.403408,-3.399842,6.530145,-2.380525,-0.058040,0.630180,-0.033973,318.729639,188.570079,1564.123255,922.562579,0
0.063546,-179.581312,100.723798,98.506466,2.160794,5.447495,-5.630554,-0.102221,-5.108159,5.722695,0.091076,-0.127317,0.627630,-0.059989,273.527465,188.571140,1562.593209,924.240555,0
0.064586,-186.056169,16.183216,145.375463,3.072797,6.485956,-4.122033,-2.388324,-6.051179,4.289578,2.456698,-0.160133,0.587462,-0.052556,199.188748,188.495419,1559.586792,925.113998,0
0.065628,-153.003887,-57.105647,170.371452,3.601985,6.335507,-1.804945,-4.273223,-6.072941,2.049010,4.375691,-0.211179,0.603240,-0.045123,89.757832,188.721911,1557.938762,926.218897,0
0.066670,-73.090816,-110.005173,194.881374,4.086135,5.418139,0.994870,-5.965090,-5.137175,-0.753814,6.116788,-0.258580,0.625770,-0.097156,-42.966557,188.573287,1556.140661,927.131328,0
0.067710,-2.477582,-154.248626,173.433673,3.601985,3.777885,3.058526,-6.127842,-3.635597,-2.859102,6.377953,-0.262226,0.638930,-0.071140,-156.416694,188.570966,1555.600858,928.536299,0
0.068752,67.435056,-184.726927,124.377375,2.701241,1.231270,5.226773,-5.650940,-1.220015,-5.010893,5.897259,-0.236703,0.631971,-0.078573,-255.715117,188.495741,1555.095277,930.290551,0
0.069793,122.397893,-188.226940,43.313573,1.147457,-1.183243,6.248545,-4.231589,1.090384,-6.181906,4.591435,-0.218472,0.636863,-0.059989,-313.841847,188.646572,1554.521178,931.883140,0
0.070857,171.642967,-158.559044,-32.695134,-0.372548,-3.630781,6.582431,-2.153658,3.382648,-6.435555,2.452913,-0.138256,0.629697,-0.059989,-332.035300,188.571218,1554.540193,932.735741,0
0.071897,179.157418,-99.646074,-99.833120,-1.644849,-5.329747,5.641114,0.329262,5.116354,-5.640788,-0.052753,-0.134610,0.610268,-0.052556,-272.467504,188.571125,1553.197000,933.569580,0
0.072937,185.937373,-15.152471,-145.924411,-2.523075,-6.408572,4.176843,2.585085,6.110152,-4.178078,-2.365385,-0.061686,0.572442,-0.037689,-196.665204,188.495759,1553.008265,934.646406,0
0.073985,151.619500,59.393108,-170.446484,-3.063521,-6.217759,1.875846,4.473769,6.012223,-1.962875,-4.314658,-0.025225,0.631282,-0.059989,-84.689908,188.721962,1550.789046,935.594768,0
0.075029,70.180938,111.423502,-195.673355,-3.468856,-5.344425,-0.976264,6.124002,5.138116,0.869541,-6.021690,-0.006994,0.596281,-0.059989,48.518589,188.646701,1549.526209,937.110277,0
0.076059,0.844596,154.786080,-172.135566,-3.041003,-3.682154,-3.011762,6.332173,3.556744,2.890280,-6.279070,0.033114,0.649610,-0.041406,159.469379,188.571143,1547.433323,938.093951,0
0.077089,-68.073649,184.230820,-123.626093,-2.128999,-1.208929,-5.123691,5.851486,1.264480,4.991340,-5.817301,-0.010640,0.621981,-0.071140,256.212162,188.495772,1545.516293,940.122061,0
0.078133,-122.652288,188.259358,-42.781021,-0.552697,1.157881,-6.193735,4.485123,-1.060427,6.208856,-4.545542,-0.032517,0.636863,-0.041406,310.657420,188.721886,1545.357503,942.323650,0
0.079172,-170.982069,158.109918,28.160438,0.798419,3.550377,-6.467281,2.524526,-3.276524,6.496325,-2.550850,-0.079917,0.635347,-0.067423,318.864739,188.571170,1543.651556,943.969965,0
0.080214,-179.796010,103.119780,98.056854,2.127016,5.322733,-5.650668,0.018897,-5.061008,5.752288,-0.060323,-0.109087,0.631075,-0.074856,275.396347,188.571091,1543.302690,945.281028,0
0.081256,-185.389473,18.273827,145.460525,2.993982,6.390549,-4.158238,-2.252066,-6.004028,4.352990,2.278804,-0.171072,0.612335,-0.063706,199.560272,188.495756,1541.506584,946.459576,0
0.082302,-153.840082,-56.941217,170.225632,3.478132,6.284135,-1.917582,-4.136965,-6.033044,2.171607,4.299991,-0.189302,0.629697,-0.056273,89.037300,188.721931,1540.214882,947.621818,0
0.083340,-73.791411,-110.815578,193.945695,4.018579,5.429147,0.902347,-5.847757,-5.155310,-0.665037,5.995669,-0.247641,0.591251,-0.056273,-44.936763,188.495758,1538.148863,948.508801,0
0.084382,-1.053792,-153.849295,173.944043,3.635763,3.799901,2.949913,-6.097563,-3.664613,-2.706912,6.328748,-0.273164,0.626735,-0.067423,-157.711401,188.571102,1535.909889,949.781539,0
0.085425,68.960546,-183.857796,123.441696,2.678722,1.308329,5.134251,-5.643370,-1.274420,-4.900978,5.874549,-0.243995,0.590424,-0.067423,-256.278033,188.495598,1533.492186,950.834449,0
0.086464,122.217094,-188.802445,42.523714,1.147457,-1.043803,6.232454,-4.329997,1.014217,-6.097357,4.621715,-0.211179,0.631696,-0.071140,-314.280922,188.721820,1531.990370,951.813559,0
0.087506,170.659874,-157.901324,-28.490655,-0.214918,-3.388596,6.566340,-2.373184,3.150520,-6.410190,2.661088,-0.160133,0.638379,-0.059989,-332.226691,188.495698,1529.135424,953.417371,0
0.088543,180.106611,-104.191393,-96.734444,-1.509738,-5.204985,5.737659,0.064316,4.971274,-5.780295,0.189486,-0.112733,0.631213,-0.086006,-278.130441,188.571180,1528.787537,955.565754,0
0.089584,184.965579,-19.956180,-144.745698,-2.478038,-6.261793,4.269366,2.373128,5.954191,-4.296447,-2.138286,-0.079917,0.634865,-0.112023,-201.179792,188.495638,1525.850449,955.984749,0
0.090628,155.190276,55.129669,-170.252057,-2.984706,-6.250785,2.044800,4.337511,6.041239,-2.157339,-4.170828,-0.028871,0.646371,-0.078573,-91.523711,188.721944,1525.714865,956.980866,0
0.091667,76.768794,110.354707,-192.428858,-3.446337,-5.403136,-0.722833,6.025593,5.228791,0.628574,-5.862721,0.022176,0.627286,-0.100873,42.585452,188.552401,1523.516772,957.717800,0
0.092709,3.081981,153.188758,-174.906148,-3.119818,-3.814255,-2.798558,6.264044,3.683689,2.767682,-6.252575,0.000299,0.642237,-0.048839,156.530956,188.546842,1523.365948,958.565678,0
0.093751,-67.858950,182.621754,-124.488862,-2.196555,-1.304335,-4.986919,5.836346,1.351528,4.877198,-5.790806,0.029468,0.622670,-0.063706,255.232688,188.490552,1521.329059,958.856632,0
0.094794,-121.827393,189.292919,-42.124831,-0.485141,1.088161,-6.105236,4.515403,-0.955244,6.107397,-4.553112,-0.017932,0.627079,-0.078573,310.758745,188.720577,1519.503310,959.574302,0
0.095834,-169.750377,157.663607,28.330561,0.798419,3.407268,-6.447167,2.619149,-3.131444,6.483643,-2.577345,-0.065333,0.627906,-0.086006,318.853480,188.493679,1517.330538,960.204889,0
0.096876,-180.010709,103.530856,97.181933,2.127016,5.264021,-5.715031,0.136230,-4.999349,5.819928,-0.162518,-0.123671,0.635416,-0.067423,276.983771,188.569905,1516.638588,961.616239,0
0.097917,-184.801877,19.495308,144.622060,3.095316,6.339177,-4.278920,-2.146088,-5.945996,4.403720,2.191749,-0.163779,0.636519,-0.067423,201.766904,188.494719,1515.253308,961.883933,0
0.098958,-155.399472,-54.533490,170.152722,3.579466,6.276796,-2.038263,-4.068836,-6.116465,2.239247,4.201581,-0.207533,0.637276,-0.045123,94.385004,188.721110,1515.550179,962.602073,0
0.100000,-77.893284,-110.087388,192.208006,3.996060,5.473181,0.797756,-5.764488,-5.227850,-0.542439,5.935109,-0.254934,0.628595,-0.067423,-40.005617,188.562561,1515.039586,963.060567,0
0.101042,-4.003072,-153.015400,175.086301,3.647022,3.854944,2.869458,-6.021864,-3.719018,-2.673093,6.309823,-0.225764,0.617984,-0.052556,-154.637878,188.561535,1515.499876,962.598402,0
0.102083,67.050858,-182.601080,125.786968,2.656203,1.385388,5.033683,-5.647155,-1.390484,-4.765698,5.855624,-0.254934,0.628182,-0.074856,-254.262793,188.624108,1513.974147,962.586983,0
0.103125,121.584298,-189.201776,43.362179,1.136198,-0.955735,6.160045,-4.326212,0.927169,-6.059309,4.640640,-0.182010,0.627010,-0.041406,-314.168338,188.713436,1513.263573,963.053544,0
0.104167,169.642880,-157.701659,-27.664342,-0.203659,-3.282181,6.514045,-2.467807,3.048964,-6.372143,2.740573,-0.189302,0.624530,-0.067423,-332.012783,188.487429,1511.553813,963.622368,0
0.105209,179.937112,-103.733337,-96.770899,-1.520997,-5.138934,5.733636,0.011327,4.942258,-5.712655,0.250046,-0.134610,0.611439,-0.022822,-277.319842,188.551849,1510.225776,963.639868,0
0.106250,184.637881,-18.722954,-144.016598,-2.433000,-6.236107,4.349820,2.304999,5.921548,-4.326040,-2.070156,-0.087210,0.622670,-0.097156,-200.504293,188.488440,1508.723552,964.431442,0
0.107294,155.088577,55.634705,-169.656625,-2.995965,-6.250785,2.141345,4.273167,6.001342,-2.212297,-4.083773,-0.039809,0.627010,-0.089723,-92.919743,188.710798,1506.952836,965.053135,0
0.108335,77.763188,110.319472,-191.541786,-3.378782,-5.403136,-0.678583,5.991529,5.188894,0.531342,-5.790806,0.029468,0.632660,-0.063706,40.311271,188.564578,1505.222623,965.092673,0
0.109390,3.477478,153.811244,-173.836801,-3.041003,-3.770221,-2.846830,6.267829,3.680062,2.700043,-6.222295,0.003945,0.636105,-0.082290,156.530956,188.569123,1503.999310,965.373089,0
0.110429,-67.440853,182.962359,-124.124312,-2.196555,-1.293327,-4.990941,5.798497,1.366036,4.860288,-5.764311,0.003945,0.629697,-0.059989,255.559179,188.492349,1503.556293,965.303809,0
