1-Time,2-VGERA,3-VGERB,4-VGERC,5-VN,6-IGERAN,7-IGERBN,8-IGERCN,9-IGERAT,10-IGERBT,11-IGERCT,12-IN,13-IFD,14-IFAULT,15-VFAULT,16-Speed (rad/s),17-FAULT 
0.000000,-149.866007,-60.123767,171.301705,6.151398,4.953654,-2.331696,-2.749814,-4.951106,2.419023,2.600875,-0.208806,0.566389,-0.017021,14.558308,188.423711,0
0.001042,-77.205949,-121.736378,180.645455,6.343668,4.669631,-0.251523,-4.485461,-4.612937,0.408639,4.333012,-0.216112,0.550581,0.009119,0.285088,188.440809,0
0.002083,3.155667,-158.860996,171.781819,6.140088,3.881469,1.340991,-5.190690,-3.863084,-1.223035,5.094391,-0.234377,0.560706,-0.050629,-6.704491,188.433346,0
0.003125,74.851613,-176.885704,124.139773,5.280528,2.085029,3.093517,-5.096659,-2.161212,-2.919171,4.983991,-0.252642,0.560445,-0.054364,-16.781701,188.269136,0
0.004167,126.993087,-189.631058,41.523296,3.719748,0.281487,4.350765,-4.473707,-0.282903,-4.276885,4.390116,-0.208806,0.562862,-0.009553,-18.048421,188.493841,0
0.005208,169.153162,-154.052796,-29.545833,2.362548,-1.504303,4.868903,-3.106346,1.407942,-4.820776,3.145261,-0.197847,0.567435,-0.017021,-20.152081,188.419956,0
0.006250,178.045682,-103.300918,-101.230493,0.982728,-3.364648,4.625073,-0.994577,3.345062,-4.695883,1.021013,-0.132093,0.545877,-0.050629,-20.615791,188.494728,0
0.007293,174.960522,-17.695632,-148.712500,0.111858,-4.440383,3.775479,0.964392,4.440436,-3.865945,-0.848173,-0.102869,0.552214,-0.024490,-15.571531,188.268820,0
0.008333,150.211186,59.114755,-171.253220,-0.306612,-4.873517,2.434415,2.711793,4.910932,-2.536432,-2.614573,-0.080951,0.563254,0.001650,-8.367061,188.494623,0
0.009375,77.755293,121.319330,-180.904735,-0.544122,-4.585944,0.361862,4.439603,4.594817,-0.517991,-4.358131,-0.040768,0.548621,-0.039427,4.187038,188.419422,0
0.010417,-2.765118,158.878861,-171.794887,-0.351852,-3.769380,-1.238272,5.054720,3.793504,1.174116,-5.092862,-0.022503,0.544636,-0.039427,11.923078,188.494044,0
0.011458,-74.858051,177.555938,-123.414205,0.575568,-1.972939,-2.964129,4.968525,2.076928,2.842049,-4.917745,-0.033462,0.550123,0.001650,19.806148,188.344238,0
0.012500,-126.908786,190.240888,-40.120644,2.136348,-0.094842,-4.209947,4.286804,0.165538,4.183648,-4.301028,-0.062686,0.552018,-0.028224,22.328278,188.438965,0
0.013542,-169.136916,154.493493,31.428599,3.459618,1.634143,-4.689987,2.899854,-1.584119,4.687251,-3.018104,-0.088257,0.554696,-0.054364,26.060578,188.442734,0
0.014583,-177.791243,102.497282,102.153031,4.771578,3.466087,-4.491875,0.858608,-3.414642,4.493867,-0.924311,-0.139399,0.551169,-0.024490,25.201018,188.514930,0
0.015625,-175.772278,16.058414,148.367046,5.698998,4.545372,-3.634661,-1.108198,-4.462231,3.663929,0.979137,-0.175929,0.575992,-0.035692,20.258548,188.289341,0
0.016667,-150.262995,-60.425790,170.944697,6.140088,4.971405,-2.236450,-2.816419,-4.929051,2.338446,2.718888,-0.190541,0.552998,-0.024490,15.033328,188.438846,0
0.017708,-76.343919,-120.999442,181.827273,6.388908,4.651880,-0.129608,-4.622589,-4.631316,0.239428,4.431991,-0.248989,0.551430,-0.017021,-0.201242,188.433418,0
0.018750,3.246407,-158.631458,171.671023,6.219258,3.764310,1.386709,-5.218115,-3.818975,-1.392246,5.151495,-0.201500,0.553520,-0.013287,-6.817591,188.508288,0
0.019792,74.352543,-178.154199,124.004356,5.269218,2.010473,3.196383,-5.128003,-2.080345,-3.036007,4.991605,-0.278213,0.560706,-0.009553,-16.001311,188.341849,0
0.020833,126.471332,-189.631058,41.634091,3.731058,0.150127,4.388863,-4.367923,-0.183658,-4.365519,4.329205,-0.238030,0.562209,-0.039427,-17.720431,188.494393,0
0.021875,169.311957,-154.608517,-29.570455,2.385168,-1.635663,4.887952,-2.996644,1.507187,-4.836892,3.076737,-0.201500,0.563450,-0.035692,-20.717581,188.419415,0
0.022917,177.773462,-103.252594,-101.156629,1.016658,-3.428553,4.613644,-0.873121,3.425929,-4.627393,0.902999,-0.157664,0.541762,-0.050629,-20.163391,188.498371,0
0.023958,175.686442,-17.864765,-148.503220,0.100548,-4.493637,3.767859,1.034915,4.436760,-3.833714,-0.935732,-0.135746,0.550581,-0.031958,-15.175681,188.421352,0
0.025000,150.290583,59.223484,-171.043940,-0.329232,-4.873517,2.362028,2.758808,4.910932,-2.471971,-2.686904,-0.088257,0.556656,-0.043161,-7.100341,188.494931,0
0.026042,77.607840,120.654880,-181.778788,-0.578052,-4.575293,0.312334,4.490537,4.591141,-0.385040,-4.377166,-0.044421,0.553194,0.001650,4.537648,188.494654,0
0.027083,-2.436186,158.830537,-171.868751,-0.374472,-3.712576,-1.295419,5.097817,3.745719,1.170087,-5.054793,-0.062686,0.561098,-0.013287,11.640328,188.494531,0
0.028125,-74.279584,178.111660,-123.574243,0.552948,-1.862881,-3.066995,4.948935,2.032819,2.854136,-4.929165,-0.066339,0.551887,-0.039427,20.597848,188.419491,0
0.029167,-126.659251,190.385858,-40.292993,2.102418,-0.080641,-4.194708,4.255460,0.092023,4.187677,-4.259152,-0.077298,0.552867,-0.028224,22.181248,188.494981,0
0.030208,-169.023491,154.747192,31.022349,3.493548,1.701599,-4.720466,2.856756,-1.562064,4.663078,-2.957193,-0.077298,0.551365,-0.028224,26.207608,188.419343,0
0.031250,-178.154203,102.690576,101.685228,4.771578,3.522891,-4.449967,0.768495,-3.495509,4.477752,-0.836752,-0.106522,0.565410,-0.009553,24.748618,188.495573,0
0.032292,-175.965101,16.179223,148.059281,5.665068,4.584425,-3.627042,-1.151295,-4.498989,3.688102,0.990558,-0.175929,0.565148,-0.009553,18.675148,188.420452,0
0.033333,-150.262995,-60.232495,171.141667,6.117468,4.953654,-2.213591,-2.894778,-4.951106,2.330388,2.737923,-0.197847,0.539214,-0.039427,14.592238,188.495911,0
0.034375,-76.684194,-120.757824,181.753410,6.388908,4.637679,-0.141037,-4.669604,-4.601910,0.275688,4.428185,-0.234377,0.547249,-0.017021,0.205918,188.496020,0
0.035417,3.178352,-158.655620,172.163447,6.219258,3.782062,1.470525,-5.261213,-3.800596,-1.380160,5.140074,-0.270907,0.558420,-0.005818,-6.625321,188.496038,0
0.036458,74.363885,-177.695125,124.201326,5.314458,1.996272,3.204003,-5.112331,-2.084021,-3.023920,4.983991,-0.238030,0.549797,-0.035692,-16.589431,188.420649,0
0.037500,126.289852,-190.114294,41.658712,3.753678,0.143027,4.419342,-4.395348,-0.165279,-4.385663,4.359660,-0.234377,0.565540,-0.035692,-18.003181,188.495942,0
0.038542,169.085107,-154.656841,-29.361174,2.373858,-1.642763,4.910811,-3.000562,1.543945,-4.881209,3.034861,-0.175929,0.562274,-0.020755,-20.310421,188.495922,0
0.039583,178.057025,-103.832478,-100.873485,1.016658,-3.467606,4.644122,-0.904465,3.488416,-4.703940,0.933454,-0.146705,0.556656,-0.050629,-20.706271,188.498508,0
0.040625,175.879264,-18.154707,-148.367803,0.157098,-4.571743,3.798338,1.066258,4.502923,-3.861916,-0.950959,-0.113828,0.557244,-0.013287,-15.616771,188.496719,0
0.041667,150.846366,58.861056,-171.388637,-0.317922,-4.930321,2.365838,2.805823,4.962392,-2.496144,-2.713552,-0.084604,0.559988,-0.050629,-8.423611,188.494657,0
0.042708,78.016170,120.534071,-181.791099,-0.555432,-4.603695,0.258996,4.588485,4.620547,-0.381011,-4.479952,-0.033462,0.562274,0.001650,4.164418,188.433706,0
0.043750,-2.016513,158.806375,-172.262690,-0.374472,-3.751629,-1.280180,5.172258,3.760422,1.270807,-5.165193,-0.029809,0.566193,-0.017021,11.798668,188.510874,0
0.044792,-73.950651,178.232469,-123.918940,0.530328,-1.848680,-3.101284,4.999869,2.040171,2.918597,-4.974848,-0.033462,0.561098,-0.013287,19.726978,188.357798,0
0.045833,-126.489114,190.699962,-40.650000,2.113728,-0.023837,-4.324242,4.275050,0.080996,4.284369,-4.327676,-0.037115,0.558616,-0.005818,22.373518,188.515737,0
0.046875,-169.148258,155.145861,30.726894,3.448308,1.761953,-4.785233,2.876346,-1.664985,4.715453,-2.953387,-0.080951,0.559726,-0.039427,26.105818,188.505052,0
0.047917,-178.086148,103.234217,101.377462,4.805508,3.576146,-4.465207,0.744987,-3.532266,4.558329,-0.878628,-0.128440,0.532747,-0.043161,25.268878,188.511752,0
0.048958,-176.464171,16.493326,148.022349,5.698998,4.641229,-3.634661,-1.190474,-4.557801,3.700189,1.059082,-0.168623,0.561294,-0.005818,20.303788,188.363467,0
0.050000,-150.716695,-60.172091,171.018561,6.162708,5.003357,-2.175492,-2.973136,-5.043000,2.318302,2.795026,-0.186888,0.552671,-0.035692,15.033328,188.513216,0
0.051042,-76.446002,-120.359154,182.442804,6.366288,4.719335,-0.080080,-4.693112,-4.601910,0.235399,4.523357,-0.197847,0.527586,-0.005818,-0.280412,188.513703,0
0.052083,3.042242,-158.341517,172.446591,6.162708,3.817564,1.470525,-5.308228,-3.807948,-1.412390,5.235246,-0.267254,0.546400,-0.050629,-6.761041,188.513587,0
0.053125,74.046295,-178.359575,124.472159,5.269218,2.003372,3.245911,-5.163264,-2.080345,-3.096439,5.056322,-0.248989,0.555545,-0.046895,-15.910831,188.292131,0
0.054167,126.108372,-190.247184,41.831061,3.731058,0.143027,4.461250,-4.399266,-0.128522,-4.446096,4.390116,-0.259948,0.564168,-0.005818,-17.754361,188.515410,0
0.055208,169.039737,-155.152158,-29.188826,2.351238,-1.678266,4.956529,-3.047577,1.554972,-4.905382,3.069123,-0.208806,0.569068,-0.031958,-20.762821,188.518908,0
0.056250,177.841517,-104.037853,-100.676515,0.982728,-3.520861,4.686031,-0.900547,3.506795,-4.772430,0.960102,-0.124787,0.559073,-0.009553,-20.265181,188.514257,0
0.057292,176.401020,-18.372163,-148.035417,0.100548,-4.596595,3.855485,1.074094,4.528654,-3.926377,-0.935732,-0.143052,0.561555,-0.050629,-15.311401,188.296475,0
0.058333,151.084558,58.426144,-171.327084,-0.385782,-4.951623,2.388697,2.841084,5.035907,-2.520317,-2.740200,-0.077298,0.566781,-0.017021,-7.281301,188.515515,0
0.059375,78.742090,120.062916,-181.815720,-0.566742,-4.685352,0.255186,4.604157,4.664656,-0.445472,-4.441883,-0.051727,0.563711,-0.043161,4.379308,188.514984,0
0.060417,-1.449388,158.576838,-172.632008,-0.385782,-3.780031,-1.314468,5.184012,3.804531,1.222461,-5.199455,-0.022503,0.570309,-0.039427,11.572468,188.514731,0
0.061458,-73.462924,177.978770,-124.669887,0.530328,-1.930336,-3.112713,5.078227,2.062225,2.938741,-5.035759,-0.044421,0.566128,-0.020755,20.631778,188.437308,0
0.062500,-126.262264,190.917418,-41.253220,2.079798,-0.087742,-4.316623,4.341655,0.095699,4.280340,-4.358131,-0.037115,0.562339,-0.013287,22.158628,188.511766,0
0.063542,-168.785298,155.242509,30.012879,3.436998,1.765504,-4.827141,2.927279,-1.584119,4.783943,-3.052366,-0.080951,0.558681,-0.080503,26.173678,188.514700,0
0.064583,-178.607904,103.657049,100.761932,4.748958,3.572595,-4.560453,0.815510,-3.546969,4.638905,-0.920504,-0.135746,0.556133,-0.043161,24.884338,188.512049,0
0.065625,-176.316718,17.049048,147.443750,5.676378,4.658980,-3.710858,-1.143459,-4.546773,3.756592,1.005785,-0.179582,0.523210,-0.035692,18.810868,188.362713,0
0.066667,-150.796092,-59.483479,171.437122,6.174018,5.045961,-2.285978,-2.914367,-5.046675,2.342475,2.768378,-0.154011,0.533074,-0.028224,14.535688,188.512715,0
0.067708,-77.727704,-120.552449,181.310228,6.377598,4.737087,-0.156277,-4.700947,-4.737912,0.303889,4.470060,-0.234377,0.540651,-0.024490,0.228538,188.511321,0
0.068750,2.804049,-158.281112,173.012879,6.207948,3.863718,1.424807,-5.343489,-3.870435,-1.384188,5.197178,-0.259948,0.556068,-0.013287,-6.591391,188.513370,0
0.069792,74.182405,-177.066918,125.210796,5.337078,2.095680,3.215432,-5.198526,-2.194293,-3.023920,5.079164,-0.241683,0.580761,-0.017021,-16.634671,188.432727,0
0.070833,126.051660,-190.814987,42.040341,3.731058,0.192730,4.491729,-4.505050,-0.268200,-4.438038,4.481481,-0.227071,0.568414,-0.013287,-18.093661,188.510210,0
0.071875,168.427242,-155.043430,-28.696402,2.385168,-1.603710,5.006057,-3.082839,1.503511,-4.945670,3.175716,-0.216112,0.571223,-0.005818,-20.197321,188.508469,0
0.072917,178.488040,-104.376118,-100.048675,1.027968,-3.467606,4.785087,-1.018085,3.466362,-4.812719,1.024820,-0.146705,0.559988,-0.017021,-20.774131,188.514145,0
0.073958,175.992689,-18.927884,-147.616857,0.168408,-4.593045,3.912633,1.027079,4.550708,-3.970694,-0.912890,-0.117481,0.562143,-0.039427,-15.910831,188.440040,0
0.075000,151.254696,57.665047,-171.634849,-0.329232,-5.047480,2.464894,2.825413,5.065313,-2.576721,-2.770656,-0.080951,0.569198,-0.013287,-8.525401,188.509739,0
0.076042,79.842313,120.123321,-180.917046,-0.555432,-4.720855,0.304714,4.600239,4.716117,-0.513962,-4.487566,-0.048074,0.571550,-0.005818,3.915598,188.520639,0
0.077083,-0.984346,158.395625,-173.087501,-0.385782,-3.801333,-1.303039,5.242781,3.896425,1.218433,-5.203262,-0.022503,0.570701,-0.039427,11.787358,188.514011,0
0.078125,-73.372184,177.326401,-125.420834,0.530328,-2.033294,-3.093664,5.097817,2.087956,2.902482,-5.047179,-0.051727,0.565344,-0.009553,19.783528,188.443039,0
0.079167,-126.137496,191.183198,-41.917993,2.045868,-0.094842,-4.350911,4.388670,0.136132,4.312570,-4.384779,-0.044421,0.562927,-0.028224,22.373518,188.513556,0
0.080208,-168.615161,155.520369,29.311174,3.436998,1.673196,-4.834761,2.986048,-1.576767,4.767828,-3.067593,-0.080951,0.563123,-0.043161,25.981408,188.512575,0
0.081250,-178.630589,104.249013,100.331061,4.794198,3.561944,-4.609981,0.889951,-3.535942,4.630848,-0.958573,-0.121134,0.554566,-0.013287,25.370668,188.512038,0
0.082292,-176.452828,17.761821,147.308334,5.665068,4.651880,-3.737527,-1.104280,-4.587207,3.812996,0.952489,-0.124787,0.539541,-0.024490,20.529988,188.581539,0
0.083334,-151.272477,-59.048567,171.215531,6.174018,5.070813,-2.305027,-2.941793,-5.028297,2.431109,2.787412,-0.183235,0.512170,0.016587,15.022018,188.495765,0
0.084375,-78.351542,-120.274588,181.285607,6.400218,4.761938,-0.209615,-4.704865,-4.763643,0.364322,4.492902,-0.197847,0.535295,-0.009553,-0.099452,188.571181,0
0.085417,2.554514,-157.761633,173.394508,6.196638,3.906321,1.413378,-5.339571,-3.943950,-1.380160,5.193371,-0.227071,0.570048,-0.028224,-6.670561,188.495902,0
0.086458,73.932870,-177.030675,125.764773,5.314458,2.113431,3.181144,-5.210279,-2.234727,-3.040036,5.113426,-0.219765,0.578866,-0.028224,-16.012621,188.571692,0
0.087501,125.813467,-190.814987,42.385038,3.425688,0.245985,4.491729,-4.532476,-0.224091,-4.429980,4.492902,-0.201500,0.568284,-0.020755,-17.754361,188.495700,0
0.088542,168.075624,-155.369614,-28.277841,2.407788,-1.568208,4.994628,-3.161198,1.455727,-4.941641,3.156681,-0.205153,0.569590,-0.031958,-20.604481,188.570533,0
0.089584,178.624150,-104.738546,-99.630114,1.061898,-3.453405,4.777467,-1.025921,3.440632,-4.828834,1.085730,-0.146705,0.562143,-0.046895,-20.434831,188.495369,0
0.090625,176.196854,-19.157422,-147.407576,0.157098,-4.568193,3.939302,0.987900,4.543357,-4.031127,-0.825332,-0.110175,0.563319,-0.002084,-15.662011,188.570798,0
0.091667,151.220668,57.121406,-171.807197,-0.351852,-5.022628,2.510612,2.782315,5.050610,-2.617009,-2.652642,-0.110175,0.568806,0.020321,-7.439641,188.495405,0
0.092709,80.658973,119.954188,-180.215341,-0.532812,-4.770559,0.464727,4.541470,4.763902,-0.590510,-4.457110,-0.022503,0.571746,-0.024490,4.073938,188.570839,0
0.093750,-0.258426,158.154006,-173.432198,-0.408402,-3.936243,-1.211603,5.203601,3.903776,1.097568,-5.199455,-0.051727,0.571942,-0.046895,11.572468,188.495162,0
0.094792,-73.179361,176.529061,-126.196402,0.507708,-2.086548,-2.983179,5.117407,2.209255,2.817876,-5.043372,-0.040768,0.567500,-0.035692,20.812738,188.646851,0
0.095837,-126.069441,191.231522,-42.410417,2.068488,-0.176499,-4.267095,4.408260,0.250081,4.256167,-4.453304,-0.026156,0.567892,-0.024490,22.203868,188.495989,0
0.096875,-168.014008,155.435803,28.547917,3.414378,1.556037,-4.834761,3.048735,-1.473846,4.771856,-3.177993,-0.066339,0.565540,0.005384,25.856998,188.572063,0
0.097918,-179.379194,104.393984,99.937122,4.760268,3.505140,-4.594741,0.956556,-3.458751,4.622790,-1.065166,-0.099216,0.553063,-0.017021,25.042678,188.495685,0
0.098959,-176.237321,18.595403,146.815910,5.676378,4.591525,-3.828963,-1.002413,-4.510016,3.865371,0.823054,-0.164970,0.560380,-0.050629,19.116238,188.646451,0
0.100000,-151.068312,-57.767991,171.991099,6.151398,5.035310,-2.396463,-2.796829,-5.098136,2.503628,2.692240,-0.179582,0.573836,-0.020755,14.445208,188.495631,0
0.101042,-80.030232,-120.576611,179.611364,6.343668,4.758388,-0.339149,-4.575573,-4.748940,0.481158,4.367274,-0.227071,0.545747,-0.035692,0.511288,188.571078,0
0.102083,2.180212,-157.809957,173.874622,6.196638,3.941824,1.291463,-5.292556,-3.984384,-1.255266,5.197178,-0.248989,0.563058,-0.013287,-6.580081,188.495797,0
0.103125,74.148378,-175.206459,127.057387,5.303148,2.227040,3.070658,-5.206361,-2.289863,-2.931257,5.090584,-0.263601,0.571681,-0.046895,-16.736461,188.646645,0
0.104167,125.870180,-191.213656,43.012879,3.753678,0.377345,4.423152,-4.552066,-0.378473,-4.373577,4.523357,-0.256295,0.566389,0.001650,-18.218071,188.495016,0
0.105208,167.349704,-155.176320,-27.637689,2.430408,-1.433297,4.967959,-3.208213,1.338103,-4.921497,3.297536,-0.216112,0.567043,-0.028224,-19.903261,188.570434,0
0.106250,179.213960,-105.016406,-98.792993,1.084518,-3.357548,4.826995,-1.151295,3.319332,-4.828834,1.158061,-0.161317,0.554370,0.009119,-20.943781,188.494162,0
0.107292,175.731812,-20.003085,-146.915152,0.179718,-4.465235,4.011689,0.776331,4.436760,-4.063357,-0.688283,-0.110175,0.555872,-0.002084,-16.408471,188.645935,0
0.108334,151.141271,56.154934,-172.410417,-0.351852,-4.980025,2.647766,2.653023,5.035907,-2.717730,-2.591731,-0.080951,0.567435,-0.043161,-8.446231,188.496624,0
0.109375,82.144840,120.292453,-178.898107,-0.510192,-4.727955,0.518065,4.455275,4.756550,-0.687202,-4.297221,-0.040768,0.569852,-0.024490,3.587608,188.571227,0
0.110417,0.320042,157.960712,-173.715341,-0.397092,-3.925592,-1.131596,5.203601,3.955237,1.045193,-5.157579,-0.026156,0.574294,-0.024490,11.764738,188.495597,0
0.111458,-72.861771,175.296809,-127.513637,0.473778,-2.143353,-2.906982,5.097817,2.234986,2.773559,-5.035759,-0.040768,0.560837,0.016587,20.032348,188.646315,0
0.112500,-126.148839,191.316088,-43.456818,2.023248,-0.275906,-4.255665,4.463111,0.319920,4.244080,-4.506600,-0.026156,0.569460,-0.009553,22.452688,188.495826,0
0.113542,-167.628363,155.532450,27.784659,3.403068,1.460180,-4.781423,3.115340,-1.396656,4.747683,-3.273166,-0.048074,0.563058,-0.017021,25.687348,188.570781,0
0.114583,-179.435906,105.167162,99.075379,4.703718,3.416383,-4.613790,1.058422,-3.370533,4.650992,-1.183180,-0.095563,0.554304,-0.009553,25.472458,188.497178,0
0.115625,-176.010471,19.489390,146.668182,5.676378,4.524070,-3.806104,-0.935808,-4.465907,3.885515,0.754530,-0.150358,0.554043,-0.039427,20.937148,188.722558,0
0.116667,-151.125025,-57.055217,172.052652,6.174018,5.017559,-2.449801,-2.714553,-5.116515,2.539887,2.597068,-0.157664,0.585726,-0.009553,14.942848,188.496304,0
0.117708,-80.892262,-120.395397,179.143561,6.343668,4.776140,-0.373438,-4.508968,-4.804076,0.529504,4.325398,-0.219765,0.559334,-0.020755,0.205918,188.571869,0
0.118750,1.828594,-157.532096,174.034660,6.241878,4.023481,1.238125,-5.296474,-4.013790,-1.194834,5.174336,-0.245336,0.580565,-0.013287,-6.614011,188.493407,0
0.119792,74.000925,-174.904436,127.697538,5.337078,2.262543,3.017320,-5.225951,-2.396460,-2.826508,5.048709,-0.252642,0.575078,-0.028224,-16.182271,188.721422,0
0.120833,125.666015,-191.237818,43.726894,3.798918,0.384445,4.385053,-4.587327,-0.407879,-4.325231,4.546198,-0.208806,0.567761,-0.013287,-17.810911,188.496154,0
0.121875,166.850634,-155.430019,-27.231439,2.407788,-1.337440,4.937480,-3.294407,1.268263,-4.877180,3.308957,-0.183235,0.568284,-0.005818,-20.299111,188.571525,0
0.122917,179.247987,-105.125135,-98.411364,1.050588,-3.325595,4.834614,-1.174803,3.271547,-4.853007,1.234199,-0.150358,0.561359,-0.054364,-20.570551,188.496264,0
0.123958,175.833894,-20.389674,-146.484281,0.145788,-4.443933,4.038358,0.737151,4.388975,-4.091559,-0.608339,-0.121134,0.558420,-0.020755,-16.193581,188.726031,0
0.125000,150.857708,55.405918,-172.619697,-0.340542,-4.909019,2.663005,2.609926,5.010177,-2.770104,-2.496559,-0.080951,0.569917,-0.058098,-7.541431,188.497115,0
0.126042,83.120295,120.123321,-178.073296,-0.498882,-4.781209,0.662839,4.380834,4.782280,-0.775836,-4.281993,-0.048074,0.569264,-0.046895,3.791188,188.573580,0
0.127083,0.683002,157.984874,-173.900001,-0.397092,-3.978847,-1.055399,5.160504,3.995670,0.948501,-5.142352,-0.040768,0.574359,-0.039427,11.629018,188.496746,0
