1-Time,2-VGERA,3-VGERB,4-VGERC,5-VN,6-IGERAN,7-IGERBN,8-IGERCN,9-IGERAT,10-IGERBT,11-IGERCT,12-IN,13-IFD,14-IFAULT,15-VFAULT,16-Speed (rad/s),17-FAULT 
0.000000,151.594971,-177.296455,-2.167045,2.928048,-2.445126,6.149009,-3.388438,2.385691,-6.073741,3.423164,-0.201500,0.598595,-0.046895,4.741228,188.646531,0
0.001042,181.550515,-127.752668,-70.207765,1.593468,-4.585944,5.672779,-0.692896,4.480869,-5.642657,0.758337,-0.132093,0.586248,-0.046895,3.135208,188.570984,0
0.002083,191.475203,-44.237378,-125.076137,0.575568,-5.846293,4.453630,1.728390,5.973223,-4.542787,-1.643814,-0.102869,0.561098,-0.031958,0.839278,188.722009,0
0.003125,159.818284,26.460072,-173.518372,-0.363162,-6.371734,2.716343,4.028220,6.329771,-2.798306,-3.802324,-0.091910,0.591670,-0.024490,0.171988,188.721844,0
0.004167,109.502952,94.306429,-183.132955,-0.555432,-5.647477,0.205658,5.677672,5.693866,-0.292377,-5.587758,-0.026156,0.589384,-0.035692,-0.902462,188.646446,0
0.005208,24.899240,143.934782,-189.275948,-0.713772,-4.255768,-2.114535,6.555290,4.319136,1.979881,-6.489993,0.006721,0.575666,-0.035692,-1.637612,188.571087,0
0.006250,-50.936718,171.600053,-156.566667,-0.069102,-2.253411,-3.928019,6.187004,2.345258,3.921774,-6.212089,0.010374,0.604801,-0.058098,-1.694162,188.721860,0
0.007292,-106.401545,195.339029,-74.171781,1.502988,0.451901,-5.596729,5.015540,-0.356418,5.517189,-5.054793,-0.044421,0.604343,-0.005818,-1.694162,188.721900,0
0.008333,-152.520152,177.157269,1.452273,2.916738,2.553665,-5.970094,3.287729,-2.536138,6.061080,-3.368338,-0.069992,0.600881,-0.061832,0.409498,188.570953,0
0.009375,-182.498381,127.335620,70.613258,4.206078,4.683832,-5.440526,0.509911,-4.561476,5.529276,-0.676863,-0.154011,0.579258,-0.061832,1.913728,188.570962,0
0.010417,-191.617752,45.825761,125.641667,5.257908,5.901578,-4.240426,-1.872196,-5.965613,4.445522,1.706254,-0.179582,0.586444,-0.013287,3.825118,188.721822,0
0.011458,-160.312450,-25.415330,173.813069,6.207948,6.384416,-2.457421,-4.152436,-6.373621,2.680896,3.895219,-0.256295,0.603298,-0.058098,4.797778,188.721902,0
0.012500,-109.951748,-94.191916,183.132198,6.434148,5.649508,-0.026742,-5.778381,-5.763447,0.215255,5.654005,-0.230724,0.595982,-0.039427,5.713888,188.571056,0
0.013542,-24.157074,-144.086050,189.558334,6.558558,4.311053,2.270592,-6.616819,-4.381365,-2.085204,6.438226,-0.252642,0.608916,-0.028224,6.562138,188.571078,0
0.014583,52.109899,-171.497621,155.778031,5.913888,2.251892,4.133604,-6.225026,-2.374405,-3.954579,6.198391,-0.267254,0.575992,-0.024490,6.573448,188.721742,0
0.015625,106.655984,-196.082261,72.016667,4.353108,-0.428568,5.722307,-5.073152,0.323596,-5.578195,4.987798,-0.252642,0.592585,-0.031958,6.460348,188.797344,0
0.016667,152.048671,-176.390387,-2.954924,2.916738,-2.459327,6.133770,-3.317915,2.433476,-6.061655,3.358447,-0.172276,0.592585,-0.013287,4.718608,188.570993,0
0.017708,182.423887,-126.532496,-70.540152,1.616088,-4.660500,5.619442,-0.583194,4.543357,-5.566109,0.716461,-0.154011,0.586967,-0.046895,3.135208,188.646569,0
0.018750,190.794653,-44.019922,-125.925569,0.552948,-5.853393,4.392673,1.798913,5.892357,-4.474297,-1.731373,-0.095563,0.587881,-0.031958,0.771418,188.721786,0
0.019792,159.909024,26.641285,-174.133902,-0.351852,-6.350432,2.613477,4.028220,6.278311,-2.693557,-3.927952,-0.033462,0.604409,-0.039427,0.149368,188.797324,0
0.020833,109.480267,94.934636,-183.059091,-0.566742,-5.604874,0.106602,5.744277,5.664460,-0.231944,-5.633441,-0.033462,0.609047,-0.050629,-0.936392,188.571089,0
0.021875,24.717760,144.780446,-189.399054,-0.702462,-4.255768,-2.171683,6.574880,4.238269,2.096716,-6.455731,0.006721,0.610418,-0.031958,-1.660232,188.571096,0
0.022917,-51.311020,172.034965,-155.274054,-0.046482,-2.111400,-4.042314,6.124317,2.227634,3.998322,-6.174020,-0.011544,0.600685,-0.039427,-1.716782,188.721802,0
0.023958,-106.594368,196.994113,-71.709659,1.514298,0.611663,-5.650067,4.909756,-0.510800,5.605823,-4.944393,-0.000585,0.597157,-0.005818,-1.603682,188.797264,0
0.025000,-153.291442,175.550508,3.151136,2.950668,2.699227,-5.992953,3.107504,-2.653762,6.036908,-3.219869,-0.048074,0.593499,-0.035692,0.330328,188.571154,0
0.026042,-183.882166,125.946316,71.351894,4.262628,4.854246,-5.459575,0.333604,-4.701155,5.480930,-0.532201,-0.132093,0.581806,-0.039427,1.834558,188.646427,0
0.027083,-190.551557,42.841778,126.503409,5.280528,5.979684,-4.160419,-2.009324,-5.998695,4.288397,1.877564,-0.194194,0.578409,-0.058098,4.017388,188.721851,0
0.028125,-160.391848,-28.326828,173.714584,6.185328,6.444770,-2.369794,-4.309154,-6.410379,2.515714,4.043688,-0.212459,0.603298,-0.020755,5.012668,188.797376,0
0.029167,-107.637878,-95.931567,182.885985,6.388908,5.645958,0.140891,-5.915508,-5.686256,0.074246,5.703495,-0.245336,0.562078,-0.050629,5.804368,188.571060,0
0.030208,-22.274219,-144.883390,190.001516,6.547248,4.318154,2.434415,-6.699096,-4.315201,-2.238299,6.548626,-0.274560,0.595328,-0.005818,6.573448,188.721866,0
0.031250,52.756422,-171.715077,154.460796,5.834718,2.177336,4.247899,-6.272041,-2.271484,-4.111703,6.183164,-0.270907,0.592650,-0.031958,6.652618,188.721889,0
0.032292,106.531216,-197.870235,70.699432,4.296558,-0.535077,5.825173,-5.002629,0.463274,-5.723233,5.022060,-0.230724,0.603167,-0.050629,6.449038,188.721895,0
0.033333,153.568566,-174.493685,-2.770265,2.928048,-2.619090,6.168059,-3.192541,2.598885,-6.110000,3.244240,-0.190541,0.598529,-0.043161,4.639438,188.571151,0
0.034375,184.306742,-126.037179,-70.774053,1.604778,-4.777659,5.634681,-0.446066,4.672008,-5.642657,0.571799,-0.128440,0.591017,-0.043161,2.976868,188.646408,0
0.035417,189.773828,-43.705819,-127.033523,0.530328,-5.913748,4.366004,1.936041,5.947493,-4.442067,-1.792283,-0.080951,0.597353,-0.046895,0.850588,188.721953,0
0.036458,160.442121,27.788971,-174.330872,-0.363162,-6.414337,2.514421,4.208445,6.366529,-2.604922,-4.106876,-0.077298,0.607218,-0.031958,0.138058,188.646478,0
0.037500,108.346017,96.191050,-182.800569,-0.544122,-5.580022,-0.007693,5.853979,5.642406,-0.123166,-5.740034,-0.037115,0.610549,-0.020755,-0.936392,188.571141,0
0.038542,22.766850,145.348248,-190.014584,-0.713772,-4.206064,-2.305027,6.668911,4.208863,2.169235,-6.535676,0.003068,0.617082,-0.061832,-1.637612,188.721915,0
0.039583,-53.114478,172.010803,-153.784470,0.021378,-2.015543,-4.160419,6.143907,2.128389,4.054726,-6.151179,-0.011544,0.607087,-0.035692,-1.694162,188.721770,0
0.040625,-106.821218,198.697520,-68.619697,1.604778,0.703970,-5.749123,4.905838,-0.635775,5.710573,-4.940586,-0.059033,0.595263,-0.031958,-1.739402,188.721913,0
0.041667,-153.586347,174.439065,4.776136,3.007218,2.795084,-6.004382,3.036981,-2.760359,6.065109,-3.174186,-0.084604,0.594740,-0.061832,0.511288,188.571069,0
0.042708,-184.846279,124.786550,72.127462,4.262628,4.928802,-5.493864,0.314014,-4.877591,5.569564,-0.501746,-0.117481,0.589972,-0.054364,2.026828,188.721949,0
0.043750,-190.109199,41.887386,127.205114,5.325768,6.103944,-4.202328,-2.095518,-6.072210,4.316599,1.953702,-0.172276,0.581284,-0.024490,3.915598,188.722023,0
0.044792,-160.664068,-29.112087,174.342425,6.207948,6.537078,-2.331696,-4.387512,-6.542706,2.572118,4.169316,-0.227071,0.602645,-0.050629,4.944808,188.646556,0
0.045833,-107.479083,-96.221508,182.959849,6.422838,5.688561,0.255186,-5.989949,-5.752419,-0.006330,5.813895,-0.248989,0.598333,-0.009553,5.793058,188.571152,0
0.046875,-22.421672,-145.668648,190.026137,6.569868,4.286201,2.537281,-6.757865,-4.278444,-2.310818,6.651412,-0.278213,0.610810,-0.024490,6.607378,188.722137,0
0.047917,52.314064,-172.258718,153.648296,5.857338,2.131182,4.346955,-6.299466,-2.231051,-4.224510,6.217426,-0.263601,0.613750,-0.039427,6.550828,188.797387,0
0.048958,106.724039,-199.005840,69.160606,4.228698,-0.655786,5.924229,-5.041808,0.558844,-5.827983,4.980184,-0.259948,0.600554,-0.039427,6.505588,188.646370,0
0.050000,154.260459,-173.563456,-3.693561,2.848878,-2.725598,6.187108,-3.110264,2.631967,-6.198635,3.202364,-0.212459,0.599836,-0.058098,4.662058,188.570962,0
0.051042,185.180115,-123.850536,-72.214394,1.582158,-4.894818,5.630871,-0.312856,4.833741,-5.614455,0.423330,-0.168623,0.578605,-0.031958,2.954248,188.721837,0
0.052083,189.263415,-41.277557,-127.513637,0.541638,-5.974103,4.297427,2.084922,5.976899,-4.321202,-1.967401,-0.080951,0.599836,-0.035692,0.737488,188.797327,0
0.053125,160.385409,30.966249,-174.035417,-0.397092,-6.393036,2.411556,4.333819,6.395935,-2.524346,-4.194435,-0.080951,0.579650,-0.017021,0.024958,188.646473,0
0.054167,105.567104,97.725325,-183.231440,-0.566742,-5.580022,-0.118178,5.951928,5.631379,0.029929,-5.823786,-0.015197,0.592389,-0.050629,-0.925082,188.646447,0
0.055208,19.999280,145.940213,-190.285417,-0.725082,-4.138609,-2.423132,6.715926,4.175782,2.306215,-6.581358,0.010374,0.565671,-0.073035,-1.682852,188.721780,0
0.056250,-54.055906,172.941033,-152.085607,0.032688,-1.933886,-4.236616,6.155661,1.981359,4.127244,-6.215896,-0.004238,0.612901,-0.031958,-1.660232,188.797197,0
0.057292,-106.877930,200.074743,-67.068561,1.661328,0.835331,-5.802461,4.878413,-0.749724,5.819351,-4.917745,-0.033462,0.595720,-0.024490,-1.716782,188.571087,0
0.058333,-154.845365,172.856467,4.726894,3.018528,2.933545,-6.076769,2.970376,-2.874307,6.117484,-3.025718,-0.062686,0.597680,-0.031958,0.398188,188.646496,0
0.059375,-186.037241,124.520770,72.558334,4.273938,5.081464,-5.478624,0.196476,-4.947430,5.585679,-0.349470,-0.132093,0.589384,-0.028224,1.958968,188.721795,0
0.060417,-189.133744,41.645768,128.534659,5.303148,6.142997,-4.080413,-2.224810,-6.171455,4.264224,2.045068,-0.168623,0.596570,-0.017021,4.006078,188.797316,0
0.061458,-161.707578,-30.283934,174.256251,6.151398,6.565480,-2.221210,-4.501133,-6.586815,2.398878,4.390116,-0.227071,0.605780,-0.050629,5.114458,188.571237,0
0.062500,-106.276778,-97.320871,183.403031,6.434148,5.635307,0.399960,-6.189764,-5.745068,-0.187627,5.966171,-0.252642,0.607218,-0.054364,5.804368,188.721820,0
0.063542,-21.321449,-146.212289,190.592425,6.569868,4.186793,2.659195,-6.820552,-4.252713,-2.504202,6.708515,-0.292825,0.608459,-0.035692,6.573448,188.721947,0
0.064583,53.312204,-173.176867,151.358523,5.800788,1.914615,4.506968,-6.244615,-2.065642,-4.317173,6.183164,-0.263601,0.595590,-0.050629,6.652618,188.797347,0
0.065625,106.894176,-200.721328,65.885985,4.183458,-0.797797,6.023285,-4.928188,0.764686,-5.872300,4.915467,-0.248989,0.596374,-0.028224,6.516898,188.571053,0
0.066667,154.895639,-171.968776,-6.020265,2.837568,-2.853408,6.251875,-2.953547,2.812078,-6.182519,3.031054,-0.212459,0.595263,-0.054364,4.537648,188.646504,0
0.067708,185.883350,-122.992792,-73.334659,1.548228,-5.029729,5.550864,-0.203154,4.951365,-5.590282,0.301509,-0.161317,0.585922,-0.017021,2.784598,188.721895,0
0.068750,188.378700,-38.897619,-128.584659,0.473778,-6.073511,4.236469,2.229886,6.057766,-4.333289,-2.100642,-0.080951,0.587489,-0.065566,0.873208,188.797369,0
0.069792,160.793739,33.056246,-173.924622,-0.397092,-6.464041,2.358218,4.478783,6.517235,-2.443769,-4.354324,-0.062686,0.583570,-0.031958,0.058888,188.571183,0
0.070833,104.058551,98.256884,-183.514584,-0.566742,-5.516117,-0.297241,6.057712,5.594621,0.122592,-5.903731,-0.044421,0.594936,-0.035692,-0.947702,188.721958,0
0.071875,19.897198,146.665067,-190.199243,-0.691152,-4.049852,-2.537427,6.708090,4.065509,2.487513,-6.699372,0.021333,0.606630,-0.050629,-1.637612,188.721875,0
0.072917,-53.568178,173.472593,-150.792993,0.089238,-1.834478,-4.320433,6.085138,1.893141,4.256167,-6.181634,0.006721,0.603037,-0.054364,-1.716782,188.797231,0
0.073958,-106.980013,200.860002,-66.157576,1.638708,0.941839,-5.874848,4.803972,-0.859996,5.863668,-4.849221,-0.051727,0.598660,-0.035692,-1.795952,188.571071,0
0.075000,-155.854848,171.732943,5.022348,2.973288,3.025852,-6.084389,2.848920,-2.951498,6.133599,-2.972421,-0.044421,0.597092,-0.020755,0.545218,188.721887,0
0.076042,-186.740476,123.795916,73.198485,4.251318,5.134718,-5.486244,0.082856,-5.035648,5.553449,-0.212422,-0.146705,0.588404,-0.035692,2.151238,188.721887,0
0.077083,-188.521249,40.171898,129.064016,5.314458,6.189150,-4.004216,-2.322759,-6.175131,4.187677,2.117399,-0.175929,0.591931,-0.028224,3.926908,188.797139,0
0.078125,-161.503413,-32.591387,173.997728,6.185328,6.572580,-2.099296,-4.606917,-6.553733,2.326360,4.424378,-0.216112,0.595328,-0.028224,5.069218,188.571183,0
0.079167,-104.076333,-98.396071,183.649243,6.411528,5.567852,0.487586,-6.178010,-5.693607,-0.211800,5.981398,-0.252642,0.600750,-0.035692,5.804368,188.722021,0
0.080208,-18.508509,-146.755930,190.469319,6.581178,4.147740,2.723963,-6.863650,-4.146117,-2.576721,6.716129,-0.263601,0.583897,-0.017021,6.573448,188.797289,0
0.081250,54.752702,-173.539294,149.955114,5.744238,1.854261,4.567926,-6.236779,-1.988451,-4.361490,6.186970,-0.292825,0.600162,-0.031958,6.596068,188.948075,0
0.082292,107.245794,-201.361616,64.211743,4.172148,-0.875903,6.076622,-4.924270,0.779389,-5.940790,4.888819,-0.252642,0.597288,-0.046895,6.539518,188.721871,0
0.083333,155.655586,-171.050628,-6.414205,2.814948,-2.974118,6.270924,-2.906531,2.870890,-6.194606,3.012019,-0.164970,0.599444,-0.039427,4.560268,188.872651,0
0.084375,186.575242,-122.678688,-73.876326,1.536918,-5.065232,5.642301,-0.140467,5.035907,-5.650714,0.282475,-0.117481,0.591213,-0.035692,2.818528,188.948173,0
0.085417,187.936343,-39.078832,-129.557197,0.519018,-6.151617,4.213610,2.304327,6.123929,-4.268827,-2.203428,-0.073645,0.597353,-0.020755,0.794038,188.872680,0
0.086458,161.383549,33.261621,-173.998485,-0.374472,-6.535047,2.255352,4.561060,6.491504,-2.343049,-4.438076,-0.040768,0.604801,-0.028224,-0.088142,188.797287,0
0.087500,103.627536,98.715959,-183.970076,-0.600672,-5.526768,-0.339149,6.120399,5.568891,0.223313,-5.991289,0.010374,0.611072,-0.017021,-0.970322,188.872600,0
0.088542,19.727060,147.172465,-190.076137,-0.759012,-4.049852,-2.644103,6.833464,4.080212,2.519743,-6.752669,-0.004238,0.612378,-0.065566,-1.705472,188.948091,0
0.089583,-53.851741,174.704845,-149.118750,0.089238,-1.717319,-4.442348,6.132153,1.845356,4.352859,-6.166407,0.028639,0.606956,-0.028224,-1.716782,188.797376,0
0.090625,-107.354315,201.548614,-64.015530,1.672638,1.030596,-5.916756,4.776546,-0.922484,5.924100,-4.853028,-0.033462,0.597745,-0.043161,-1.762022,188.797278,0
0.091667,-156.682850,170.645661,7.176705,2.984598,3.171414,-6.114868,2.754890,-3.080149,6.165830,-2.888669,-0.044421,0.595263,-0.002084,0.533908,188.872673,0
0.092708,-186.570339,121.959618,75.106629,4.307868,5.237676,-5.383378,-0.058190,-5.164299,5.549420,-0.098215,-0.121134,0.581741,-0.061832,2.117308,188.948082,0
0.093750,-187.897411,37.357047,129.999622,5.382318,6.263706,-3.992786,-2.487312,-6.178806,4.123216,2.273482,-0.175929,0.566781,-0.031958,4.062628,188.797304,0
0.094792,-161.718920,-35.551208,173.160607,6.230568,6.611633,-2.026909,-4.689194,-6.586815,2.278014,4.534778,-0.227071,0.587620,-0.035692,5.204938,188.872747,0
0.095833,-101.422188,-99.338382,184.461743,6.445458,5.617556,0.586642,-6.272041,-5.667877,-0.332665,6.057536,-0.270907,0.595982,-0.035692,5.849608,188.872671,0
0.096875,-17.737219,-147.057952,190.309281,6.535938,4.119338,2.800160,-6.930254,-4.120386,-2.608951,6.754198,-0.292825,0.605192,-0.046895,6.584758,188.948071,0
0.097917,54.548537,-174.868193,148.391667,5.732928,1.797456,4.617454,-6.225026,-1.933315,-4.425951,6.194584,-0.256295,0.597680,-0.043161,6.675238,188.721931,0
0.098958,107.620096,-201.530749,63.707008,4.172148,-0.925607,6.122341,-4.892926,0.867607,-5.985107,4.869784,-0.238030,0.599901,-0.039427,6.516898,188.872617,0
0.100000,157.084741,-170.035832,-6.537311,2.826258,-3.045123,6.286164,-2.867352,2.959108,-6.218779,2.913040,-0.223418,0.606434,-0.054364,4.424548,188.872795,0
0.101042,186.552557,-122.582041,-74.787311,1.502988,-5.132687,5.604202,-0.054272,5.072665,-5.650714,0.183496,-0.157664,0.595590,-0.017021,2.682808,188.948053,0
0.102083,187.539355,-38.523111,-130.455872,0.462468,-6.155167,4.156463,2.437537,6.160687,-4.248683,-2.222463,-0.080951,0.595394,-0.039427,0.952378,188.721817,0
0.103125,161.644426,34.952947,-173.579925,-0.340542,-6.492444,2.186775,4.631582,6.462098,-2.322905,-4.495179,-0.040768,0.615840,-0.024490,-0.020282,188.872704,0
0.104167,101.790051,99.911968,-184.610228,-0.645912,-5.516117,-0.438205,6.210512,5.594621,0.259572,-6.002710,0.006721,0.607871,-0.024490,-0.981632,188.872756,0
0.105208,17.481245,147.583215,-190.014584,-0.747702,-4.053402,-2.651722,6.829546,4.047130,2.556003,-6.741248,-0.004238,0.605454,-0.020755,-1.614992,188.948066,0
0.106250,-55.428348,175.055191,-147.653788,0.100548,-1.674716,-4.476636,6.128235,1.823302,4.373003,-6.154986,-0.015197,0.593695,-0.035692,-1.750712,188.721762,0
0.107292,-107.864728,202.019769,-61.676515,1.706568,1.044797,-5.981523,4.753039,-0.999675,5.920072,-4.833993,-0.048074,0.599052,-0.031958,-1.852502,188.948046,0
0.108333,-157.045810,169.836241,8.493939,3.052458,3.167864,-6.088199,2.719628,-3.098528,6.133599,-2.820145,-0.080951,0.594087,-0.020755,0.590458,188.872704,0
0.109375,-186.763161,121.428058,75.759091,4.364418,5.251877,-5.471005,-0.093452,-5.219436,5.549420,-0.117249,-0.128440,0.586640,-0.020755,2.219098,188.948111,0
0.110417,-187.704589,37.224157,130.689016,5.348388,6.277907,-4.008026,-2.530409,-6.237618,4.127244,2.284902,-0.190541,0.594871,-0.035692,3.949528,188.721869,0
0.111458,-161.798318,-35.551208,173.751516,6.185328,6.579681,-2.049768,-4.728373,-6.664005,2.237725,4.550005,-0.259948,0.599444,-0.024490,5.159698,188.948048,0
0.112500,-101.649038,-99.797456,184.547917,6.445458,5.621106,0.594262,-6.299466,-5.689932,-0.336694,6.126060,-0.274560,0.611660,-0.043161,5.838298,188.872780,0
0.113542,-18.304344,-147.831130,189.878410,6.524628,4.129989,2.823019,-6.922419,-4.160820,-2.649240,6.811301,-0.223418,0.620283,-0.046895,6.528208,188.948225,0
0.114583,54.344372,-175.230620,147.923864,5.721618,1.797456,4.632693,-6.221108,-1.907585,-4.450124,6.179357,-0.259948,0.608067,-0.028224,6.618688,188.721947,0
0.115625,108.062454,-201.687800,62.635985,4.149528,-0.943359,6.099482,-4.889008,0.889661,-6.061655,4.873591,-0.245336,0.604409,-0.013287,6.516898,188.948089,0
0.116667,157.572469,-169.431787,-8.088447,2.781018,-3.069975,6.282354,-2.836009,2.962784,-6.226836,2.913040,-0.179582,0.602906,-0.035692,4.492408,188.948062,0
0.117708,186.382420,-120.552449,-76.252273,1.480368,-5.164639,5.539435,0.000579,5.149855,-5.554023,0.114972,-0.168623,0.577168,-0.054364,2.671498,188.948135,0
0.118750,187.040285,-36.119011,-130.923675,0.417228,-6.137416,4.133604,2.437537,6.171714,-4.139905,-2.290987,-0.095563,0.564952,-0.035692,0.794038,188.797423,0
0.119792,161.168041,37.634908,-173.210607,-0.374472,-6.456941,2.202015,4.564977,6.484153,-2.290674,-4.495179,-0.037115,0.610157,-0.035692,-0.189932,188.872713,0
0.120833,99.487524,100.987169,-184.905682,-0.566742,-5.509016,-0.419156,6.234019,5.532133,0.283745,-6.021745,-0.018850,0.610157,-0.031958,-0.970322,188.948180,0
0.121875,15.757185,147.921481,-189.657576,-0.679842,-4.010799,-2.655532,6.790367,4.017724,2.580176,-6.706986,-0.004238,0.604801,-0.065566,-1.694162,188.872642,0
0.122917,-55.893391,175.949178,-146.508902,0.168408,-1.696018,-4.476636,6.147825,1.797571,4.413291,-6.120724,-0.018850,0.591736,-0.076769,-1.705472,188.797441,0
0.123958,-108.454538,201.741908,-61.651894,1.729188,1.030596,-5.954854,4.756956,-1.051135,5.924100,-4.814959,-0.004238,0.601534,-0.031958,-1.795952,188.872813,0
0.125000,-158.191403,169.208034,8.260038,3.063768,3.150112,-6.126297,2.731382,-3.116907,6.194032,-2.884862,-0.091910,0.600032,-0.046895,0.545218,188.948236,0
0.126042,-186.581681,121.778405,76.460796,4.330488,5.244776,-5.429096,-0.019011,-5.193705,5.501074,-0.079180,-0.161317,0.593107,-0.031958,2.151238,188.872824,0
0.127083,-187.194176,37.344966,131.846213,5.371008,6.256606,-3.981357,-2.506902,-6.226591,4.147389,2.311550,-0.168623,0.598595,-0.058098,4.017388,188.872885,0
0.128125,-162.240675,-36.384791,173.345266,6.162708,6.572580,-2.015479,-4.681358,-6.645627,2.249812,4.519550,-0.216112,0.609177,-0.046895,5.261488,188.872713,0
