1-Time,2-VGERA,3-VGERB,4-VGERC,5-VN,6-IGERAN,7-IGERBN,8-IGERCN,9-IGERAT,10-IGERBT,11-IGERCT,12-IN,13-IFD,14-IFAULT,15-VFAULT,16-Speed (rad/s),17-Active Power,18-Reactive Power,19-FAULT 
0.000000,182.569995,-110.216583,-15.026603,0.021527,-5.050867,-0.569970,5.503272,5.384752,0.396063,-5.382026,0.025822,0.198866,-0.037689,-289.400024,188.420314,979.313933,-1294.368498,0
0.001042,192.197531,-57.657663,-86.648556,-1.397145,-3.711509,-2.995671,6.305679,4.017373,2.864915,-6.305565,0.036760,0.210303,-0.078573,-246.235608,188.344966,979.327367,-1294.050178,0
0.002083,155.879571,-13.472935,-155.171833,-2.703224,-1.458453,-4.544419,5.601680,1.942729,4.458677,-5.628051,-0.010640,0.202311,-0.063706,-162.710097,188.420325,978.520494,-1293.782566,0
0.003125,95.458871,33.330930,-204.531923,-3.671523,1.099169,-5.819622,4.205038,-0.472853,5.769198,-4.284378,-0.028871,0.201415,-0.045123,-56.363963,188.495740,978.392331,-1293.633815,0
0.004167,50.383469,105.386567,-179.681755,-3.176114,3.480657,-6.169599,2.244440,-2.732474,6.162354,-2.338890,-0.050748,0.201139,-0.089723,61.645796,188.495769,977.616712,-1293.464771,0
0.005208,7.861850,178.675430,-131.536831,-2.275370,5.131920,-5.562168,0.151370,-4.411775,5.659283,-0.117098,-0.123671,0.201966,-0.089723,174.544275,188.344798,976.644394,-1293.385666,0
0.006250,-49.360972,191.454001,-76.052298,-1.239515,6.163042,-3.727807,-2.547291,-5.365676,3.807644,2.551323,-0.192949,0.182674,-0.078573,242.150515,188.420233,975.552185,-1292.826969,0
0.007292,-136.709395,166.848205,-29.001026,-0.304993,6.438252,-1.865286,-4.379201,-5.655836,2.023645,4.466531,-0.203887,0.184121,-0.052556,304.645475,188.495741,975.348258,-1291.710148,0
0.008333,-182.507992,110.037591,15.303969,0.573233,5.058531,0.604665,-5.283801,-4.484315,-0.428297,5.427919,-0.243995,0.196868,-0.059989,289.829519,188.420294,975.541426,-1291.192640,0
0.009375,-192.146829,56.891421,87.071742,1.935608,3.737520,3.038412,-6.127842,-3.091547,-2.871784,6.287113,-0.236703,0.191080,-0.100873,246.012120,188.344952,975.029976,-1289.526308,0
0.010417,-155.670670,12.671458,155.303379,3.252946,1.539506,4.587161,-5.348145,-0.998768,-4.419044,5.594459,-0.247641,0.168481,-0.071140,162.610451,188.420339,974.483444,-1289.336311,0
0.011458,-94.978771,-33.474687,204.809290,4.277543,-1.062150,5.862364,-4.057481,1.434949,-5.750703,4.269711,-0.222118,0.174268,-0.074856,57.063658,188.495761,973.707113,-1288.990622,0
0.012500,-49.869469,-105.459854,179.934818,3.793393,-3.395935,6.212340,-2.127163,3.647419,-6.143859,2.339363,-0.182010,0.196248,-0.059989,-60.765968,188.420410,973.323043,-1289.039840,0
0.013542,-7.178351,-178.971872,131.765591,2.847611,-5.050867,5.612955,-0.000028,5.301331,-5.602741,0.227336,-0.123671,0.209339,-0.093440,-174.430013,188.344901,974.082956,-1288.474727,0
0.014583,49.592474,-191.679973,76.985855,1.766719,-6.096667,3.770548,2.687278,6.324145,-3.810286,-2.448655,-0.054394,0.186050,-0.078573,-242.013736,188.420338,974.498918,-1287.617481,0
0.015625,137.031296,-166.827532,29.825217,0.877234,-6.393894,1.912050,4.587317,6.603424,-2.022060,-4.447132,-0.021578,0.188393,-0.074856,-307.886193,188.495649,974.108778,-1286.986935,0
0.016667,182.468296,-110.686383,-15.391153,-0.012251,-5.050867,-0.533765,5.431358,5.388379,0.404518,-5.374456,0.003945,0.199761,-0.059989,-289.647707,188.420204,974.144042,-1287.085602,0
0.017708,192.061932,-57.986523,-87.183230,-1.329589,-3.674815,-2.955444,6.264044,4.028254,2.890280,-6.241220,0.011237,0.193560,-0.059989,-246.742232,188.344921,973.854124,-1286.811250,0
0.018750,156.150770,-13.367230,-155.451321,-2.691964,-1.487809,-4.568556,5.567616,1.989880,4.475587,-5.620481,-0.014286,0.189840,-0.063706,-162.698839,188.420345,974.399086,-1286.843191,0
0.019792,95.922168,33.542341,-204.665592,-3.660264,1.084492,-5.807554,4.227748,-0.443837,5.769198,-4.231388,-0.025225,0.183983,-0.089723,-56.521579,188.495779,974.117920,-1286.684577,0
0.020833,50.869365,105.903348,-179.766816,-3.153596,3.436624,-6.193735,2.236870,-2.710712,6.183491,-2.365385,-0.087210,0.191769,-0.052556,61.882221,188.420273,974.758492,-1286.766360,0
0.021875,7.590651,178.734155,-131.573286,-2.297889,5.153937,-5.578259,0.094595,-4.382759,5.684648,-0.192798,-0.116379,0.192940,-0.071140,174.679375,188.269583,975.792812,-1286.044833,0
0.022917,-49.767770,191.465746,-76.210270,-1.273292,6.155703,-3.719761,-2.520797,-5.362049,3.845691,2.524828,-0.167425,0.173717,-0.078573,242.533298,188.420269,976.480065,-1285.802538,0
0.023958,-137.093593,166.883440,-28.976722,-0.316252,6.434583,-1.841150,-4.405696,-5.684852,2.040555,4.496811,-0.222118,0.185499,-0.082290,304.758058,188.495662,976.984732,-1286.318808,0
0.025000,-182.598392,109.849671,15.510548,0.539455,5.087886,0.681097,-5.348145,-4.506077,-0.411387,5.424134,-0.236703,0.198177,-0.082290,290.054686,188.420356,977.445821,-1286.151214,0
0.026042,-192.022530,57.044106,87.436293,1.980645,3.697156,3.074617,-6.165692,-3.077039,-2.871784,6.370383,-0.240349,0.193078,-0.052556,245.922053,188.269530,977.902809,-1286.937414,0
0.027083,-155.116973,12.871123,155.959569,3.230428,1.466117,4.679683,-5.412489,-1.020530,-4.461319,5.643664,-0.229410,0.201691,-0.078573,161.901177,188.420464,978.687354,-1287.537322,0
0.028125,-94.933571,-33.709587,204.821441,4.243765,-1.106184,5.898568,-4.049911,1.467592,-5.754930,4.254571,-0.211179,0.191287,-0.074856,56.444450,188.420262,978.383813,-1287.775205,0
0.029167,-49.699970,-105.941399,179.582419,3.725837,-3.439968,6.204295,-2.112023,3.705451,-6.139631,2.373428,-0.178364,0.187842,-0.067423,-62.330875,188.420312,978.671870,-1288.096573,0
0.030208,-6.861953,-179.054087,131.461799,2.836352,-5.124257,5.649159,0.026467,5.399260,-5.598513,0.140281,-0.130964,0.165105,-0.056273,-174.733988,188.269454,978.004454,-1289.542490,0
0.031250,49.694173,-191.339368,76.001570,1.811756,-6.133362,3.766525,2.744052,6.378550,-3.793376,-2.539495,-0.058040,0.172133,-0.074856,-242.295194,188.420321,977.623678,-1290.478279,0
0.032292,137.087796,-166.815787,28.913842,0.888493,-6.408572,1.899982,4.557037,6.675964,-1.996695,-4.484982,-0.028871,0.185637,-0.059989,-307.266985,188.420311,978.148343,-1291.282204,0
0.033333,182.524795,-109.547117,-15.609883,0.010268,-5.025181,-0.614219,5.495702,5.388379,0.434110,-5.408521,-0.025225,0.196179,-0.063706,-289.107308,188.420235,978.117337,-1291.415920,0
0.034375,192.254031,-56.741552,-87.195381,-1.397145,-3.689493,-2.983603,6.320818,4.028254,2.924099,-6.294210,0.011237,0.197970,-0.045123,-245.965408,188.269590,978.559528,-1291.868527,0
0.035417,155.325875,-12.779979,-155.427018,-2.703224,-1.465792,-4.572578,5.578970,1.917340,4.475587,-5.616696,0.000299,0.198590,-0.093440,-162.462414,188.420374,977.886308,-1291.731115,0
0.036458,94.950374,33.800731,-204.580530,-3.626486,1.106508,-5.843759,4.205038,-0.487361,5.769198,-4.220033,-0.058040,0.197970,-0.074856,-56.386479,188.420258,977.566669,-1291.646406,0
0.037500,50.225270,105.903348,-179.353659,-3.176114,3.454971,-6.181667,2.274720,-2.717966,6.183491,-2.350245,-0.068979,0.143608,-0.082290,61.758379,188.495707,977.442269,-1291.403761,0
0.038542,7.601951,178.933820,-131.366708,-2.309148,5.150267,-5.566191,0.117305,-4.382759,5.650828,-0.185228,-0.116379,0.172890,-0.082290,174.656858,188.269490,977.103794,-1291.252630,0
0.039583,-50.050268,191.031181,-76.550517,-1.250774,6.185059,-3.703670,-2.532151,-5.372930,3.845691,2.551323,-0.182010,0.186188,-0.071140,242.555814,188.420285,976.940283,-1291.581247,0
0.040625,-137.489090,166.824715,-29.462789,-0.282474,6.449261,-1.853218,-4.413266,-5.706614,2.019417,4.504381,-0.225764,0.187291,-0.089723,305.185874,188.420206,976.894534,-1292.039049,0
0.041667,-182.507992,110.249001,15.413334,0.584492,5.051192,0.689143,-5.363285,-4.477061,-0.457890,5.454414,-0.214826,0.197694,-0.104590,290.268594,188.495651,976.215504,-1292.751310,0
0.042708,-192.056429,57.490416,87.849449,1.958127,3.715504,3.054503,-6.146767,-3.080666,-2.914059,6.362813,-0.265872,0.200106,-0.037689,246.192253,188.269465,976.100521,-1293.261540,0
0.043750,-155.523771,13.235218,155.947418,3.219168,1.506481,4.679683,-5.374640,-1.038665,-4.461319,5.617169,-0.222118,0.207754,-0.056273,162.464093,188.420285,975.958041,-1293.255975,0
0.044792,-95.453368,-33.780057,204.979413,4.232505,-1.076828,5.894545,-4.023417,1.402306,-5.746475,4.284851,-0.196595,0.203138,-0.082290,56.557033,188.420193,976.783037,-1292.923985,0
0.045833,-50.231067,-106.094084,179.448751,3.793393,-3.388596,6.204295,-2.089314,3.643792,-6.122721,2.343148,-0.171072,0.196041,-0.019106,-61.858025,188.495597,976.493081,-1292.346847,0
0.046875,-7.223551,-179.429927,131.291676,2.881389,-5.127926,5.645137,0.075671,5.344855,-5.615423,0.162991,-0.112733,0.184879,-0.059989,-174.970413,188.268225,976.858735,-1291.758677,0
0.047917,50.010571,-191.456818,76.232451,1.732941,-6.133362,3.770548,2.725127,6.338653,-3.827196,-2.531925,-0.079917,0.183157,-0.059989,-242.542877,188.344929,977.197396,-1291.393083,0
0.048958,137.438093,-166.768807,29.169027,0.832197,-6.437928,1.948255,4.568392,6.628813,-1.984012,-4.492552,-0.006994,0.185430,-0.063706,-307.796127,188.420314,976.722251,-1291.244692,0
0.050000,182.660394,-109.641077,-15.719248,-0.000992,-5.025181,-0.594106,5.503272,5.377498,0.480612,-5.435016,0.007591,0.197901,-0.071140,-288.814591,188.420283,976.376934,-1291.881876,0
0.051042,192.039332,-56.800277,-87.474870,-1.374626,-3.700501,-2.983603,6.294324,4.010119,2.907189,-6.320705,0.000299,0.201277,-0.056273,-245.289908,188.269481,976.474336,-1291.921836,0
0.052083,155.359775,-12.674274,-155.657900,-2.714483,-1.458453,-4.568556,5.590325,1.978999,4.509407,-5.639406,-0.003348,0.196937,-0.052556,-161.426648,188.344912,977.404006,-1292.158232,0
0.053125,94.566177,34.012141,-204.823563,-3.671523,1.110178,-5.847781,4.227748,-0.516377,5.752288,-4.280593,-0.054394,0.215057,-0.059989,-55.193097,188.420419,977.957311,-1292.238115,0
0.054167,49.750673,106.302678,-179.365811,-3.119818,3.436624,-6.189713,2.289859,-2.786879,6.229994,-2.365385,-0.076271,0.197557,-0.059989,63.255736,188.495613,978.454437,-1293.157061,0
0.055208,7.070855,179.098251,-130.929248,-2.286629,5.168615,-5.566191,0.143800,-4.422656,5.646601,-0.181443,-0.105440,0.172822,-0.082290,175.107191,188.269469,978.618085,-1293.344503,0
0.056250,-50.095467,191.289571,-75.469018,-1.194477,6.207076,-3.747920,-2.498087,-5.387438,3.887966,2.521043,-0.152841,0.196110,-0.048839,243.118730,188.344860,979.572017,-1292.912434,0
0.057292,-137.534290,166.883440,-28.551414,-0.259955,6.478617,-1.917582,-4.375416,-5.702987,2.053237,4.443821,-0.196595,0.187291,-0.100873,305.174616,188.420359,980.280520,-1291.870071,0
0.058333,-182.722691,109.332891,15.790036,0.584492,5.117242,0.660984,-5.355715,-4.448045,-0.398705,5.431704,-0.229410,0.197488,-0.063706,290.414952,188.420403,980.629949,-1290.714808,0
0.059375,-191.988630,57.138066,87.970966,2.014423,3.748529,3.066572,-6.131627,-3.087920,-2.880239,6.343888,-0.258580,0.195490,-0.037689,246.383645,188.269509,980.837745,-1290.061769,0
0.060417,-154.947475,13.164748,156.336271,3.331761,1.502811,4.639456,-5.412489,-1.016903,-4.474002,5.605814,-0.247641,0.184121,-0.063706,162.464093,188.420359,980.614759,-1290.062247,0
0.061458,-95.283869,-33.932742,204.955110,4.209987,-1.065820,5.918682,-4.049911,1.445830,-5.754930,4.296206,-0.240349,0.183570,-0.104590,56.793458,188.420195,980.506608,-1290.438710,0
0.062500,-50.423165,-106.540395,179.278627,3.748356,-3.406943,6.228431,-2.123378,3.683689,-6.160769,2.350718,-0.192949,0.203206,-0.048839,-62.184517,188.495808,980.827836,-1291.155844,0
0.063542,-7.099252,-179.394692,131.716984,2.836352,-5.091231,5.629046,0.045391,5.333974,-5.640788,0.197056,-0.127317,0.193905,-0.089723,-174.824055,188.269447,981.410876,-1291.064725,0
0.064583,50.281769,-191.198428,76.633456,1.823015,-6.151709,3.794684,2.725127,6.338653,-3.810286,-2.497860,-0.054394,0.184603,-0.086006,-242.745527,188.420332,981.406721,-1290.779117,0
0.065625,137.664092,-166.745317,29.278392,0.877234,-6.423250,1.928141,4.553252,6.646948,-1.996695,-4.477412,-0.021578,0.187222,-0.078573,-307.694802,188.420307,981.766595,-1290.735016,0
0.066667,182.682994,-109.782018,-15.719248,-0.023510,-5.036189,-0.606174,5.529766,5.388379,0.446792,-5.370671,0.011237,0.200175,-0.071140,-289.478832,188.495606,982.000485,-1289.882574,0
0.067708,192.141032,-57.176117,-87.681448,-1.419663,-3.729857,-2.991648,6.282969,4.035508,2.907189,-6.286640,0.029468,0.196179,-0.048839,-245.548850,188.269534,982.099856,-1289.717427,0
0.068750,155.212876,-12.885684,-155.876630,-2.725742,-1.425428,-4.592692,5.571401,1.924594,4.471359,-5.590201,0.007591,0.208718,-0.067423,-161.437907,188.420271,981.113973,-1289.294137,0
0.069792,94.927774,34.153081,-204.787108,-3.716561,1.146873,-5.815599,4.201253,-0.523631,5.748060,-4.257883,-0.032517,0.201691,-0.052556,-55.260647,188.420148,980.813503,-1289.373986,0
0.070833,49.773273,106.326168,-179.147081,-3.198633,3.440293,-6.165576,2.282290,-2.750609,6.217311,-2.335105,-0.072625,0.207892,-0.078573,63.413353,188.495709,980.497700,-1288.897921,0
0.071875,7.195154,179.145231,-130.868489,-2.309148,5.109903,-5.542054,0.132445,-4.386386,5.680421,-0.154948,-0.094502,0.193698,-0.063706,175.332358,188.269577,980.548645,-1288.836211,0
0.072917,-50.276266,191.172121,-75.529776,-1.216996,6.166711,-3.715738,-2.528366,-5.362049,3.824554,2.532398,-0.192949,0.187084,-0.063706,243.118730,188.420298,979.696630,-1288.629507,0
0.073958,-137.669889,166.601560,-28.454200,-0.259955,6.438252,-1.841150,-4.371631,-5.655836,2.036327,4.489241,-0.218472,0.183363,-0.089723,305.028258,188.420282,979.091575,-1288.721098,0
0.075000,-182.587092,109.168461,15.984463,0.595751,5.043853,0.697188,-5.351930,-4.429910,-0.411387,5.461984,-0.225764,0.196179,-0.089723,289.536803,188.495636,978.903700,-1288.959022,0
0.076042,-191.999930,56.374640,88.153241,1.958127,3.744859,3.050481,-6.127842,-3.073412,-2.905604,6.359028,-0.254934,0.186739,-0.056273,245.167746,188.269391,978.926456,-1289.098057,0
0.077083,-154.755376,12.342597,156.081086,3.252946,1.477125,4.607274,-5.397349,-1.006022,-4.465547,5.602029,-0.203887,0.193836,-0.071140,161.191902,188.420314,978.917260,-1288.719679,0
0.078125,-94.379875,-34.155898,205.161688,4.142431,-1.073159,5.870409,-4.030987,1.409560,-5.729565,4.292421,-0.189302,0.194938,-0.056273,55.735175,188.420249,979.242492,-1287.847657,0
0.079167,-49.236673,-106.399455,179.315082,3.793393,-3.436299,6.208318,-2.108238,3.672808,-6.173451,2.305299,-0.160133,0.187222,-0.030256,-62.691141,188.495636,979.067481,-1287.575004,0
0.080208,-6.805454,-179.723553,130.987884,2.858871,-5.116918,5.621000,0.034036,5.373871,-5.640788,0.174346,-0.163779,0.192458,-0.074856,-175.161804,188.269557,979.084841,-1287.873119,0
0.081250,50.360869,-191.315878,76.086631,1.789237,-6.133362,3.754457,2.728912,6.345907,-3.806059,-2.524355,-0.054394,0.180814,-0.071140,-242.869369,188.420356,979.053655,-1288.027177,0
0.082292,138.014389,-166.592631,29.132572,0.877234,-6.408572,1.948255,4.560822,6.621559,-1.996695,-4.439562,-0.017932,0.185981,-0.056273,-308.325268,188.420204,979.070458,-1287.348446,0
0.083333,182.750794,-109.676312,-15.913675,-0.023510,-5.006833,-0.642379,5.507057,5.355736,0.484840,-5.400951,0.025822,0.201622,-0.052556,-289.366249,188.495716,978.591407,-1287.782666,0
0.084375,191.926333,-57.270077,-88.155363,-1.385885,-3.678484,-3.031876,6.309463,4.031881,2.902962,-6.316920,0.003945,0.199624,-0.086006,-245.751500,188.269469,978.883761,-1287.986995,0
0.085417,154.896478,-13.061859,-156.168270,-2.748261,-1.498817,-4.632919,5.582755,1.920967,4.530544,-5.578846,0.000299,0.205067,-0.045123,-161.516715,188.420292,978.736661,-1288.553187,0
0.086458,95.198972,34.282276,-204.835715,-3.716561,1.128525,-5.847781,4.231533,-0.512750,5.790335,-4.257883,-0.025225,0.191700,-0.067423,-55.474555,188.420211,979.018820,-1288.996624,0
0.087500,50.304369,106.948654,-179.074171,-3.142336,3.451302,-6.177645,2.267150,-2.761490,6.234221,-2.319965,-0.068979,0.190391,-0.056273,63.627261,188.495749,979.060251,-1289.444779,0
0.088542,7.443752,179.521071,-131.123675,-2.264111,5.194301,-5.574236,0.109735,-4.429910,5.667738,-0.143593,-0.112733,0.190184,-0.071140,175.231033,188.269436,978.906646,-1290.157133,0
0.089583,-50.513565,191.019436,-75.784962,-1.239515,6.254779,-3.747920,-2.596495,-5.441843,3.887966,2.574033,-0.182010,0.192389,-0.086006,243.433964,188.420390,979.737218,-1291.403258,0
0.090625,-138.167085,166.660285,-28.782295,-0.316252,6.467608,-1.837127,-4.420835,-5.713868,1.998280,4.546016,-0.214826,0.184121,-0.059989,304.938191,188.420231,979.815446,-1292.742102,0
0.091667,-182.926090,108.898325,15.887250,0.573233,5.087886,0.709256,-5.393564,-4.480688,-0.512847,5.496049,-0.233057,0.196523,-0.097156,289.852036,188.495725,979.691749,-1294.030207,0
0.092708,-191.977330,56.914911,88.493488,1.958127,3.733851,3.106799,-6.188401,-3.098801,-2.914059,6.370383,-0.243995,0.192665,-0.059989,245.291587,188.344905,980.038291,-1294.383301,0
0.093750,-153.953081,12.906358,156.761580,3.252946,1.455108,4.699797,-5.461693,-1.064054,-4.495139,5.666374,-0.236703,0.213610,-0.056273,160.719053,188.420329,981.218601,-1294.764904,0
0.094792,-94.458974,-34.332073,205.113081,4.232505,-1.098845,5.938795,-4.008277,1.445830,-5.822570,4.296206,-0.207533,0.184466,-0.059989,55.374909,188.420269,981.384675,-1296.019817,0
0.095833,-49.270573,-107.162880,179.072049,3.658281,-3.506019,6.264636,-2.070389,3.745348,-6.169224,2.328008,-0.178364,0.189151,-0.063706,-64.256048,188.495624,981.582671,-1296.632058,0
0.096875,-6.590755,-179.887983,130.817761,2.813834,-5.146273,5.596864,0.102165,5.424649,-5.623878,0.113786,-0.098148,0.189220,-0.078573,-175.364454,188.344983,981.011640,-1297.419485,0
0.097917,50.665967,-191.104467,75.333228,1.766719,-6.181065,3.746412,2.793256,6.407566,-3.810286,-2.584915,-0.039809,0.173579,-0.037689,-243.421026,188.420274,981.159508,-1298.254013,0
0.098958,138.183888,-166.580886,28.464230,0.843456,-6.452606,1.956300,4.598672,6.679591,-1.958647,-4.522832,-0.061686,0.182743,-0.063706,-307.649768,188.420287,981.330533,-1299.569647,0
0.100000,182.897693,-108.302146,-16.035192,-0.023510,-5.025181,-0.654447,5.544906,5.366617,0.497522,-5.427446,-0.003348,0.195007,-0.093440,-288.724525,188.495718,981.538105,-1299.477324,0
0.101042,191.948933,-56.330477,-88.191818,-1.408404,-3.696832,-2.983603,6.347313,3.995611,2.974829,-6.335845,0.014883,0.196592,-0.059989,-244.839575,188.344945,981.111289,-1300.066631,0
0.102083,154.003784,-12.439374,-156.411303,-2.737001,-1.491478,-4.644987,5.639529,1.975372,4.513634,-5.624266,0.000299,0.220294,-0.048839,-160.627307,188.420321,982.282878,-1299.446396,0
0.103125,94.227179,34.517176,-204.945080,-3.750339,1.135864,-5.863872,4.227748,-0.530885,5.798790,-4.288163,-0.028871,0.194043,-0.067423,-55.170580,188.420253,982.689442,-1299.376812,0
0.104167,49.366475,107.019124,-178.770379,-3.119818,3.487996,-6.205804,2.274720,-2.757863,6.221539,-2.285900,-0.061686,0.185292,-0.086006,64.190177,188.495665,982.408757,-1298.910524,0
0.105208,7.127354,179.885166,-130.589001,-2.207814,5.208979,-5.582282,0.102165,-4.400894,5.697330,-0.154948,-0.116379,0.180676,-0.067423,175.478716,188.420296,983.013928,-1298.440273,0
0.106250,-50.705663,190.631850,-75.712052,-1.250774,6.243770,-3.723784,-2.600280,-5.427335,3.773824,2.604313,-0.182010,0.183570,-0.082290,243.490255,188.495779,981.503633,-1298.373473,0
0.107292,-138.573883,166.554580,-29.146846,-0.282474,6.482286,-1.873332,-4.435975,-5.706614,1.989825,4.542231,-0.229410,0.186050,-0.078573,305.298457,188.420298,981.404249,-1298.394874,0
0.108333,-182.801791,109.004030,15.935856,0.528196,5.076878,0.725347,-5.416274,-4.462553,-0.470572,5.488479,-0.233057,0.198866,-0.078573,289.930844,188.495673,981.510743,-1297.941385,0
0.109375,-191.954730,57.372966,89.064617,1.969386,3.777885,3.070594,-6.214896,-3.106055,-2.897149,6.366598,-0.236703,0.197281,-0.086006,245.595562,188.420367,981.779769,-1297.887160,0
