1-Time,2-VGERA,3-VGERB,4-VGERC,5-VN,6-IGERAN,7-IGERBN,8-IGERCN,9-IGERAT,10-IGERBT,11-IGERCT,12-IN,13-IFD,14-IFAULT,15-VFAULT,16-Speed (rad/s),17-Active Power,18-Reactive Power,19-FAULT 
0.000000,-166.460085,164.581047,21.432386,3.256038,3.686204,-6.438537,2.136405,-3.539618,6.489320,-2.189530,-0.044421,0.591474,-0.024490,-165.530818,188.495700,1639.306657,868.582483,0
0.001042,-180.989829,110.555245,89.780871,4.601928,5.503947,-5.466234,-0.471822,-5.491441,5.628998,0.332983,-0.128440,0.583570,-0.017021,-176.897368,188.571225,1639.107929,868.377534,0
0.002083,-186.456914,24.382156,139.798864,5.551968,6.494474,-3.866894,-2.871093,-6.392000,4.034254,2.684720,-0.168623,0.594153,0.009119,-171.694768,188.495770,1639.618063,868.252406,0
0.003125,-157.465483,-49.963727,169.775190,6.140088,6.462522,-1.652425,-4.792749,-6.520651,1.885548,4.570379,-0.212459,0.604539,-0.035692,-135.581939,188.646433,1640.428735,867.778437,0
0.004167,-81.697579,-106.381549,194.113258,6.581178,5.471994,1.212893,-6.378581,-5.535550,-0.917843,6.125158,-0.248989,0.610092,0.005384,-73.388250,188.571062,1640.694439,868.009781,0
0.005208,-7.801189,-153.424589,180.226894,6.321048,3.814014,3.268619,-6.535298,-3.903517,-3.032976,6.441806,-0.270907,0.606238,-0.024490,-5.697901,188.571062,1641.185555,867.993949,0
0.006250,61.444777,-186.937016,131.390720,5.416248,1.282666,5.395780,-5.927085,-1.422386,-5.051586,5.787162,-0.245336,0.602318,-0.005818,64.039557,188.495709,1640.820023,868.358500,0
0.007292,115.230914,-196.891681,49.217424,3.889398,-1.223831,6.379989,-4.419612,1.161667,-6.293807,4.428065,-0.194194,0.600293,-0.024490,125.475476,188.646451,1640.838306,868.713633,0
0.008333,166.056659,-164.623587,-20.706818,2.588748,-3.474707,6.586355,-2.348701,3.378144,-6.499445,2.424997,-0.154011,0.599575,-0.017021,170.308315,188.571471,1640.233626,869.008827,0
0.009375,180.609087,-111.648823,-89.473864,1.220238,-5.335053,5.657707,0.311765,5.352022,-5.672696,-0.122421,-0.095563,0.594349,-0.046895,182.059404,188.571194,1640.014786,868.813120,0
0.010417,186.155570,-24.811285,-139.738069,0.270198,-6.314930,4.062336,2.696111,6.326095,-4.098936,-2.463484,-0.062686,0.581218,-0.009553,176.144275,188.495720,1640.426276,869.183126,0
0.011458,156.880576,51.117197,-169.406629,-0.295302,-6.343332,1.851835,4.599110,6.465774,-1.941836,-4.338469,-0.029809,0.563188,-0.002084,139.556425,188.646413,1640.180068,870.492630,0
0.012500,80.454808,107.257158,-193.461554,-0.792942,-5.416709,-0.989671,6.263300,5.425537,0.882538,-5.935943,0.014027,0.616624,-0.046895,77.702037,188.571084,1639.249531,870.124022,0
0.013542,7.261652,153.539101,-180.276894,-0.510192,-3.783581,-3.025555,6.457332,3.830261,2.993475,-6.249033,0.032292,0.606434,-0.050629,11.108758,188.571062,1639.251565,871.001341,0
0.014583,-60.986173,186.435403,-132.056250,0.371988,-1.252233,-5.105093,5.826730,1.349130,5.045657,-5.633526,0.028639,0.612052,-0.017021,-58.640010,188.495656,1637.936824,871.823548,0
0.015625,-115.509573,197.320297,-49.747538,1.921458,1.279116,-6.204390,4.304331,-1.216544,6.275288,-4.228176,-0.044421,0.599248,-0.005818,-120.630119,188.721842,1636.419485,872.792646,0
0.016667,-165.870275,164.121973,21.666288,3.301278,3.611648,-6.434568,2.218495,-3.447724,6.459943,-2.257129,-0.055380,0.594414,-0.024490,-165.202828,188.571040,1634.750414,873.794943,0
0.017708,-181.057884,110.990157,89.546970,4.590618,5.454243,-5.482108,-0.400926,-5.436305,5.691948,0.279616,-0.128440,0.590690,-0.020755,-177.055708,188.571127,1634.400467,874.898576,0
0.018750,-185.935159,25.276143,139.614205,5.518038,6.451871,-3.966109,-2.766615,-6.362594,4.164352,2.577985,-0.179582,0.596178,-0.009553,-171.502498,188.495716,1633.371633,876.777798,0
0.019792,-157.953210,-49.335520,169.885985,6.140088,6.473173,-1.751639,-4.703196,-6.583139,1.994662,4.552590,-0.241683,0.609439,-0.039427,-135.819449,188.721904,1633.753835,878.364887,0
0.020833,-82.434842,-106.804380,193.079167,6.592488,5.532349,1.058118,-6.359924,-5.579659,-0.817123,6.103811,-0.234377,0.612509,-0.031958,-73.026330,188.495631,1632.935681,879.675132,0
0.021875,-7.007214,-153.134647,181.027084,6.321048,3.916972,3.177342,-6.535298,-3.966005,-2.961633,6.402670,-0.285519,0.598007,-0.020755,-5.856241,188.571118,1631.924831,880.822790,0
0.022917,61.773709,-185.801411,132.067803,5.393628,1.392724,5.264817,-5.934548,-1.473846,-5.013815,5.790720,-0.245336,0.599966,-0.005818,63.541917,188.495693,1631.172662,881.248316,0
0.023958,115.174202,-197.399079,50.103788,3.945948,-1.106671,6.383958,-4.468119,1.106530,-6.277020,4.470759,-0.205153,0.603886,-0.005818,125.452856,188.721922,1631.146701,881.971366,0
0.025000,165.909207,-164.067865,-20.078977,2.566128,-3.435654,6.566513,-2.378552,3.300953,-6.482658,2.485481,-0.168623,0.598203,-0.043161,170.014255,188.571029,1629.946172,882.734973,0
0.026042,181.017417,-111.455528,-89.363068,1.231548,-5.285349,5.673581,0.203556,5.285858,-5.676893,-0.019243,-0.135746,0.590233,-0.017021,182.014164,188.571120,1628.703234,884.033077,0
0.027083,185.520390,-24.074350,-139.356440,0.304128,-6.307829,4.102022,2.632678,6.274635,-4.119920,-2.363864,-0.044421,0.574686,-0.024490,175.590085,188.495589,1626.763199,884.908921,0
0.028125,157.062056,50.935983,-169.554357,-0.283992,-6.393036,1.927238,4.614035,6.406962,-2.021573,-4.317122,-0.011544,0.599575,-0.020755,140.099305,188.721817,1625.921653,885.442100,0
0.029167,81.623085,107.365886,-192.722917,-0.781632,-5.448662,-0.910299,6.248375,5.480673,0.748244,-5.864786,-0.007891,0.601338,-0.013287,78.052647,188.495754,1624.584135,886.978204,0
0.030208,8.021600,153.382049,-180.781629,-0.555432,-3.797782,-2.977932,6.464794,3.892749,2.976688,-6.249033,0.043251,0.613554,-0.039427,11.380198,188.570709,1624.824709,887.511682,0
0.031250,-61.054228,185.988409,-132.253220,0.405918,-1.269984,-5.061438,5.841656,1.385887,5.041461,-5.626410,0.014027,0.603559,-0.013287,-58.640010,188.495702,1624.512020,887.751039,0
0.032292,-115.191983,197.561915,-49.267424,1.955388,1.279116,-6.164704,4.304331,-1.209192,6.266895,-4.277986,-0.026156,0.597027,-0.020755,-120.664049,188.721829,1624.482836,888.397511,0
0.033333,-165.722823,164.194459,21.383144,3.301278,3.569045,-6.438537,2.225958,-3.433021,6.510303,-2.289150,-0.037115,0.597419,-0.028224,-165.180208,188.561401,1624.839674,889.048678,0
0.034375,-181.091911,111.606283,89.485417,4.601928,5.418740,-5.521794,-0.367344,-5.421602,5.708735,0.204901,-0.124787,0.592977,-0.035692,-177.338458,188.571026,1624.605690,889.896384,0
0.035417,-185.901131,26.049321,139.737311,5.518038,6.430569,-3.918486,-2.759152,-6.399351,4.113992,2.549522,-0.197847,0.598203,-0.031958,-171.672148,188.495653,1624.857831,889.446771,0
0.036458,-157.885155,-49.613381,169.701326,6.094848,6.473173,-1.763545,-4.684539,-6.546381,1.994662,4.509895,-0.201500,0.601012,-0.046895,-135.310499,188.721886,1623.928705,889.387319,0
0.037500,-81.742949,-107.045998,193.214584,6.581178,5.550100,1.109710,-6.341267,-5.557605,-0.812926,6.089579,-0.234377,0.609961,-0.039427,-72.811440,188.495653,1623.429226,889.451891,0
0.038542,-6.655596,-152.989676,180.965531,6.366288,3.924073,3.145593,-6.531567,-3.958653,-2.978419,6.402670,-0.267254,0.569590,-0.031958,-6.127681,188.571058,1623.457272,889.320221,0
0.039583,61.331352,-185.777250,132.535606,5.438868,1.431778,5.233068,-5.953205,-1.514280,-4.946668,5.801394,-0.274560,0.607609,-0.020755,63.089517,188.495707,1622.796919,889.762778,0
0.040625,115.128832,-197.012490,50.756250,3.912018,-1.110222,6.340303,-4.475582,1.044043,-6.243446,4.456528,-0.190541,0.609047,-0.020755,125.158796,188.721759,1621.896090,889.831374,0
0.041667,165.659672,-164.212836,-20.275947,2.554818,-3.410802,6.538732,-2.423329,3.286250,-6.444888,2.496154,-0.164970,0.597615,-0.043161,169.833295,188.495640,1621.331715,889.757147,0
0.042708,180.722512,-111.129344,-89.535417,1.208928,-5.281799,5.729141,0.188630,5.249101,-5.681089,-0.029917,-0.110175,0.593173,-0.017021,181.776654,188.564681,1620.770425,889.782491,0
0.043750,185.520390,-24.146835,-139.381061,0.304128,-6.272326,4.157582,2.531931,6.241553,-4.161887,-2.324728,-0.040768,0.579716,0.016587,175.850215,188.495821,1620.156863,890.455410,0
0.044792,157.368304,50.404424,-169.566667,-0.272682,-6.322030,1.982798,4.468512,6.399610,-2.059344,-4.281544,-0.004238,0.605780,-0.058098,140.461225,188.721954,1619.779955,890.756172,0
0.045833,82.859418,107.377967,-192.107387,-0.736392,-5.452212,-0.846802,6.177479,5.495376,0.676900,-5.861228,0.050557,0.612640,-0.039427,78.312777,188.495803,1619.530577,891.267553,0
0.046875,8.032942,153.140431,-180.929357,-0.521502,-3.847486,-2.910466,6.405093,3.903776,2.892754,-6.213455,0.006721,0.614534,-0.043161,11.210548,188.571259,1618.322433,891.665683,0
0.047917,-61.780148,185.166908,-132.216288,0.371988,-1.316138,-4.982066,5.841656,1.485133,4.961723,-5.622852,0.046904,0.591736,-0.046895,-58.696560,188.495873,1616.651004,893.005574,0
0.048958,-115.271381,197.670644,-49.365909,1.966698,1.122903,-6.152799,4.416272,-1.139353,6.191354,-4.288660,-0.051727,0.598399,-0.031958,-120.686669,188.721976,1615.338400,893.582152,0
0.050000,-165.359863,163.977002,20.385985,3.289968,3.466087,-6.406788,2.345362,-3.341127,6.489320,-2.360307,-0.040768,0.600816,-0.002084,-164.671258,188.495731,1614.082048,894.302054,0
0.051042,-181.420844,112.439866,89.202273,4.567998,5.326433,-5.561480,-0.266597,-5.322357,5.742308,0.151533,-0.106522,0.591017,-0.039427,-177.553348,188.571214,1613.253007,895.123032,0
0.052083,-185.311321,26.097645,139.404925,5.529348,6.377315,-4.001826,-2.650942,-6.300106,4.181139,2.449902,-0.161317,0.597745,-0.028224,-171.050098,188.495893,1611.107952,896.152153,0
0.053125,-157.771730,-50.096617,169.713637,6.117468,6.458971,-1.874665,-4.598717,-6.528003,2.099579,4.410276,-0.227071,0.614469,-0.031958,-135.333119,188.722040,1609.443403,897.824267,0
0.054167,-82.287389,-107.505073,191.688069,6.569868,5.546550,0.982715,-6.266640,-5.535550,-0.678632,5.993518,-0.248989,0.589253,-0.020755,-73.071570,188.495801,1606.905470,898.689558,0
0.055208,-7.324804,-152.844705,181.334849,6.332358,3.956025,3.050347,-6.483059,-4.032168,-2.848322,6.381323,-0.234377,0.609635,-0.005818,-6.704491,188.571294,1605.705345,900.022098,0
0.056250,61.161214,-184.412108,133.274243,5.416248,1.492132,5.098136,-5.953205,-1.606173,-4.904701,5.801394,-0.238030,0.605650,-0.020755,62.682357,188.495734,1604.738241,900.611749,0
0.057292,115.174202,-197.423241,50.817803,3.878088,-1.014364,6.312523,-4.557672,0.985231,-6.172103,4.527685,-0.223418,0.602057,-0.017021,125.373686,188.700214,1603.889798,901.819757,0
0.058333,164.956437,-163.777923,-20.362121,2.509578,-3.293643,6.550638,-2.453180,3.220087,-6.415511,2.545964,-0.172276,0.594740,0.001650,169.222555,188.545459,1602.523260,902.370794,0
0.059375,181.074130,-111.250153,-89.326137,1.276788,-5.210793,5.729141,0.102809,5.201316,-5.685286,0.059029,-0.121134,0.598399,-0.020755,182.127264,188.466095,1601.668635,903.390277,0
0.060417,184.873867,-25.064984,-139.319508,0.270198,-6.197770,4.161551,2.483423,6.186417,-4.191264,-2.225108,-0.055380,0.583766,-0.005818,175.918075,188.561651,1600.186714,903.950761,0
0.061458,157.912744,49.486275,-169.886743,-0.306612,-6.336231,2.038358,4.487168,6.381232,-2.105507,-4.213945,-0.018850,0.607479,-0.009553,141.060655,188.709119,1599.557686,904.312641,0
0.062500,83.732790,107.679990,-191.368751,-0.804252,-5.413159,-0.795210,6.091657,5.432888,0.689490,-5.782955,0.021333,0.609308,-0.028224,78.222297,188.495034,1598.419371,903.290300,0
0.063542,7.227625,153.007541,-181.286364,-0.521502,-3.847486,-2.894591,6.393898,3.973615,2.842394,-6.149413,0.046904,0.563972,-0.035692,11.006968,188.496100,1597.216829,904.314535,0
0.064583,-62.301903,184.756157,-132.462500,0.394608,-1.333889,-4.990004,5.822999,1.463078,4.923953,-5.608621,-0.026156,0.608851,-0.039427,-58.470360,188.492767,1596.646174,904.081295,0
0.065625,-115.384806,197.658563,-50.092235,1.932768,1.130004,-6.128987,4.378959,-1.132002,6.224928,-4.356259,-0.037115,0.601926,-0.020755,-120.709289,188.646663,1597.443680,904.843328,0
0.066667,-165.643425,163.952840,19.819697,3.256038,3.458986,-6.371071,2.322974,-3.289667,6.485123,-2.399443,-0.084604,0.597615,-0.009553,-164.727808,188.495546,1596.962581,905.455501,0
0.067708,-181.341446,112.500270,89.226894,4.567998,5.344184,-5.521794,-0.251671,-5.318681,5.704538,0.155091,-0.106522,0.591997,-0.028224,-177.417628,188.495635,1596.685854,905.016614,0
0.068750,-185.254609,25.505681,139.478788,5.551968,6.334712,-3.981983,-2.621091,-6.252321,4.181139,2.467691,-0.183235,0.583439,-0.005818,-170.891758,188.495769,1596.142167,904.910442,0
0.069792,-157.612935,-50.422801,169.504357,6.106158,6.430569,-1.846885,-4.594986,-6.465515,2.137349,4.399602,-0.223418,0.597680,-0.024490,-135.389669,188.646446,1595.198625,904.998747,0
0.070833,-82.843172,-107.420506,191.601895,6.558558,5.567852,0.923186,-6.285297,-5.542902,-0.657648,5.979286,-0.270907,0.589188,-0.017021,-73.501350,188.495745,1595.083905,905.109574,0
0.071875,-7.959984,-152.832624,181.248675,6.354978,3.984428,3.062253,-6.501716,-4.054223,-2.848322,6.367091,-0.256295,0.613750,-0.013287,-6.817591,188.495694,1595.071778,905.081792,0
0.072917,60.854967,-184.544997,133.458902,5.438868,1.474381,5.098136,-5.938279,-1.639255,-4.841751,5.826299,-0.238030,0.609569,-0.005818,62.704977,188.495729,1594.535989,905.703860,0
0.073958,115.049434,-197.229947,50.251515,3.855468,-0.968211,6.249026,-4.527821,0.981555,-6.151119,4.492106,-0.216112,0.601142,-0.031958,125.373686,188.646473,1593.887907,905.362226,0
0.075000,164.831669,-163.729600,-20.669886,2.577438,-3.265241,6.503015,-2.501687,3.161275,-6.440691,2.560195,-0.164970,0.598921,-0.035692,169.290415,188.495711,1593.417792,906.094296,0
0.076042,181.096815,-111.600499,-89.449243,1.254168,-5.171740,5.697393,0.069226,5.175586,-5.676893,0.080376,-0.102869,0.589776,-0.043161,182.285604,188.495696,1593.078316,906.252080,0
0.077083,185.044005,-26.152265,-139.344129,0.304128,-6.162268,4.181394,2.468497,6.134956,-4.132510,-2.200204,-0.048074,0.594218,-0.009553,176.336545,188.495626,1592.500201,905.255141,0
0.078125,157.844689,49.172171,-169.763637,-0.317922,-6.286527,2.026453,4.397616,6.344474,-2.126491,-4.132114,-0.044421,0.605846,-0.058098,140.834455,188.646514,1591.165155,905.379391,0
0.079167,83.347145,107.921608,-191.011743,-0.770322,-5.388307,-0.743619,6.080463,5.432888,0.622343,-5.733145,0.024986,0.612052,-0.024490,77.577627,188.495627,1589.856565,906.127773,0
0.080208,6.376937,152.838409,-181.249432,-0.566742,-3.865238,-2.815220,6.378973,3.966264,2.783640,-6.138740,0.006721,0.582590,-0.043161,10.984348,188.495682,1588.887729,906.585229,0
0.081250,-62.256533,183.995060,-132.967235,0.371988,-1.440398,-4.886820,5.841656,1.554972,4.781266,-5.658431,-0.000585,0.596439,-0.024490,-57.995340,188.495658,1587.203085,908.091114,0
0.082292,-115.486888,197.622320,-50.855493,1.887528,1.055448,-6.093270,4.431198,-0.955566,6.178764,-4.377606,-0.011544,0.600685,-0.031958,-120.494399,188.721958,1585.598270,909.637981,0
0.083333,-165.212410,163.795789,19.351894,3.222108,3.281472,-6.311542,2.349093,-3.190422,6.380206,-2.427906,-0.066339,0.601534,-0.017021,-164.264098,188.495805,1583.407163,909.482625,0
0.084375,-181.568296,112.258652,89.128409,4.567998,5.276729,-5.505919,-0.173313,-5.201057,5.687751,0.087492,-0.102869,0.585987,-0.020755,-177.372388,188.495774,1581.536937,910.212393,0
0.085417,-184.902991,24.962040,139.023296,5.495418,6.267256,-4.041512,-2.505419,-6.189834,4.223106,2.360956,-0.186888,0.581284,-0.028224,-170.450668,188.495734,1579.615618,911.286183,0
0.086458,-157.703675,-49.782513,169.787501,6.083538,6.416368,-1.942131,-4.475582,-6.425082,2.137349,4.328445,-0.205153,0.602514,-0.024490,-135.932549,188.646437,1578.637911,911.075574,0
0.087500,-84.521862,-107.625882,190.260038,6.547248,5.550100,0.859689,-6.124848,-5.601714,-0.640861,5.893898,-0.197847,0.610810,-0.024490,-73.840650,188.493485,1577.935604,911.320655,0
0.088542,-8.402341,-152.735977,181.617993,6.343668,3.998629,2.990818,-6.456940,-4.068926,-2.768585,6.306608,-0.238030,0.607022,-0.039427,-6.806281,188.496194,1576.729896,911.519478,0
0.089583,61.524174,-183.336907,133.631250,5.438868,1.548937,5.010828,-5.897234,-1.650282,-4.720047,5.726679,-0.227071,0.591605,-0.005818,62.738907,188.496103,1574.094162,910.929703,0
0.090625,114.981379,-197.821911,50.029924,3.900708,-0.925607,6.249026,-4.516627,0.915391,-6.138529,4.484991,-0.205153,0.595394,-0.035692,125.418926,188.571561,1573.575176,911.523782,0
0.091667,164.377969,-163.500063,-19.931250,2.577438,-3.204886,6.483172,-2.516613,3.069381,-6.356757,2.599332,-0.168623,0.598072,-0.024490,168.985045,188.496201,1571.671562,911.499698,0
0.092708,181.482460,-112.470324,-88.846023,1.254168,-5.079433,5.697393,0.013256,5.138828,-5.689483,0.137302,-0.121134,0.589776,-0.028224,182.738004,188.496129,1571.454239,911.976715,0
0.093750,184.454195,-26.647582,-139.184091,0.292818,-6.144516,4.169488,2.416258,6.109226,-4.187067,-2.136162,-0.095563,0.595786,-0.031958,175.804975,188.496112,1570.584604,912.765835,0
0.094792,157.844689,49.498356,-169.812879,-0.329232,-6.272326,2.066138,4.352839,6.329771,-2.139081,-4.146346,-0.051727,0.587947,-0.043161,140.596945,188.571502,1570.552801,912.886949,0
0.095833,83.131638,108.284035,-190.322349,-0.679842,-5.391857,-0.751556,6.039418,5.443915,0.605556,-5.718914,-0.007891,0.588927,-0.020755,77.634177,188.496127,1570.018400,913.239721,0
0.096875,6.932720,152.693438,-181.618751,-0.578052,-3.879439,-2.803314,6.341659,3.940534,2.792033,-6.135182,0.003068,0.607022,-0.017021,11.583778,188.496177,1570.292082,912.635615,0
0.097917,-61.882231,183.656795,-133.348864,0.371988,-1.422646,-4.890789,5.826730,1.521890,4.781266,-5.647757,0.003068,0.601404,-0.013287,-57.599490,188.496226,1570.400258,911.878203,0
0.098958,-115.430176,197.586077,-51.249432,1.898838,1.055448,-6.073427,4.397616,-1.007026,6.187158,-4.377606,-0.040768,0.598791,-0.017021,-120.437849,188.496091,1570.983015,911.300303,0
0.100000,-164.996903,163.711222,19.955114,3.244728,3.334727,-6.327416,2.386407,-3.208800,6.363419,-2.417232,-0.069992,0.595002,-0.024490,-164.241478,188.496188,1570.847644,911.100172,0
0.101042,-181.386816,111.884144,89.288447,4.579308,5.262528,-5.505919,-0.225552,-5.234139,5.658374,0.087492,-0.121134,0.583243,-0.028224,-177.304528,188.496125,1570.850823,910.852632,0
0.102083,-184.834936,25.578166,139.195644,5.563278,6.270807,-3.989920,-2.550195,-6.171455,4.155958,2.371630,-0.135746,0.584092,-0.046895,-171.027478,188.496118,1570.752431,909.774703,0
0.103125,-158.112005,-49.226792,169.873675,6.083538,6.384416,-1.918320,-4.490508,-6.450812,2.107972,4.342677,-0.227071,0.602775,-0.020755,-136.339709,188.496103,1571.476211,909.360385,0
0.104167,-84.794082,-107.468830,190.567804,6.547248,5.535899,0.879532,-6.184550,-5.557605,-0.607288,5.897456,-0.238030,0.613815,-0.050629,-73.840650,188.496187,1571.247242,909.165418,0
0.105208,-8.073409,-152.591006,181.568751,6.332358,4.005729,2.943195,-6.442014,-4.083629,-2.764388,6.299492,-0.219765,0.615187,-0.031958,-6.478291,188.496038,1571.019130,909.381121,0
0.106250,61.853107,-183.626849,133.421970,5.461488,1.580889,4.998922,-5.874846,-1.650282,-4.782997,5.744468,-0.259948,0.595982,-0.043161,62.716287,188.496145,1571.885057,909.636618,0
0.107292,115.151517,-197.471565,50.325379,3.900708,-0.918507,6.177591,-4.539015,0.893337,-6.130136,4.492106,-0.201500,0.599117,-0.054364,125.328446,188.496206,1571.603552,909.839261,0
0.108333,164.661531,-163.753762,-19.291099,2.588748,-3.190685,6.518889,-2.583778,3.047326,-6.331577,2.606447,-0.205153,0.601469,0.001650,169.041595,188.496045,1571.372009,909.734839,0
0.109375,181.187555,-112.760266,-89.018371,1.208928,-5.097184,5.717236,-0.005401,5.116774,-5.664303,0.133744,-0.139399,0.593499,-0.017021,182.579664,188.496291,1570.974007,909.407375,0
0.110417,184.726415,-26.273074,-139.122538,0.258888,-6.137416,4.153614,2.378944,6.120253,-4.229034,-2.153952,-0.055380,0.581218,-0.024490,175.669255,188.496159,1571.349914,909.925460,0
