1-Time,2-VGERA,3-VGERB,4-VGERC,5-VN,6-IGERAN,7-IGERBN,8-IGERCN,9-IGERAT,10-IGERBT,11-IGERCT,12-IN,13-IFD,14-IFAULT,15-VFAULT,16-Speed (rad/s),17-Active Power,18-Reactive Power,19-FAULT 
0.000000,-67.723619,-92.730127,200.428599,6.649038,2.706327,3.649603,-5.852458,-2.580247,-3.511399,5.737353,-0.259948,0.429468,-0.058098,2.773288,188.496018,1640.645804,-40.119873,0
0.001042,-6.723651,-157.205912,172.692804,6.185328,0.476753,5.213225,-5.061407,-0.407879,-5.009619,4.951068,-0.238030,0.463633,-0.054364,2.761978,188.269933,1640.503225,-39.913886,0
0.002083,52.132584,-188.942447,121.049811,5.212668,-1.781224,5.828356,-3.326320,1.926223,-5.790203,3.378500,-0.212459,0.439855,-0.046895,2.863768,188.345323,1640.817944,-39.866297,0
0.003125,110.013364,-196.203070,41.449432,3.719748,-3.961095,5.836293,-1.173320,4.069185,-5.714663,1.275813,-0.143052,0.435870,-0.046895,2.942938,188.420464,1641.504103,-39.779769,0
0.004167,159.546064,-162.147001,-24.129167,2.543508,-5.249846,4.740964,0.968487,5.469646,-4.774604,-0.780623,-0.110175,0.438222,-0.020755,2.841148,188.495982,1641.446783,-39.859471,0
0.005208,191.361778,-88.332678,-75.156629,1.491678,-5.920849,2.927321,3.356563,6.035711,-2.957436,-3.057645,-0.055380,0.441880,-0.039427,2.829838,188.269883,1641.219605,-38.964078,0
0.006250,184.397482,-22.769612,-137.239016,0.315438,-5.601324,0.954935,4.655080,5.826193,-1.039547,-4.420300,-0.048074,0.452005,-0.024490,2.456608,188.345299,1641.146167,-39.275742,0
0.007292,137.133283,38.770513,-184.807198,-0.645912,-4.561092,-1.370655,5.748371,4.771253,1.251847,-5.484096,-0.007891,0.454161,-0.058098,2.286958,188.420576,1642.389679,-39.667591,0
0.008333,68.284305,93.339957,-200.343182,-0.883422,-2.608439,-3.497816,5.763297,2.867215,3.467701,-5.569484,-0.007891,0.459518,-0.043161,2.094688,188.496121,1643.242010,-39.427170,0
0.009375,7.817435,158.105683,-172.828978,-0.408402,-0.396616,-5.113030,4.946127,0.647062,5.033067,-4.779642,-0.040768,0.456774,-0.058098,2.083378,188.269859,1643.466925,-40.057514,0
0.010417,-52.036940,188.911988,-121.481440,0.575568,1.978520,-5.720223,3.117756,-1.687040,5.767488,-3.210632,-0.073645,0.448216,-0.028224,1.992898,188.270020,1644.383233,-40.038835,0
0.011458,-111.199423,196.281340,-41.794886,2.068488,4.115788,-5.636883,1.058039,-3.859408,5.700341,-1.065250,-0.143052,0.436719,-0.005818,1.879798,188.420888,1645.100581,-40.556629,0
0.012500,-159.949490,162.056138,24.497727,3.312588,5.411639,-4.609020,-1.136006,-5.252517,4.814839,1.012532,-0.139399,0.438548,-0.065566,1.970278,188.420826,1645.409058,-40.719346,0
0.013542,-192.320987,87.843145,75.512879,4.285248,6.082642,-2.747754,-3.531546,-5.796528,2.930524,3.293112,-0.194194,0.440051,-0.020755,2.049448,188.270165,1645.819691,-40.731332,0
0.014583,-184.335866,21.990137,137.238258,5.450178,5.731164,-0.799179,-4.800211,-5.620092,0.983259,4.634420,-0.227071,0.447106,-0.050629,2.354818,188.270085,1645.782445,-41.395100,0
0.015625,-136.629309,-39.127156,185.101895,6.332358,4.651880,1.526411,-5.878577,-4.535746,-1.282955,5.687543,-0.245336,0.468925,-0.058098,2.603638,188.420938,1647.350202,-41.785338,0
0.016667,-66.748164,-92.995907,200.108523,6.626418,2.709878,3.713101,-5.848726,-2.547165,-3.578546,5.751584,-0.227071,0.431363,-0.039427,2.761978,188.496313,1647.582362,-42.334078,0
0.017708,-6.258608,-157.846200,172.803599,6.174018,0.473202,5.252911,-5.072601,-0.389500,-5.076766,4.965300,-0.201500,0.454357,-0.061832,2.784598,188.270094,1648.606716,-42.614796,0
0.018750,52.291379,-188.326320,121.246781,5.190048,-1.802526,5.840262,-3.296469,1.948277,-5.790203,3.360711,-0.205153,0.455141,-0.061832,2.852458,188.269763,1648.387623,-43.053294,0
0.019792,110.750627,-196.505092,42.089583,3.753678,-3.978847,5.792639,-1.199439,4.094915,-5.777613,1.279371,-0.150358,0.442729,-0.039427,2.965558,188.420842,1649.657841,-43.110615,0
0.020833,159.693516,-161.820817,-23.759849,2.486958,-5.242746,4.756838,0.957292,5.499052,-4.782997,-0.777065,-0.124787,0.442076,-0.061832,2.807218,188.420824,1649.966470,-43.195030,0
0.021875,191.996958,-88.936723,-75.181250,1.491678,-5.942150,2.899541,3.360295,6.050414,-2.957436,-3.068318,-0.073645,0.443840,-0.054364,2.829838,188.270047,1650.553159,-43.481086,0
0.022917,184.079892,-23.313253,-137.435985,0.315438,-5.572921,0.978746,4.655080,5.796787,-1.052137,-4.388279,-0.044421,0.454161,-0.024490,2.388748,188.270239,1649.941999,-43.319339,0
0.023958,137.246708,38.661785,-185.004167,-0.589362,-4.536240,-1.394467,5.740909,4.771253,1.247650,-5.423613,-0.007891,0.459387,-0.050629,2.207788,188.420817,1649.335027,-43.109589,0
0.025000,67.751207,93.557413,-199.961554,-0.826872,-2.604889,-3.501785,5.707326,2.841484,3.501274,-5.526790,-0.015197,0.461804,-0.028224,2.072068,188.496340,1648.747501,-43.479782,0
0.026042,6.819295,157.924469,-172.742804,-0.351852,-0.339811,-5.069375,4.923739,0.639710,4.978510,-4.754738,-0.011544,0.452267,-0.017021,2.072068,188.270062,1647.823101,-42.999791,0
0.027083,-52.422585,188.815341,-120.902841,0.620808,1.953668,-5.660694,3.125218,-1.653958,5.729718,-3.164380,-0.077298,0.433453,-0.050629,2.015518,188.269780,1646.801475,-42.686644,0
0.028125,-110.757066,196.377987,-40.785417,2.102418,4.101587,-5.585291,1.043114,-3.830002,5.637391,-1.075924,-0.106522,0.436131,-0.043161,1.925038,188.420770,1645.738610,-42.257590,0
0.029167,-159.745325,161.983653,24.940909,3.323898,5.372586,-4.601082,-1.050185,-5.186354,4.760282,1.008974,-0.132093,0.433910,-0.024490,2.060758,188.495980,1644.464331,-42.114197,0
0.030208,-191.753862,87.625689,75.734470,4.307868,6.008086,-2.763628,-3.430799,-5.752419,2.901147,3.243302,-0.197847,0.438940,-0.050629,2.083378,188.269899,1643.284879,-41.733129,0
0.031250,-184.471976,22.074704,137.459849,5.472798,5.656609,-0.846802,-4.695733,-5.561280,1.021029,4.591726,-0.245336,0.452201,-0.065566,2.400058,188.269839,1642.451536,-41.186592,0
0.032292,-137.117037,-38.958023,184.646402,6.388908,4.651880,1.470851,-5.822607,-4.498989,-1.236792,5.577249,-0.259948,0.458277,-0.039427,2.592328,188.420640,1640.730122,-40.759821,0
0.033333,-67.791674,-93.080473,200.071592,6.682968,2.720529,3.609918,-5.815144,-2.639059,-3.515596,5.716006,-0.270907,0.458473,-0.043161,2.784598,188.495915,1640.532201,-39.567597,0
0.034375,-7.324804,-157.604582,172.545076,6.162708,0.505155,5.173540,-5.050213,-0.422582,-4.976045,4.936837,-0.241683,0.455794,-0.076769,2.761978,188.269841,1639.135271,-39.104051,0
0.035417,51.962447,-188.628343,121.702273,5.212668,-1.777674,5.784701,-3.292738,1.852708,-5.744040,3.392732,-0.190541,0.450111,-0.028224,2.829838,188.269861,1638.655699,-37.910094,0
0.036458,110.784654,-195.997694,42.323485,3.685818,-3.946894,5.776764,-1.162126,4.065509,-5.735646,1.300718,-0.168623,0.437242,-0.035692,2.942938,188.420622,1637.870892,-37.549606,0
0.037500,159.954394,-162.098678,-23.932197,2.441718,-5.203693,4.780650,0.953561,5.396131,-4.833358,-0.766391,-0.106522,0.440573,-0.039427,2.852458,188.496264,1637.470249,-36.512615,0
0.038542,191.520573,-88.405163,-75.341288,1.457748,-5.913748,2.871761,3.330444,6.024684,-2.936452,-3.054087,-0.022503,0.439202,-0.084238,2.795908,188.269724,1636.714451,-36.354814,0
0.039583,184.340770,-22.213890,-137.177463,0.304128,-5.537419,0.954935,4.643886,5.793112,-1.022760,-4.374048,-0.040768,0.446975,-0.054364,2.411368,188.409677,1636.437552,-36.288482,0
0.040625,136.509445,39.604095,-184.671781,-0.566742,-4.507838,-1.370655,5.729715,4.738171,1.243454,-5.444960,-0.048074,0.423393,-0.069301,2.241718,188.395645,1636.137654,-36.078094,0
0.041667,66.469505,93.750707,-200.318561,-0.883422,-2.583587,-3.549408,5.744640,2.867215,3.492881,-5.519675,0.010374,0.456055,-0.035692,2.083378,188.493365,1636.072057,-35.280539,0
0.042708,5.866525,158.057359,-172.496591,-0.385782,-0.357563,-5.065407,4.949858,0.628683,4.982707,-4.754738,-0.018850,0.443382,-0.035692,2.083378,188.296267,1636.042155,-35.006687,0
0.043750,-52.751518,188.936150,-120.730493,0.632118,1.950118,-5.652757,3.177458,-1.690716,5.708735,-3.175054,-0.051727,0.446191,-0.046895,2.038138,188.202282,1636.058985,-35.090300,0
0.044792,-111.290163,196.365906,-41.105493,2.136348,4.044782,-5.621008,1.076696,-3.789569,5.687751,-1.104387,-0.088257,0.435021,-0.024490,1.947658,188.420696,1636.583520,-34.246420,0
0.045833,-159.938148,162.007815,24.497727,3.346518,5.326433,-4.593145,-1.102424,-5.204733,4.777069,1.001859,-0.117481,0.438940,-0.058098,2.060758,188.420535,1636.971370,-34.267802,0
0.046875,-192.105479,88.507595,75.845265,4.296558,6.061340,-2.759659,-3.468112,-5.796528,2.926327,3.225513,-0.175929,0.443056,-0.084238,2.105998,188.345003,1637.857244,-34.091748,0
0.047917,-184.381236,23.113662,137.890720,5.484108,5.667259,-0.858708,-4.721853,-5.561280,1.075586,4.559705,-0.245336,0.454161,-0.065566,2.366128,188.269619,1637.829064,-33.489545,0
0.048958,-137.445969,-38.402302,185.151137,6.366288,4.651880,1.454977,-5.841264,-4.498989,-1.228398,5.577249,-0.256295,0.459126,-0.043161,2.547088,188.420269,1638.029655,-33.629558,0
0.050000,-68.302086,-93.237525,199.874622,6.660348,2.706327,3.649603,-5.785293,-2.631708,-3.435859,5.730237,-0.248989,0.460890,-0.054364,2.750668,188.420323,1637.672872,-33.027607,0
0.051042,-7.256749,-157.954928,172.532766,6.151398,0.444800,5.193383,-5.024094,-0.433609,-4.988635,4.901259,-0.208806,0.452005,-0.028224,2.739358,188.344775,1637.535255,-33.084446,0
0.052083,52.393462,-188.229673,120.951326,5.212668,-1.795425,5.768827,-3.240499,1.896817,-5.693680,3.328690,-0.208806,0.448935,-0.020755,2.818528,188.269507,1636.376916,-33.700377,0
0.053125,110.898079,-196.203070,41.277083,3.663198,-3.953995,5.772796,-1.162126,4.050806,-5.647516,1.304276,-0.150358,0.437307,-0.035692,2.954248,188.420289,1635.278828,-33.382785,0
0.054167,159.443981,-161.482552,-25.052462,2.430408,-5.150438,4.701278,0.946098,5.385103,-4.715850,-0.791296,-0.132093,0.434890,-0.031958,2.841148,188.420323,1633.770798,-33.985930,0
0.055208,191.418490,-87.209154,-75.562879,1.480368,-5.888896,2.879698,3.304324,5.962196,-2.894485,-3.022066,-0.091910,0.436654,-0.035692,2.829838,188.344939,1632.386400,-33.589238,0
0.056250,184.000495,-21.271580,-137.078978,0.304128,-5.455762,0.974778,4.558064,5.726948,-1.035351,-4.366932,-0.066339,0.451156,-0.035692,2.411368,188.269561,1631.424908,-33.276325,0
0.057292,136.407363,39.906118,-184.413258,-0.578052,-4.490087,-1.327001,5.673744,4.660981,1.205683,-5.373803,-0.011544,0.459518,-0.050629,2.230408,188.420327,1629.761067,-33.064907,0
0.058333,66.923205,93.811112,-200.010796,-0.872112,-2.611989,-3.434319,5.662550,2.837809,3.404750,-5.484096,-0.004238,0.447955,-0.017021,2.105998,188.420180,1628.575634,-32.669254,0
0.059375,6.547075,157.839903,-172.435038,-0.363162,-0.410817,-5.013815,4.875231,0.672792,4.911363,-4.694254,-0.037115,0.456055,-0.017021,2.105998,188.420226,1627.198480,-32.334102,0
0.060417,-52.558696,188.658289,-121.456819,0.575568,1.854261,-5.569417,3.147607,-1.595146,5.641588,-3.121686,-0.062686,0.441357,-0.054364,2.049448,188.269532,1625.689494,-31.944993,0
0.061458,-111.210766,195.725618,-42.016477,2.057178,3.973777,-5.517825,1.099085,-3.697675,5.599621,-1.111502,-0.095563,0.436197,-0.024490,1.902418,188.420233,1623.832161,-31.582931,0
0.062500,-160.357820,162.430647,24.288447,3.301278,5.276729,-4.529648,-1.027796,-5.076081,4.722512,0.966280,-0.161317,0.439528,-0.073035,2.026828,188.495606,1622.194461,-30.968778,0
0.063542,-191.209422,89.051236,76.263826,4.285248,5.937081,-2.688225,-3.371097,-5.660526,2.901147,3.122335,-0.197847,0.438026,-0.043161,2.038138,188.420274,1619.758432,-30.104198,0
0.064583,-184.676141,22.509616,137.546023,5.472798,5.571402,-0.838865,-4.639762,-5.476738,1.046209,4.456528,-0.194194,0.450372,-0.031958,2.343508,188.269593,1617.805666,-29.862691,0
0.065625,-137.366572,-39.501664,183.981629,6.366288,4.556022,1.431165,-5.721860,-4.414446,-1.186431,5.470514,-0.238030,0.451548,-0.061832,2.524468,188.420383,1615.424379,-29.331454,0
0.066667,-67.167836,-93.467062,200.170076,6.637728,2.695677,3.550389,-5.692009,-2.639059,-3.406482,5.619944,-0.256295,0.457362,-0.035692,2.773288,188.495683,1613.913323,-28.675895,0
0.067708,-5.918333,-157.254235,172.286554,6.162708,0.505155,5.086231,-4.949466,-0.396852,-4.866931,4.865680,-0.252642,0.412680,-0.020755,2.795908,188.420169,1611.967982,-28.121038,0
0.068750,52.926559,-188.676667,120.618940,5.178738,-1.738621,5.693424,-3.225573,1.852708,-5.601352,3.328690,-0.194194,0.457101,-0.020755,2.863768,188.269451,1610.880799,-27.148077,0
0.069792,110.637202,-195.683591,40.858523,3.685818,-3.847486,5.661675,-1.203171,4.032427,-5.580369,1.304276,-0.139399,0.435478,-0.043161,2.976868,188.420332,1609.692037,-27.053356,0
0.070833,159.704859,-161.784574,-25.040152,2.441718,-5.132687,4.697310,0.897591,5.322616,-4.749424,-0.716581,-0.135746,0.436719,-0.065566,2.863768,188.495886,1609.462906,-25.648379,0
0.071875,190.511090,-88.175626,-76.104546,1.502988,-5.832092,2.899541,3.248354,5.903384,-2.911272,-2.933120,-0.080951,0.439006,-0.073035,2.807218,188.420253,1608.353694,-24.667162,0
0.072917,184.420167,-22.358861,-137.349811,0.349368,-5.477064,1.002558,4.483437,5.741651,-1.089908,-4.295775,-0.004238,0.449850,-0.054364,2.456608,188.269503,1608.260303,-23.815292,0
0.073958,137.087913,39.592015,-183.982387,-0.566742,-4.490087,-1.287315,5.662550,4.679359,1.230864,-5.320435,0.003068,0.454226,-0.061832,2.241718,188.420251,1607.897373,-24.085981,0
0.075000,67.830605,93.980244,-199.961554,-0.883422,-2.604889,-3.458130,5.647624,2.841484,3.400554,-5.466307,0.017680,0.459452,-0.020755,2.060758,188.495593,1607.850024,-24.271035,0
0.076042,7.307022,157.912388,-172.164205,-0.408402,-0.393065,-4.974129,4.867768,0.650737,4.848413,-4.708485,-0.011544,0.451809,-0.050629,2.060758,188.420211,1607.322011,-24.259058,0
0.077083,-52.762861,188.622046,-121.309091,0.552948,1.872012,-5.585291,3.125218,-1.620876,5.637391,-3.132359,-0.091910,0.445277,-0.046895,2.015518,188.269527,1607.427972,-24.320389,0
0.078125,-111.619096,195.628971,-41.290152,2.068488,4.012830,-5.537668,1.061771,-3.738108,5.599621,-1.118618,-0.117481,0.436327,-0.024490,1.891108,188.432364,1607.762275,-24.219041,0
0.079167,-160.017545,162.056138,25.125568,3.335208,5.266078,-4.521711,-1.087498,-5.105487,4.739299,0.969838,-0.139399,0.435674,-0.099175,1.981588,188.495419,1608.056636,-23.989280,0
0.080208,-191.266134,87.963954,76.546970,4.307868,5.958382,-2.719974,-3.386022,-5.664201,2.850787,3.189934,-0.190541,0.436262,-0.031958,2.038138,188.495385,1608.022644,-24.787639,0
0.081250,-184.347209,21.434416,137.496781,5.484108,5.614005,-0.854739,-4.665882,-5.458359,1.075586,4.517011,-0.234377,0.443186,-0.058098,2.377438,188.269189,1608.244121,-24.563864,0
0.082292,-136.686022,-40.262761,184.277084,6.366288,4.648330,1.403385,-5.751711,-4.465907,-1.220005,5.520324,-0.281866,0.452724,-0.050629,2.581018,188.495374,1609.308457,-24.284941,0
0.083333,-66.475944,-93.744923,200.034660,6.637728,2.699227,3.558326,-5.725591,-2.602302,-3.427465,5.648406,-0.267254,0.455076,-0.065566,2.773288,188.495488,1609.495277,-24.517114,0
0.084375,-5.838936,-157.664986,172.360417,6.162708,0.519356,5.078294,-4.983048,-0.418906,-4.900505,4.865680,-0.259948,0.436001,-0.046895,2.795908,188.495356,1609.990778,-24.383782,0
0.085417,53.028642,-188.193430,121.135985,5.235288,-1.699568,5.669613,-3.247961,1.838005,-5.622336,3.350037,-0.219765,0.451417,-0.061832,2.863768,188.269248,1610.287511,-24.210566,0
0.086458,111.181642,-195.574863,41.646402,3.719748,-3.854587,5.705330,-1.214365,4.032427,-5.643319,1.329180,-0.157664,0.439594,-0.073035,2.965558,188.495403,1611.252422,-23.869533,0
0.087500,159.897681,-161.881222,-24.658523,2.453028,-5.111385,4.709215,0.897591,5.289534,-4.753620,-0.720139,-0.128440,0.440116,-0.035692,2.818528,188.419967,1611.027141,-23.834720,0
0.088542,190.681228,-89.166260,-76.412311,1.446438,-5.764636,2.895572,3.211040,5.903384,-2.965829,-2.915331,-0.059033,0.446779,-0.058098,2.807218,188.495343,1611.580867,-23.308166,0
0.089583,184.295400,-22.588398,-137.719129,0.304128,-5.445111,1.026369,4.446123,5.708569,-1.110891,-4.245965,-0.026156,0.455141,-0.020755,2.411368,188.344520,1610.882625,-22.801894,0
0.090625,137.405503,39.700743,-183.871591,-0.589362,-4.429732,-1.263503,5.576728,4.675684,1.125946,-5.309762,-0.018850,0.456970,-0.080503,2.207788,188.495383,1610.519067,-21.628662,0
0.091667,67.331535,94.330591,-199.776895,-0.872112,-2.587137,-3.374790,5.576728,2.848836,3.329210,-5.388034,-0.015197,0.457754,-0.050629,2.083378,188.495307,1609.068767,-20.677775,0
0.092715,5.310742,158.552676,-171.757955,-0.408402,-0.414367,-4.882852,4.841649,0.672792,4.831626,-4.633771,-0.015197,0.452136,-0.054364,2.072068,188.495463,1608.142015,-19.808986,0
0.093761,-54.350811,188.283781,-119.351705,0.620808,1.836509,-5.537668,3.054322,-1.606173,5.578637,-3.075434,-0.069992,0.428684,-0.076769,2.038138,188.344522,1606.632218,-18.965319,0
0.094798,-111.993398,195.773942,-39.418940,2.170278,3.945375,-5.490045,1.080428,-3.642539,5.515687,-1.111502,-0.117481,0.432734,-0.031958,1.947658,188.495450,1604.906910,-17.717336,0
0.095833,-159.892778,162.164867,25.728788,3.380448,5.191522,-4.537585,-0.997945,-5.043000,4.701529,0.873776,-0.157664,0.435674,-0.039427,2.038138,188.495455,1603.811816,-16.362910,0
0.096875,-190.199939,88.000197,76.953220,4.341798,5.901578,-2.735848,-3.274081,-5.572308,2.896951,3.076083,-0.205153,0.435935,-0.061832,2.083378,188.495336,1602.108140,-14.572742,0
0.097917,-184.608086,21.531063,137.570644,5.484108,5.525248,-0.906331,-4.531553,-5.462035,1.134340,4.445854,-0.245336,0.449719,-0.065566,2.366128,188.420074,1601.730743,-13.387051,0
0.098958,-137.423284,-40.286923,183.378410,6.366288,4.602176,1.383542,-5.624844,-4.418122,-1.127678,5.420704,-0.248989,0.445212,-0.039427,2.547088,188.495237,1599.857139,-12.578358,0
0.100000,-67.462741,-93.914056,200.071592,6.660348,2.748931,3.498797,-5.662158,-2.657438,-3.343532,5.573692,-0.234377,0.455272,-0.043161,2.784598,188.495378,1598.896176,-11.560133,0
0.101042,-6.859761,-157.302559,172.003410,6.185328,0.604563,5.022733,-4.964392,-0.474042,-4.778801,4.862122,-0.168623,0.452659,-0.058098,2.784598,188.495376,1597.504447,-10.558021,0
0.102083,52.881189,-188.543777,121.603788,5.201358,-1.625012,5.629927,-3.289007,1.768165,-5.580369,3.332248,-0.205153,0.447106,-0.020755,2.841148,188.419998,1596.825125,-10.039962,0
0.103125,111.204327,-194.946656,41.867993,3.685818,-3.755179,5.625958,-1.247947,3.878046,-5.567779,1.325623,-0.157664,0.438287,-0.017021,2.909008,188.495470,1594.578735,-8.970432,0
0.104167,160.283326,-162.159082,-25.027841,2.430408,-5.054581,4.697310,0.830426,5.216019,-4.749424,-0.666772,-0.110175,0.439986,-0.020755,2.829838,188.495459,1593.945316,-7.862505,0
0.105208,189.830540,-88.634701,-76.917046,1.446438,-5.739785,2.883667,3.155069,5.840896,-2.978419,-2.872637,-0.055380,0.439920,-0.046895,2.773288,188.495423,1592.752014,-6.968178,0
0.106250,184.522250,-21.344065,-137.546781,0.304128,-5.402508,1.105741,4.431198,5.715921,-1.123481,-4.196156,-0.062686,0.447890,-0.013287,2.433988,188.419963,1592.351492,-6.043423,0
0.107292,136.951803,40.908833,-183.329925,-0.578052,-4.447483,-1.263503,5.569266,4.620547,1.155323,-5.242163,-0.000585,0.435543,-0.046895,2.253028,188.492727,1590.969117,-6.086106,0
0.108333,66.242655,94.439319,-200.133902,-0.906042,-2.569386,-3.358916,5.576728,2.823106,3.358587,-5.444960,0.003068,0.457166,-0.035692,2.072068,188.489330,1591.669048,-6.204702,0
0.109375,5.322085,157.743256,-171.844129,-0.397092,-0.453420,-4.878883,4.856574,0.676468,4.827429,-4.640886,-0.051727,0.447367,-0.050629,2.072068,188.495349,1591.487586,-6.271639,0
0.110417,-53.749658,188.779098,-120.755114,0.586878,1.829409,-5.513857,3.162532,-1.558389,5.582834,-3.175054,-0.055380,0.430709,-0.013287,2.038138,188.420137,1592.503833,-5.416118,0
0.111458,-111.551041,195.218220,-40.920833,2.102418,3.920523,-5.517825,1.102816,-3.649890,5.574441,-1.111502,-0.117481,0.436001,-0.024490,1.936348,188.495535,1593.063628,-5.910821,0
