1-Time,2-VGERA,3-VGERB,4-VGERC,5-VN,6-IGERAN,7-IGERBN,8-IGERCN,9-IGERAT,10-IGERBT,11-IGERCT,12-IN,13-IFD,14-IFAULT,15-VFAULT,16-Speed (rad/s),17-FAULT 
0.000000,-79.077462,-84.345980,204.047917,6.716898,3.107509,3.264651,-5.986787,-2.995607,-3.125304,5.765815,-0.241683,0.444362,-0.046895,-33.282991,188.571127,0
0.001042,-18.406427,-145.137089,179.192804,6.264498,1.069649,4.685404,-5.192005,-1.014378,-4.526999,5.050688,-0.252642,0.444036,-0.035692,-4.272841,188.495611,0
0.002083,42.344006,-193.013711,130.664394,5.393628,-1.220280,5.681518,-3.833787,1.297669,-5.639123,3.744958,-0.212459,0.460498,-0.039427,25.325428,188.721713,0
0.003125,97.400504,-195.828562,55.963637,3.968568,-3.435654,5.610084,-1.580039,3.539877,-5.634926,1.663618,-0.183235,0.449719,-0.050629,52.299777,188.646339,0
0.004167,161.270124,-169.480110,-9.811932,2.724468,-5.019078,4.959236,0.528185,5.160883,-4.955062,-0.424838,-0.110175,0.448151,-0.065566,82.418307,188.571252,0
0.005208,183.013697,-108.797729,-67.745644,1.604778,-5.604874,3.153530,2.744619,5.737975,-3.272188,-2.502621,-0.102869,0.444362,-0.050629,91.941326,188.495673,0
0.006250,191.940245,-32.059827,-129.544887,0.451158,-5.729134,1.304170,4.468512,5.903384,-1.354299,-4.310007,-0.044421,0.446126,-0.046895,95.537906,188.721925,0
0.007292,153.080838,34.699248,-171.425569,-0.351852,-4.735056,-0.755525,5.360309,4.995474,0.639130,-5.103406,-0.026156,0.460171,-0.035692,75.236457,188.646551,0
0.008333,79.547408,84.871243,-204.196402,-0.962592,-3.009621,-3.212078,5.878969,3.179653,3.140359,-5.661988,-0.037115,0.461216,-0.050629,38.558128,188.571120,0
0.009375,18.025685,146.012698,-178.885796,-0.532812,-0.943359,-4.573302,5.058068,1.209451,4.516874,-4.921956,-0.029809,0.442729,-0.043161,9.197368,188.495653,0
0.010417,-43.314558,193.055738,-129.877273,0.383298,1.382074,-5.593228,3.625222,-1.146705,5.587031,-3.623342,-0.048074,0.447302,-0.017021,-20.864611,188.721922,0
0.011458,-97.917355,196.112207,-53.834659,1.864908,3.565495,-5.541637,1.434908,-3.322749,5.566047,-1.477961,-0.113828,0.437830,-0.043161,-47.533591,188.721829,0
0.012500,-160.879575,169.534218,11.608523,3.109008,5.163120,-4.839197,-0.699436,-4.936403,4.923953,0.571359,-0.132093,0.439790,-0.061832,-76.340160,188.571103,0
0.013542,-183.337726,107.184672,68.163447,4.206078,5.706313,-2.985869,-2.930795,-5.539226,3.194916,2.716741,-0.186888,0.442337,-0.024490,-88.306140,188.495843,0
0.014583,-192.230247,31.932721,129.876516,5.337078,5.841223,-1.168257,-4.654688,-5.678904,1.327387,4.470759,-0.259948,0.446387,-0.058098,-90.794340,188.721971,0
0.015625,-152.690290,-33.932367,172.101894,6.151398,4.840045,0.911281,-5.565142,-4.759967,-0.708009,5.306853,-0.241683,0.459191,-0.046895,-69.520230,188.571084,0
0.016667,-80.381849,-84.430546,203.912501,6.694278,3.093308,3.344022,-6.020369,-3.013986,-3.150484,5.804952,-0.278213,0.464940,-0.031958,-34.583641,188.570445,0
0.017708,-19.552019,-146.067318,178.552652,6.287118,1.005744,4.733027,-5.169617,-0.962917,-4.531196,5.047130,-0.274560,0.465985,-0.043161,-3.673411,188.495674,0
0.018750,42.570856,-192.868740,130.368940,5.404938,-1.319688,5.673581,-3.714383,1.349130,-5.660106,3.716496,-0.186888,0.457885,-0.020755,25.020058,188.721875,0
0.019792,98.001656,-195.647348,54.510985,3.957258,-3.517310,5.625958,-1.501680,3.617068,-5.588762,1.599577,-0.186888,0.443644,-0.013287,52.661697,188.646408,0
0.020833,160.737026,-169.274735,-11.781629,2.667918,-5.061681,4.919550,0.610275,5.216019,-4.963455,-0.478206,-0.113828,0.438679,-0.050629,79.997967,188.571064,0
0.021875,182.820875,-106.248659,-68.250379,1.582158,-5.604874,3.121782,2.826709,5.782084,-3.209237,-2.570220,-0.088257,0.437764,-0.039427,92.382416,188.495709,0
0.022917,191.702053,-29.969831,-129.692614,0.417228,-5.739785,1.288296,4.535676,5.855599,-1.320726,-4.320680,-0.037115,0.456382,-0.005818,94.610486,188.721985,0
0.023958,151.799136,35.738206,-171.794887,-0.408402,-4.738606,-0.819022,5.431205,4.944013,0.693687,-5.178121,-0.007891,0.437373,-0.017021,71.979177,188.646491,0
0.025000,78.277048,85.245751,-203.999432,-0.962592,-3.027372,-3.200172,5.849118,3.209059,3.140359,-5.619294,0.017680,0.466312,-0.061832,37.777738,188.571046,0
0.026042,17.798835,146.483853,-178.319508,-0.476262,-0.932708,-4.597114,5.035680,1.165342,4.491694,-4.914841,-0.055380,0.467618,-0.058098,8.213398,188.495577,0
0.027083,-42.985625,193.309437,-130.234281,0.394608,1.364322,-5.561480,3.606565,-1.139353,5.557654,-3.605553,-0.051727,0.456839,-0.061832,-20.140771,188.722007,0
0.028125,-98.711330,195.653133,-54.868750,1.842288,3.576146,-5.474171,1.442371,-3.311721,5.591227,-1.477961,-0.102869,0.449000,-0.031958,-48.189570,188.646560,0
0.029167,-161.696235,169.497975,11.116099,3.052458,5.138268,-4.795543,-0.729287,-4.947430,4.953330,0.646074,-0.150358,0.443448,-0.017021,-76.046100,188.571062,0
0.030208,-183.473836,107.390048,68.520455,4.138218,5.663709,-3.013649,-2.900944,-5.502468,3.119375,2.656257,-0.186888,0.443644,-0.061832,-87.141210,188.495716,0
0.031250,-192.128164,31.256191,130.405872,5.359698,5.780868,-1.124603,-4.636031,-5.649498,1.289617,4.470759,-0.230724,0.451417,-0.009553,-89.753820,188.721969,0
0.032292,-152.134507,-35.212943,171.929546,6.151398,4.790341,0.935092,-5.520366,-4.756291,-0.737385,5.274833,-0.234377,0.465724,-0.046895,-67.405260,188.646556,0
0.033333,-78.124692,-85.107077,204.281819,6.762138,3.057805,3.351960,-5.964399,-2.925768,-3.171467,5.808510,-0.274560,0.442403,-0.031958,-32.479981,188.571127,0
0.034375,-17.033984,-146.296855,178.195644,6.275808,1.027046,4.709215,-5.128572,-0.951890,-4.522802,5.047130,-0.267254,0.465462,0.005384,-3.232321,188.495667,0
0.035417,43.682421,-193.255329,129.273296,5.416248,-1.351641,5.701361,-3.729308,1.404266,-5.609746,3.716496,-0.238030,0.443317,-0.046895,26.037958,188.721802,0
0.036458,98.432671,-195.538620,53.452273,3.934638,-3.471157,5.590241,-1.538994,3.602365,-5.584566,1.588903,-0.161317,0.443121,-0.035692,52.921827,188.646485,0
0.037500,161.145356,-169.021036,-12.040152,2.679228,-5.072332,4.943362,0.606544,5.190289,-4.913095,-0.492437,-0.135746,0.440573,-0.009553,82.282587,188.570966,0
0.038542,183.115780,-106.381549,-68.632008,1.616088,-5.636826,3.121782,2.834172,5.760030,-3.184057,-2.580893,-0.091910,0.443056,-0.061832,92.337176,188.495758,0
0.039583,191.702053,-31.347054,-130.505114,0.439848,-5.714933,1.240673,4.535676,5.873978,-1.257775,-4.331354,-0.062686,0.447171,-0.054364,95.289086,188.721934,0
0.040625,151.889876,34.590520,-172.656629,-0.431022,-4.742156,-0.882519,5.397623,4.921959,0.681097,-5.174563,-0.018850,0.468794,-0.054364,74.580477,188.646466,0
0.041667,78.957598,85.439045,-204.221023,-0.985212,-3.006070,-3.279544,5.867775,3.179653,3.152949,-5.665546,-0.029809,0.464809,-0.017021,38.433718,188.571008,0
0.042708,17.957630,147.438245,-177.851705,-0.487572,-0.858152,-4.672517,4.975978,1.150639,4.592414,-4.900609,-0.040768,0.463633,-0.054364,8.858068,188.495569,0
0.043750,-43.711545,193.273194,-129.544887,0.428538,1.435328,-5.597197,3.569251,-1.242274,5.624801,-3.587764,-0.095563,0.452136,-0.043161,-21.317011,188.721831,0
0.044792,-99.255770,195.761861,-52.763637,1.887528,3.618749,-5.545605,1.371475,-3.429345,5.620604,-1.424593,-0.091910,0.442076,-0.013287,-48.166950,188.571056,0
0.045833,-161.174480,169.401328,13.578220,3.131628,5.209274,-4.819354,-0.803914,-4.998891,4.907166,0.663863,-0.139399,0.436915,-0.046895,-76.215750,188.571038,0
0.046875,-183.791426,104.659764,69.037500,4.160838,5.731164,-2.962057,-3.065124,-5.546577,3.106785,2.777224,-0.201500,0.441749,-0.020755,-88.815090,188.495749,0
0.047917,-192.048767,29.697754,130.639773,5.314458,5.851874,-1.120634,-4.714390,-5.620092,1.251847,4.549032,-0.248989,0.417644,-0.050629,-90.443730,188.721735,0
0.048958,-150.569242,-35.345833,173.197538,6.196638,4.797441,1.018432,-5.572605,-4.726885,-0.812926,5.367337,-0.230724,0.463111,-0.013287,-68.502330,188.571170,0
0.050000,-77.773074,-85.300371,204.257198,6.762138,3.047154,3.471017,-5.986787,-2.940471,-3.284778,5.808510,-0.256295,0.450111,-0.024490,-33.972901,188.571026,0
0.051042,-17.816616,-147.456622,177.666288,6.264498,0.966691,4.804461,-5.165886,-0.900429,-4.631916,5.036457,-0.248989,0.462653,-0.028224,-3.243631,188.495550,0
0.052083,43.387516,-192.953307,130.085796,5.382318,-1.390694,5.733110,-3.688263,1.470430,-5.672696,3.684475,-0.223418,0.454945,-0.024490,25.404598,188.721809,0
0.053125,99.408126,-195.224517,53.846212,3.923328,-3.609618,5.629927,-1.475561,3.657501,-5.639123,1.553325,-0.157664,0.444820,-0.031958,53.623047,188.571123,0
0.054167,161.372206,-169.347220,-12.680303,2.645298,-5.114936,4.963205,0.662514,5.289534,-4.963455,-0.524458,-0.150358,0.444428,-0.046895,79.986657,188.571190,0
0.055208,183.467397,-104.980164,-68.927462,1.604778,-5.711382,3.018599,2.934919,5.815166,-3.175664,-2.623587,-0.088257,0.443186,-0.039427,93.241976,188.495680,0
0.056250,191.611313,-29.800698,-130.702084,0.439848,-5.750435,1.228767,4.535676,5.899708,-1.266169,-4.388279,-0.048074,0.448021,-0.061832,94.044986,188.646522,0
0.057292,150.404008,36.161038,-173.136743,-0.374472,-4.727955,-0.938080,5.457325,4.918283,0.811194,-5.206584,-0.029809,0.461020,-0.017021,71.142237,188.571165,0
0.058333,76.564330,86.079333,-204.430304,-0.917352,-2.935065,-3.335104,5.834193,3.172302,3.224293,-5.701125,-0.033462,0.452724,-0.058098,36.612808,188.571143,0
0.059375,16.097460,147.583215,-177.580872,-0.442332,-0.858152,-4.716171,5.043143,1.099179,4.634381,-4.889936,-0.033462,0.464809,-0.061832,7.138948,188.495761,0
0.060417,-44.505520,193.526893,-128.978599,0.428538,1.421127,-5.613071,3.606565,-1.242274,5.637391,-3.569975,-0.091910,0.433257,-0.043161,-20.785441,188.721978,0
0.061458,-99.596045,195.725618,-52.837500,1.864908,3.632950,-5.553542,1.345355,-3.418318,5.574441,-1.428151,-0.091910,0.445865,-0.005818,-48.981270,188.571120,0
0.062500,-161.752948,169.316762,12.925758,3.131628,5.209274,-4.807449,-0.781526,-5.020945,4.911363,0.674537,-0.157664,0.442076,-0.046895,-75.921690,188.570481,0
0.063543,-183.802769,105.445022,69.443750,4.183458,5.727614,-2.981900,-3.024079,-5.561280,3.165539,2.791455,-0.212459,0.444624,-0.043161,-88.079940,188.495794,0
0.064583,-192.014739,31.256191,131.575379,5.348388,5.834123,-1.112697,-4.677076,-5.653174,1.260240,4.509895,-0.219765,0.454096,-0.031958,-89.391900,188.721880,0
0.065625,-151.090997,-35.116296,173.345266,6.185328,4.786790,0.998589,-5.550217,-4.748940,-0.737385,5.317527,-0.256295,0.467749,-0.028224,-66.885000,188.495665,0
0.066667,-77.716362,-85.783607,204.318751,6.796068,3.043604,3.419426,-5.927085,-2.958849,-3.255401,5.780047,-0.263601,0.465658,-0.039427,-32.366881,188.571118,0
0.067708,-16.773106,-147.686159,177.407766,6.264498,0.941839,4.792556,-5.121109,-0.896754,-4.568966,5.015110,-0.285519,0.449654,-0.039427,-2.825161,188.495607,0
0.068750,44.306259,-193.388219,128.854735,5.337078,-1.394244,5.713267,-3.628561,1.452051,-5.685286,3.695149,-0.216112,0.447498,-0.054364,26.524288,188.721755,0
0.069792,99.657661,-195.405730,51.913447,3.889398,-3.545713,5.637864,-1.483023,3.675880,-5.576172,1.556883,-0.175929,0.442990,-0.043161,53.532567,188.495709,0
0.070833,161.428919,-168.839822,-14.256061,2.633988,-5.079433,4.915582,0.647589,5.256452,-4.946668,-0.549363,-0.157664,0.442990,-0.017021,82.033767,188.495702,0
0.071875,183.331287,-103.602941,-69.567614,1.570848,-5.651028,3.086064,2.886411,5.752678,-3.150484,-2.623587,-0.080951,0.443578,-0.031958,92.812196,188.495658,0
0.072917,191.441175,-29.112087,-131.194508,0.439848,-5.743335,1.244642,4.524482,5.885005,-1.274562,-4.352701,-0.037115,0.448478,-0.017021,94.961096,188.721748,0
0.073958,149.950308,36.003986,-173.826137,-0.419712,-4.720855,-0.894425,5.472250,4.932986,0.731457,-5.178121,-0.026156,0.456709,-0.035692,73.822707,188.495745,0
0.075000,77.176825,86.248466,-204.208713,-0.962592,-2.942165,-3.343041,5.849118,3.179653,3.215899,-5.665546,-0.051727,0.443774,-0.017021,38.252758,188.495674,0
0.076042,17.333793,148.598011,-177.051516,-0.476262,-0.851051,-4.751889,5.024486,1.062421,4.596611,-4.868589,-0.062686,0.462327,-0.043161,8.631868,188.495633,0
0.077083,-44.369410,193.200709,-129.323296,0.405918,1.485032,-5.601165,3.554326,-1.245950,5.658374,-3.562859,-0.055380,0.453638,-0.046895,-21.701551,188.721858,0
0.078125,-100.605528,195.290705,-52.369697,1.842288,3.661352,-5.541637,1.274459,-3.447724,5.574441,-1.381899,-0.128440,0.443056,-0.050629,-48.913410,188.495513,0
0.079166,-161.605495,169.340924,14.316856,3.165558,5.237676,-4.787606,-0.822571,-5.013594,4.915560,0.727904,-0.143052,0.441357,-0.061832,-76.396710,188.495674,0
0.080208,-184.040961,103.596644,69.739205,4.206078,5.748916,-2.886654,-3.072587,-5.557605,3.098392,2.819918,-0.216112,0.442141,-0.065566,-89.210940,188.495640,0
0.081250,-191.765204,29.009143,131.439963,5.371008,5.802170,-1.100791,-4.684539,-5.667877,1.197290,4.527685,-0.223418,0.436327,-0.043161,-90.172290,188.646587,0
0.082292,-149.389622,-36.396872,174.268561,6.196638,4.783240,1.042244,-5.606187,-4.638667,-0.859089,5.353105,-0.259948,0.416534,-0.031958,-67.620150,188.495665,0
0.083333,-75.788137,-86.230601,204.294129,6.818688,2.997450,3.387677,-5.990518,-2.903713,-3.263794,5.815625,-0.281866,0.458342,-0.043161,-32.943691,188.495781,0
0.084375,-15.627514,-148.459337,177.124622,6.241878,0.938289,4.784618,-5.143497,-0.852645,-4.640310,4.975973,-0.256295,0.437960,-0.039427,-2.327522,188.495731,0
0.085417,45.009494,-192.965388,129.088637,5.371008,-1.397794,5.721204,-3.650949,1.441024,-5.672696,3.680917,-0.208806,0.451417,-0.058098,26.083198,188.571098,0
0.086458,100.394924,-195.139950,52.541288,3.945948,-3.563464,5.653738,-1.445710,3.650149,-5.605549,1.542651,-0.172276,0.447955,-0.061832,54.290337,188.495750,0
0.087500,161.542344,-169.057279,-13.726705,2.656608,-5.118486,4.895739,0.662514,5.241749,-4.988635,-0.556478,-0.143052,0.444101,-0.058098,80.065827,188.495674,0
0.088541,183.637535,-104.351957,-69.739962,1.559538,-5.651028,3.070190,2.938650,5.796787,-3.196647,-2.644934,-0.073645,0.446126,-0.031958,93.603896,188.495814,0
0.089583,191.373120,-30.006073,-131.785417,0.394608,-5.700731,1.244642,4.539408,5.870302,-1.282955,-4.338469,-0.018850,0.451744,-0.046895,93.705686,188.495743,0
0.090625,149.995678,36.148957,-174.146213,-0.419712,-4.692452,-0.910299,5.423742,4.914607,0.739851,-5.192353,-0.044421,0.466377,-0.061832,70.893417,188.495745,0
0.091667,76.621043,86.780026,-204.159470,-0.996522,-2.956366,-3.271607,5.796879,3.131869,3.228489,-5.651315,-0.015197,0.464025,-0.024490,36.375298,188.495693,0
0.092708,15.484965,148.598011,-176.965341,-0.498882,-0.890104,-4.656643,4.998366,1.154315,4.550448,-4.857915,-0.055380,0.448543,-0.069301,6.449038,188.495716,0
0.093750,-45.549030,193.454408,-128.203031,0.405918,1.449529,-5.593228,3.531938,-1.231247,5.557654,-3.541512,-0.055380,0.454161,-0.039427,-21.441421,188.571141,0
0.094792,-100.639555,195.423595,-50.867803,1.910148,3.618749,-5.497982,1.401325,-3.359506,5.528277,-1.392572,-0.117481,0.441423,-0.009553,-49.535460,188.495765,0
0.095833,-161.718920,168.736878,15.104735,3.199488,5.173771,-4.799512,-0.755406,-4.962133,4.886183,0.678094,-0.139399,0.440769,-0.076769,-75.729420,188.495805,0
0.096875,-183.553234,103.512078,70.416288,4.240008,5.702762,-2.973963,-2.983034,-5.506144,3.106785,2.720299,-0.172276,0.444362,-0.054364,-88.102560,188.495759,0
0.097916,-191.492984,29.480298,132.129356,5.404938,5.770218,-1.136509,-4.609911,-5.609065,1.281224,4.417391,-0.230724,0.456121,-0.054364,-89.018670,188.571111,0
0.098958,-150.206282,-36.010283,173.825379,6.174018,4.740637,0.946998,-5.501709,-4.708506,-0.783549,5.253485,-0.241683,0.449915,-0.050629,-66.715350,188.495667,0
0.100000,-77.364744,-86.641351,203.961743,6.807378,3.072006,3.324180,-5.912160,-3.002958,-3.175664,5.758700,-0.230724,0.465658,-0.050629,-32.468671,188.495707,0
0.101041,-16.875189,-148.555984,176.890720,6.275808,1.016395,4.693341,-5.083795,-0.944538,-4.539589,4.929721,-0.234377,0.462915,-0.084238,-2.870401,188.495660,0
0.102083,44.771301,-193.303653,128.830114,5.371008,-1.351641,5.645801,-3.654681,1.393239,-5.567779,3.680917,-0.223418,0.451875,-0.024490,26.863588,188.495776,0
0.103125,100.791911,-194.982899,51.494887,3.866778,-3.481808,5.570398,-1.520337,3.569283,-5.542599,1.524862,-0.168623,0.443774,-0.020755,54.154617,188.495598,0
0.104166,161.814564,-168.429072,-15.179356,2.633988,-5.015528,4.863990,0.595350,5.157207,-4.921488,-0.492437,-0.132093,0.440443,-0.043161,82.090317,188.495767,0
0.105208,183.059067,-102.793520,-70.687879,1.548228,-5.576472,3.026536,2.852828,5.668136,-3.133697,-2.584451,-0.040768,0.438091,-0.035692,92.755646,188.495817,0
0.106250,191.021503,-27.614054,-131.760796,0.417228,-5.690081,1.244642,4.472243,5.807815,-1.324922,-4.256639,-0.048074,0.446910,-0.017021,94.678346,188.495846,0
0.107291,149.031566,37.816122,-173.752273,-0.464952,-4.667600,-0.854739,5.349115,4.885201,0.748244,-5.078502,-0.004238,0.443448,-0.035692,73.313757,188.495852,0
0.108333,75.305313,87.432394,-203.950190,-0.996522,-2.949266,-3.220015,5.740909,3.117166,3.178129,-5.583716,-0.018850,0.460563,-0.035692,37.506298,188.495559,0
0.109375,15.167375,149.057086,-176.460607,-0.498882,-0.886554,-4.620925,4.953590,1.139612,4.508481,-4.861473,-0.051727,0.444493,-0.020755,8.088988,188.495732,0
0.110416,-45.707825,193.019495,-128.867803,0.462468,1.382074,-5.517825,3.539400,-1.161408,5.549260,-3.523723,-0.037115,0.456251,-0.013287,-22.142641,188.495767,0
0.111458,-101.694408,194.855793,-51.988068,1.842288,3.561944,-5.454328,1.371475,-3.363182,5.561851,-1.442382,-0.124787,0.448021,-0.054364,-49.467600,188.571140,0
0.112500,-162.206648,168.954335,14.809280,3.154248,5.106315,-4.732046,-0.774063,-4.881267,4.890380,0.617611,-0.132093,0.444101,-0.020755,-76.679460,188.495787,0
0.113542,-183.768741,103.777858,70.896402,4.194768,5.631757,-2.934277,-2.983034,-5.454684,3.081605,2.720299,-0.205153,0.443056,-0.017021,-89.041290,188.495796,0
0.114583,-191.368217,29.166194,132.215531,5.359698,5.713413,-1.104760,-4.580061,-5.601714,1.222470,4.435181,-0.179582,0.454226,-0.028224,-89.912160,188.495696,0
0.115625,-149.310225,-36.928431,174.256251,6.207948,4.666081,0.994621,-5.475589,-4.601910,-0.749975,5.217907,-0.248989,0.466899,-0.061832,-67.552290,188.420372,0
0.116666,-75.822164,-87.269558,203.900190,6.728208,2.965498,3.347991,-5.859920,-2.885334,-3.213434,5.680427,-0.267254,0.455860,-0.039427,-32.491291,188.495712,0
0.117708,-14.799511,-148.809683,176.582955,6.253188,0.945389,4.705247,-5.031556,-0.863672,-4.518606,4.897701,-0.256295,0.430775,-0.024490,-1.513202,188.495656,0
0.118750,46.211799,-192.735850,128.128409,5.348388,-1.319688,5.610084,-3.568859,1.474105,-5.509025,3.581297,-0.175929,0.445408,-0.043161,26.682628,188.495729,0
0.119791,101.290981,-194.886251,50.743940,3.900708,-3.478257,5.526744,-1.464367,3.558256,-5.496435,1.531978,-0.157664,0.442729,-0.017021,54.663567,188.495703,0
0.120833,161.531001,-168.223696,-15.524053,2.633988,-4.955173,4.816367,0.554305,5.098395,-4.900505,-0.471090,-0.154011,0.445930,-0.058098,80.190237,188.496246,0
0.121875,183.104437,-103.010976,-71.069508,1.536918,-5.537419,3.018599,2.811783,5.638730,-3.146287,-2.531083,-0.088257,0.446453,-0.046895,93.389006,188.495694,0
0.122916,190.726598,-28.930873,-132.474811,0.383298,-5.604874,1.220830,4.405078,5.760030,-1.329119,-4.153461,-0.044421,0.450438,-0.035692,93.490796,188.495807,0
0.123959,149.655403,36.922135,-174.072349,-0.408402,-4.628547,-0.822991,5.300607,4.841092,0.655917,-5.007345,-0.018850,0.461543,-0.058098,70.859487,188.495834,0
0.125000,76.734468,87.806902,-203.346970,-0.973902,-2.906662,-3.200172,5.684938,3.106138,3.102589,-5.537464,-0.004238,0.461216,-0.024490,36.420538,188.495707,0
0.126041,15.904637,149.020843,-176.288258,-0.442332,-0.847501,-4.529648,4.905082,1.135936,4.420350,-4.783200,-0.018850,0.459910,-0.058098,6.449038,188.495776,0
0.127083,-46.014073,192.995334,-127.969129,0.417228,1.438878,-5.406705,3.453579,-1.165083,5.473720,-3.470355,-0.106522,0.456513,-0.017021,-21.814651,188.495693,0
