1-Time,2-VGERA,3-VGERB,4-VGERC,5-VN,6-IGERAN,7-IGERBN,8-IGERCN,9-IGERAT,10-IGERBT,11-IGERCT,12-IN,13-IFD,14-IFAULT,15-VFAULT,16-Speed (rad/s),17-Active Power,18-Reactive Power,19-FAULT 
0.000000,-147.094027,171.064664,-19.571328,-0.124844,6.687777,-3.611148,-2.986344,-5.975012,3.837236,3.136374,-0.192949,0.317718,-0.115740,318.020364,188.721761,1494.572914,-895.362599,0
0.001042,-186.383867,112.609748,31.611513,0.899753,6.188728,-1.221651,-4.697136,-5.605058,1.490982,4.801772,-0.192949,0.326882,-0.115740,296.021598,188.495533,1494.852694,-895.858634,0
0.002083,-196.226102,51.465226,101.665900,2.262128,5.462173,1.296574,-6.135412,-4.803491,-1.024373,6.402825,-0.251287,0.314549,-0.119457,244.109463,188.495682,1495.688153,-895.804330,0
0.003125,-158.066254,-1.046714,162.825264,3.455614,3.550377,3.279776,-6.203541,-3.149579,-3.032429,6.436890,-0.222118,0.345898,-0.104590,150.541527,188.495754,1496.341757,-895.516573,0
0.004167,-94.018277,-49.436156,208.697824,4.345098,1.084492,5.279069,-5.529822,-0.708608,-5.044712,5.884280,-0.218472,0.310622,-0.078573,39.523188,188.569188,1497.349411,-896.196147,0
0.005208,-41.880422,-121.233402,184.309419,3.894726,-1.388733,6.196250,-3.981783,1.674331,-6.004352,4.321078,-0.192949,0.314687,-0.097156,-84.870041,188.571205,1497.751051,-895.898708,0
0.006250,8.178247,-185.678273,135.010087,3.005242,-3.678484,6.417499,-1.949271,3.883174,-6.363688,2.356665,-0.123671,0.326882,-0.082290,-196.440038,188.495723,1498.950591,-896.107885,0
0.007292,65.288070,-195.825962,74.081605,1.744200,-5.549915,5.250910,0.904572,5.700301,-5.171537,-0.572921,-0.083563,0.316134,-0.115740,-263.179386,188.571131,1499.274681,-897.303563,0
0.008333,147.415927,-171.173185,19.520600,0.674567,-6.592046,3.738366,3.236094,6.694099,-3.738419,-2.938543,0.000299,0.318545,-0.059989,-329.828668,188.721925,1500.031773,-897.143372,0
0.009375,186.310270,-112.377665,-31.419208,-0.338771,-6.067311,1.292551,4.969595,6.291502,-1.383709,-4.668285,-0.025225,0.327226,-0.108307,-293.700704,188.570971,1500.096830,-898.210820,0
0.010417,196.141205,-51.162672,-101.473596,-1.656109,-5.359103,-1.213605,6.362453,5.540713,1.182375,-6.261768,0.044053,0.318821,-0.093440,-243.398510,188.495711,1500.911883,-898.481529,0
0.011458,157.958758,1.161348,-162.730173,-2.782039,-3.502350,-3.245080,6.419227,3.850531,3.169294,-6.356393,0.007591,0.333565,-0.104590,-149.898124,188.571152,1501.867144,-898.575662,0
0.012500,93.707382,49.609514,-208.590582,-3.750339,-1.018116,-5.216214,5.760648,1.514743,5.160440,-5.747009,0.025822,0.302629,-0.108307,-38.992368,188.721858,1502.435001,-898.632022,0
0.013542,42.304022,121.242331,-183.934840,-3.277448,1.499142,-6.153508,4.182328,-0.926228,6.120079,-4.130816,-0.006994,0.340111,-0.078573,85.220728,188.571093,1501.480200,-899.021978,0
0.014583,-7.686848,185.851631,-134.586901,-2.342926,3.752198,-6.346599,2.176311,-3.211238,6.428686,-2.196684,-0.065333,0.345140,-0.067423,197.027149,188.495721,1501.642757,-899.384064,0
0.015625,-65.101768,195.646970,-73.549054,-1.126922,5.616290,-5.143805,-0.666177,-4.963079,5.321084,0.725332,-0.094502,0.330671,-0.123173,263.136032,188.646578,1501.765009,-900.401279,0
0.016667,-147.478224,170.841508,-19.218930,-0.102325,6.691446,-3.667466,-3.035548,-5.960504,3.824554,3.136374,-0.192949,0.318132,-0.071140,317.851489,188.721815,1501.664848,-900.128513,0
0.017708,-186.417767,111.881558,31.696575,0.877234,6.155703,-1.217628,-4.757695,-5.572415,1.444479,4.835837,-0.196595,0.325504,-0.119457,295.605040,188.571138,1501.016493,-900.486480,0
0.018750,-196.135702,51.101131,101.872479,2.250869,5.454834,1.284506,-6.184616,-4.832507,-1.045510,6.478525,-0.229410,0.327640,-0.082290,243.636613,188.495682,1501.870869,-901.178436,0
0.019792,-157.478658,-1.164164,162.934629,3.399317,3.583403,3.311958,-6.199756,-3.109682,-3.087386,6.436890,-0.225764,0.323506,-0.074856,150.417686,188.721829,1501.424836,-901.792405,0
0.020833,-93.611480,-49.530116,209.025920,4.300061,1.135864,5.291137,-5.526037,-0.755759,-5.061622,5.918345,-0.214826,0.342109,-0.112023,39.793388,188.721944,1502.351581,-901.479558,0
0.021875,-42.626217,-121.538773,184.151448,3.928504,-1.403411,6.248545,-3.993137,1.616299,-6.084674,4.279443,-0.182010,0.363881,-0.115740,-84.892557,188.571102,1502.743693,-901.820052,0
0.022917,7.816650,-186.335993,134.609082,2.937686,-3.700501,6.429567,-1.975766,3.897682,-6.376371,2.349095,-0.149195,0.344796,-0.138040,-197.081762,188.495703,1502.950867,-902.094158,0
0.023958,65.401069,-195.884687,73.376808,1.732941,-5.542576,5.210683,0.938637,5.703928,-5.154627,-0.561566,-0.083563,0.321508,-0.059989,-263.291969,188.721826,1502.921093,-901.720231,0
0.025000,147.766225,-170.903050,19.010229,0.674567,-6.639749,3.718253,3.281513,6.737623,-3.708827,-2.995318,-0.039809,0.317029,-0.108307,-329.749860,188.646455,1503.085745,-902.522368,0
0.026042,186.423270,-111.508534,-31.710848,-0.271215,-6.140700,1.284506,4.958241,6.331399,-1.375254,-4.721275,0.022176,0.326951,-0.126890,-293.047721,188.571035,1503.675007,-902.910259,0
0.027083,196.197705,-50.892537,-101.838146,-1.622331,-5.381120,-1.205560,6.400302,5.562475,1.165465,-6.314758,0.047699,0.316685,-0.104590,-243.240893,188.495968,1504.548359,-903.049159,0
0.028125,157.280762,1.032153,-163.252694,-2.793298,-3.484002,-3.269216,6.438151,3.821515,3.207341,-6.345038,0.044053,0.327571,-0.097156,-150.100774,188.721965,1504.191737,-903.412112,0
0.029167,93.786482,49.503809,-208.845767,-3.660264,-0.974083,-5.292646,5.802282,1.460338,5.266127,-5.792429,0.018530,0.322817,-0.112023,-39.386409,188.721980,1504.870026,-905.164602,0
0.030208,43.072417,121.935286,-183.606745,-3.209892,1.524828,-6.302349,4.182328,-0.958871,6.242676,-4.214086,-0.032517,0.327364,-0.089723,86.233977,188.571122,1506.814918,-906.362811,0
0.031250,-7.788547,186.016062,-134.234502,-2.399222,3.807240,-6.398894,2.183881,-3.200357,6.504780,-2.162619,-0.076271,0.333772,-0.071140,197.241058,188.571013,1507.339634,-906.641593,0
0.032292,-65.305167,195.635225,-72.686285,-1.138181,5.689680,-5.204146,-0.711596,-4.977587,5.291492,0.778322,-0.101794,0.318063,-0.119457,263.834048,188.721844,1506.870738,-906.930150,0
0.033333,-147.489524,171.076409,-18.489830,-0.079807,6.753827,-3.671488,-3.084752,-6.025790,3.820327,3.208289,-0.163779,0.314411,-0.097156,317.693873,188.721835,1507.501231,-908.052914,0
0.034375,-186.858464,110.789272,31.745181,0.911012,6.232762,-1.201537,-4.772835,-5.579669,1.393749,4.911537,-0.192949,0.324264,-0.138040,295.346098,188.571008,1507.502363,-908.939569,0
0.035417,-196.361701,50.725290,102.334242,2.262128,5.443825,1.328755,-6.211111,-4.825253,-1.075103,6.520160,-0.243995,0.287333,-0.097156,243.501514,188.571042,1507.872706,-909.486686,0
0.036458,-156.687663,-0.717854,164.101189,3.466873,3.605419,3.380344,-6.267885,-3.127817,-3.104296,6.520160,-0.258580,0.316547,-0.086006,150.631594,188.721905,1509.115678,-909.978307,0
0.037500,-94.278176,-49.483136,208.843645,4.356358,1.062475,5.343432,-5.590381,-0.730370,-5.146172,5.895635,-0.214826,0.334048,-0.104590,40.018554,188.646504,1509.021784,-911.291118,0
0.038542,-42.739216,-122.360923,183.580319,3.849689,-1.520834,6.328999,-3.966643,1.692466,-6.097357,4.313508,-0.178364,0.339077,-0.100873,-86.468723,188.571237,1509.416641,-911.909010,0
0.039583,8.076548,-186.382973,134.268835,2.915167,-3.740865,6.473817,-1.896282,3.919444,-6.393281,2.280965,-0.152841,0.334668,-0.093440,-197.093021,188.571076,1509.035682,-912.501183,0
0.040625,65.796567,-195.825962,72.526191,1.755459,-5.619635,5.230796,0.968916,5.769214,-5.218039,-0.637266,-0.101794,0.315651,-0.104590,-264.147602,188.721909,1509.826025,-913.462585,0
0.041667,147.754925,-170.926540,18.390494,0.685826,-6.680113,3.678025,3.308008,6.792028,-3.713054,-3.078587,-0.021578,0.315031,-0.119457,-328.792902,188.797298,1510.358230,-914.573127,0
0.042708,186.852667,-110.580678,-31.710848,-0.338771,-6.206751,1.232210,5.011230,6.320518,-1.332979,-4.804545,0.003945,0.326606,-0.082290,-293.486796,188.571038,1510.249644,-915.490969,0
0.043750,196.209005,-50.763342,-102.324213,-1.622331,-5.344425,-1.245787,6.457076,5.591491,1.241560,-6.318543,0.025822,0.327433,-0.059989,-243.432285,188.648175,1510.492262,-916.187684,0
0.044792,156.896565,0.503627,-164.115463,-2.804557,-3.520697,-3.305421,6.472216,3.796126,3.220023,-6.401813,0.054991,0.341420,-0.100873,-150.325940,188.729618,1510.976572,-916.871881,0
0.045834,94.520977,49.726964,-208.712098,-3.671523,-0.966744,-5.284600,5.783357,1.409560,5.232307,-5.754579,0.025822,0.337630,-0.100873,-38.778460,188.724478,1510.097152,-917.128123,0
0.046875,42.665620,122.534282,-183.254346,-3.164855,1.557854,-6.274190,4.186113,-1.035038,6.225766,-4.161096,0.011237,0.335977,-0.097156,87.787626,188.576417,1509.295012,-917.674744,0
0.047917,-8.116245,186.380157,-133.444644,-2.331667,3.829257,-6.362690,2.157387,-3.272897,6.530145,-2.166404,-0.054394,0.344520,-0.074856,197.871524,188.646824,1509.805527,-918.184039,0
0.048958,-65.587665,195.400325,-71.568332,-1.138181,5.726375,-5.159896,-0.783510,-5.050127,5.287264,0.831312,-0.123671,0.331774,-0.082290,264.273122,188.721545,1509.909952,-918.879935,0
0.050000,-147.941521,170.430433,-17.930853,-0.113585,6.746488,-3.647352,-3.046903,-6.033044,3.803417,3.215859,-0.156487,0.311242,-0.063706,317.243540,188.797905,1509.921103,-918.652207,0
0.051042,-186.847164,110.061081,31.963911,0.922271,6.218084,-1.177401,-4.799329,-5.601431,1.436024,4.877472,-0.192949,0.324126,-0.089723,295.210998,188.571391,1510.384323,-917.654961,0
0.052084,-196.067903,51.018916,102.796006,2.340943,5.429147,1.344846,-6.214896,-4.821626,-1.163880,6.501235,-0.236703,0.325366,-0.089723,244.120721,188.722857,1509.904849,-918.419267,0
0.053125,-156.676363,-0.330269,164.319919,3.421836,3.535699,3.376321,-6.256530,-3.087920,-3.116979,6.470955,-0.247641,0.324815,-0.086006,150.496494,188.723014,1509.015170,-918.639601,0
0.054167,-94.492874,-49.682801,209.135285,3.320502,1.003763,5.399751,-5.552532,-0.675965,-5.146172,5.910775,-0.225764,0.342109,-0.119457,38.903980,188.722523,1508.985693,-919.236468,0
0.055209,-42.343719,-122.513609,183.434499,3.804652,-1.553859,6.308886,-3.925009,1.768633,-6.131176,4.321078,-0.192949,0.334185,-0.074856,-88.157472,188.572329,1509.158219,-920.101681,0
0.056252,8.483345,-186.981969,133.406067,2.903908,-3.784899,6.449681,-1.881142,3.955714,-6.418645,2.235545,-0.167425,0.341489,-0.119457,-197.926137,188.729865,1509.280420,-920.515797,0
0.057294,66.146864,-198.104493,71.201659,1.721681,-5.704033,5.250910,1.037045,5.761960,-5.141945,-0.690256,-0.087210,0.329638,-0.097156,-265.149593,188.721942,1509.007602,-920.860864,0
0.058334,148.116523,-170.820835,18.111006,0.708344,-6.724147,3.718253,3.296653,6.835552,-3.700372,-3.142932,-0.021578,0.313860,-0.104590,-328.849194,188.722049,1509.348323,-921.810185,0
0.059375,186.954366,-110.063898,-31.856668,-0.226178,-6.199412,1.236233,5.105853,6.316891,-1.337207,-4.762910,-0.010640,0.328880,-0.097156,-293.700704,188.571058,1509.248375,-921.070735,0
0.060417,196.175105,-51.303612,-102.834583,-1.577294,-5.366442,-1.281991,6.472216,5.584237,1.216195,-6.371533,0.011237,0.333014,-0.097156,-243.938909,188.721889,1509.807398,-921.431173,0
0.061458,156.591467,0.139532,-164.820260,-2.849594,-3.509688,-3.341625,6.510065,3.807007,3.258071,-6.405598,0.033114,0.355338,-0.082290,-149.515341,188.797432,1510.110720,-921.872121,0
0.062500,93.989880,49.809180,-209.028042,-3.772857,-0.959405,-5.344941,5.802282,1.420441,5.304174,-5.803784,0.025822,0.351066,-0.067423,-37.990377,188.722003,1511.189778,-922.424112,0
0.063542,42.258822,122.968847,-182.901948,-3.311226,1.590879,-6.314417,4.231533,-1.064054,6.293406,-4.153526,-0.003348,0.336597,-0.100873,88.665775,188.571131,1511.679959,-922.994499,0
0.064583,-8.466543,186.368412,-133.213762,-2.320407,3.873291,-6.431076,2.138462,-3.272897,6.517463,-2.128554,-0.061686,0.333979,-0.056273,197.826491,188.722079,1511.249496,-923.010220,0
0.065625,-65.937963,195.564755,-71.252388,-1.093144,5.730044,-5.220237,-0.828929,-5.071889,5.329539,0.835097,-0.134610,0.312413,-0.108307,264.768489,188.797347,1512.014753,-923.088361,0
0.066672,-148.122320,170.559628,-16.897961,-0.012251,6.753827,-3.611148,-3.152881,-6.080195,3.828781,3.265064,-0.127317,0.315513,-0.093440,317.130957,188.722165,1512.933916,-923.528445,0
0.067708,-187.265261,109.673496,31.818091,0.956049,6.240101,-1.161310,-4.863673,-5.637701,1.431797,4.941817,-0.163779,0.329500,-0.093440,296.055373,188.646567,1513.586402,-924.319828,0
0.068750,-196.147002,51.476971,103.197011,2.307165,5.487859,1.360937,-6.245175,-4.872404,-1.117378,6.546655,-0.243995,0.325573,-0.115740,243.760455,188.721916,1514.837936,-924.322204,0
0.069791,-155.885368,-0.013153,165.559390,3.478132,3.572394,3.448730,-6.332229,-3.149579,-3.193073,6.603430,-0.262226,0.353064,-0.104590,149.258078,188.797324,1517.091061,-925.479188,0
0.070833,-93.995677,-49.694546,209.135285,4.333839,0.996424,5.423887,-5.582811,-0.650576,-5.184219,5.975120,-0.192949,0.343280,-0.100873,38.487422,188.587622,1517.795459,-925.988190,0
0.071875,-41.835222,-123.288779,183.142859,3.827171,-1.605232,6.397386,-3.970428,1.783141,-6.190361,4.294583,-0.167425,0.339077,-0.112023,-88.945554,188.671848,1518.210184,-926.342294,0
0.072916,8.777143,-186.629619,133.345308,2.915167,-3.825263,6.433590,-1.835723,4.013746,-6.380598,2.197695,-0.167425,0.331912,-0.100873,-197.453287,188.745697,1517.457868,-926.972952,0
0.073958,66.259864,-195.872942,71.213811,1.676644,-5.755406,5.267001,1.063540,5.834500,-5.205357,-0.716751,-0.072625,0.317994,-0.086006,-265.250918,188.808679,1517.715403,-927.459666,0
0.075000,147.867924,-170.668150,17.892276,0.719604,-6.713138,3.682048,3.311793,6.860941,-3.734192,-3.074802,-0.050748,0.317512,-0.097156,-328.106144,188.589900,1518.291147,-926.588007,0
0.076041,187.428963,-109.911213,-31.650090,-0.282474,-6.173726,1.224165,5.102068,6.331399,-1.299159,-4.774265,0.014883,0.327847,-0.123173,-294.972895,188.726705,1518.291657,-927.110438,0
0.077083,196.186405,-51.808648,-103.332801,-1.633590,-5.370111,-1.298082,6.479786,5.580610,1.258470,-6.390458,0.029468,0.325711,-0.082290,-243.330960,188.738966,1518.378273,-927.874952,0
0.078125,156.060370,0.092552,-165.439995,-2.838335,-3.454646,-3.401966,6.544130,3.796126,3.342621,-6.413168,0.011237,0.339628,-0.086006,-148.682225,188.797084,1518.497566,-928.799841,0
0.079166,93.628283,49.985355,-208.942980,-3.694042,-0.926380,-5.344941,5.779572,1.337020,5.299947,-5.784859,0.007591,0.343969,-0.093440,-37.247328,188.646333,1517.668450,-929.275913,0
0.080208,41.400028,123.250728,-182.853341,-3.243670,1.675277,-6.286258,4.186113,-1.089443,6.289179,-4.142171,-0.025225,0.337286,-0.097156,89.746574,188.721828,1517.601267,-929.183386,0
0.081259,-9.664335,187.014387,-131.986443,-2.219074,3.917325,-6.366712,2.051408,-3.327302,6.517463,-2.011219,-0.098148,0.290985,-0.104590,199.245039,188.721846,1516.991017,-929.820640,0
0.082304,-67.576452,195.447305,-69.441789,-1.059366,5.825450,-5.192078,-0.851639,-5.129921,5.295719,0.899442,-0.145548,0.321163,-0.108307,267.549295,188.797280,1517.153043,-929.944444,0
0.083339,-148.438718,170.136808,-17.311117,-0.046029,6.779513,-3.655398,-3.149096,-6.062060,3.820327,3.276419,-0.182010,0.320336,-0.100873,317.344865,188.721828,1516.835780,-929.977271,0
0.084379,-187.581659,109.485576,32.243400,0.922271,6.306151,-1.121082,-4.909092,-5.637701,1.338792,4.983452,-0.203887,0.326262,-0.089723,296.089148,188.797282,1516.478206,-931.047462,0
0.085421,-195.966204,51.559186,104.290661,2.262128,5.440156,1.409210,-6.248960,-4.839761,-1.185017,6.573150,-0.222118,0.328053,-0.112023,242.859789,188.721840,1516.387448,-931.904163,0
0.086462,-155.252573,-0.706109,166.191277,3.511910,3.535699,3.492980,-6.317089,-3.080666,-3.231121,6.595860,-0.214826,0.344107,-0.082290,147.513038,188.797210,1515.907337,-932.253766,0
0.087504,-92.854385,-50.375757,209.232498,4.345098,0.937713,5.476182,-5.499543,-0.632441,-5.247632,5.891850,-0.214826,0.343556,-0.089723,36.652315,188.646420,1515.294379,-932.387029,0
0.088554,-39.789936,-125.543821,182.109967,3.793393,-1.693299,6.389340,-3.913654,1.906459,-6.186134,4.260518,-0.174718,0.329982,-0.097156,-93.617759,188.797260,1515.293049,-932.499391,0
0.089598,10.167034,-187.369554,131.765591,2.870130,-3.891314,6.417499,-1.778949,4.097167,-6.405963,2.152276,-0.112733,0.325297,-0.097156,-199.277136,188.721681,1515.690117,-932.857081,0
0.090631,67.209057,-195.708511,70.630531,1.665385,-5.726050,5.275046,1.082464,5.863516,-5.201129,-0.716751,-0.109087,0.304421,-0.071140,-266.523109,188.797219,1516.094412,-932.673149,0
0.091676,148.805818,-170.480230,17.710000,0.708344,-6.779189,3.730321,3.379922,6.886330,-3.729964,-3.139147,-0.058040,0.321921,-0.082290,-328.094886,188.570995,1516.561078,-933.425345,0
0.092713,187.835760,-109.594097,-32.099702,-0.293733,-6.247115,1.196006,5.173982,6.345907,-1.290704,-4.884030,-0.003348,0.328811,-0.059989,-294.916603,188.797206,1517.287030,-934.554698,0
0.093754,195.903907,-51.327102,-104.134812,-1.678627,-5.392128,-1.330264,6.513850,5.595118,1.233105,-6.424523,0.014883,0.331292,-0.093440,-242.058769,188.721837,1518.064210,-934.219810,0
0.094794,155.111176,0.562352,-166.497191,-2.838335,-3.517027,-3.466330,6.593334,3.745348,3.342621,-6.469943,0.014883,0.355407,-0.100873,-146.959701,188.797262,1518.475011,-934.378681,0
0.095833,92.780788,50.102805,-209.125255,-3.705301,-0.933719,-5.385168,5.821207,1.311631,5.384496,-5.826494,0.025822,0.358231,-0.104590,-36.526795,188.571085,1519.217174,-935.214008,0
0.096875,40.970631,123.884958,-182.282212,-3.266189,1.693624,-6.427053,4.231533,-1.132967,6.335681,-4.183806,0.025822,0.338595,-0.078573,90.804857,188.797144,1520.067691,-935.517157,0
0.097916,-9.088038,186.662037,-132.472510,-2.331667,3.924664,-6.447167,2.089258,-3.338183,6.555510,-2.117199,-0.065333,0.331016,-0.093440,198.141724,188.797110,1521.226128,-935.380224,0
0.098958,-66.728958,195.494285,-70.717715,-1.081884,5.847467,-5.256441,-0.813790,-5.100905,5.354904,0.891872,-0.098148,0.317374,-0.071140,266.175779,188.797197,1521.457487,-935.713871,0
0.100000,-148.280519,170.583118,-18.003763,-0.068547,6.860242,-3.691602,-3.118817,-6.163616,3.858374,3.329409,-0.182010,0.321990,-0.123173,317.221023,188.571006,1522.603957,-937.276725,0
0.101041,-188.135355,109.438596,31.878850,0.899753,6.298812,-1.137173,-4.973436,-5.677598,1.368384,5.070507,-0.171072,0.328467,-0.078573,296.246764,188.724563,1523.654048,-938.253940,0
0.102083,-196.000103,51.324286,103.986869,2.318424,5.476851,1.421278,-6.275455,-4.919555,-1.189245,6.588290,-0.236703,0.326193,-0.104590,242.330648,188.797235,1524.556680,-938.279907,0
0.103125,-154.563277,-0.342014,166.689495,3.545688,3.568725,3.541253,-6.392788,-3.142325,-3.235348,6.663989,-0.225764,0.358163,-0.126890,147.580588,188.797306,1525.847157,-938.270668,0
0.104166,-92.481487,-50.140856,209.281105,4.255024,0.970738,5.492273,-5.624446,-0.654203,-5.260314,5.937270,-0.225764,0.346381,-0.063706,36.787415,188.571180,1526.499403,-938.180361,0
0.105208,-40.343632,-124.404555,182.474517,3.860949,-1.634588,6.461749,-4.008277,1.815784,-6.224181,4.313508,-0.189302,0.322128,-0.115740,-91.287286,188.797416,1527.280014,-937.745469,0
0.106250,9.217841,-186.770559,132.591905,2.982723,-3.839941,6.457727,-1.858432,4.079032,-6.482058,2.182555,-0.167425,0.342384,-0.093440,-197.430770,188.797213,1527.978216,-938.231442,0
0.107291,67.039558,-195.767236,71.250266,1.777978,-5.810448,5.315273,1.067325,5.896159,-5.243404,-0.728106,-0.105440,0.321232,-0.093440,-266.500592,188.797217,1528.515973,-938.967179,0
0.108333,148.568520,-170.762110,18.268977,0.697085,-6.830561,3.726298,3.398846,6.882703,-3.725737,-3.169427,-0.047102,0.319992,-0.082290,-327.531970,188.648420,1528.262919,-939.624668,0
0.109375,188.231258,-109.288727,-31.856668,-0.293733,-6.239776,1.155778,5.226971,6.374923,-1.218837,-4.933235,-0.003348,0.328673,-0.108307,-295.209320,188.721782,1528.224029,-940.835541,0
