1-Time,2-VGERA,3-VGERB,4-VGERC,5-VN,6-IGERAN,7-IGERBN,8-IGERCN,9-IGERAT,10-IGERBT,11-IGERCT,12-IN,13-IFD,14-IFAULT,15-VFAULT,16-Speed (rad/s),17-FAULT 
0.000000,-87.039897,-105.862070,186.000569,6.445458,5.649508,0.776349,-6.132310,-5.671553,-0.464600,5.861877,-0.208806,0.603167,-0.039427,9.604528,188.495680,0
0.001042,-10.217141,-149.172111,184.510985,6.411528,4.044782,2.970976,-6.516642,-4.120386,-2.768585,6.381323,-0.234377,0.615253,-0.039427,4.006078,188.495734,0
0.002083,59.380442,-179.688474,139.528031,5.551968,1.648344,5.038608,-6.039026,-1.749528,-4.778801,5.840530,-0.241683,0.603951,-0.031958,-0.913772,188.495752,0
0.003125,112.531399,-197.362837,56.049811,3.979878,-0.872353,6.332366,-4.695733,0.805119,-6.277020,4.677114,-0.241683,0.606956,-0.046895,-6.274711,188.646605,0
0.004167,161.565029,-163.657114,-13.308144,2.667918,-3.112579,6.602230,-2.669599,3.047326,-6.482658,2.713183,-0.190541,0.603886,-0.024490,-8.966491,188.495689,0
0.005208,181.346350,-114.439512,-82.333712,1.344648,-5.136237,5.875979,-0.113611,5.153531,-5.869941,0.244037,-0.124787,0.591931,-0.043161,-10.040941,188.495774,0
0.006250,183.694247,-28.749659,-132.979546,0.417228,-6.155167,4.316325,2.308048,6.157011,-4.350738,-2.093468,-0.069992,0.576058,-0.050629,-12.246391,188.495852,0
0.007292,158.253019,46.949285,-169.517425,-0.272682,-6.339782,2.236788,4.337914,6.414313,-2.269178,-4.117883,0.017680,0.629036,-0.031958,-11.194561,188.721960,0
0.008333,87.067486,106.242362,-185.668940,-0.600672,-5.537419,-0.537253,6.031956,5.616676,0.450279,-5.694009,0.046904,0.581218,-0.020755,-4.827031,188.495700,0
0.009375,9.212562,149.359108,-184.634849,-0.566742,-3.964645,-2.751722,6.434944,4.032427,2.745870,-6.224128,0.014027,0.601404,0.001650,0.963688,188.495694,0
0.010417,-60.226226,179.440559,-139.578031,0.270198,-1.554006,-4.827292,5.905089,1.654217,4.777069,-5.715356,0.010374,0.588273,-0.043161,5.804368,188.495729,0
0.011458,-112.526496,197.960585,-55.767424,1.853598,0.991543,-6.156767,4.595378,-0.948214,6.296272,-4.551940,-0.040768,0.602841,-0.031958,10.746838,188.646538,0
0.012500,-161.389988,163.554171,13.652083,3.154248,3.320526,-6.414725,2.572976,-3.153664,6.527090,-2.570220,-0.040768,0.602122,-0.050629,13.845778,188.495653,0
0.013542,-182.056024,114.747318,82.283712,4.443588,5.298031,-5.720223,0.028181,-5.270896,5.931159,-0.108190,-0.069992,0.594806,-0.076769,14.931538,188.495667,0
0.014584,-183.904851,30.048100,132.794129,5.427558,6.320511,-4.176444,-2.456911,-6.237618,4.382580,2.229316,-0.219765,0.599183,-0.024490,16.695898,188.495689,0
0.015625,-158.985378,-45.252174,169.885985,6.072228,6.554829,-2.009597,-4.524090,-6.579463,2.271643,4.324887,-0.197847,0.603951,-0.017021,17.329258,188.646500,0
0.016667,-88.695902,-105.511723,185.434281,6.434148,5.681461,0.760474,-6.177087,-5.678904,-0.452010,5.822741,-0.252642,0.599313,-0.058098,9.468808,188.495703,0
0.017709,-10.568759,-149.111706,184.831061,6.411528,4.101587,2.994787,-6.520373,-4.135089,-2.772781,6.356418,-0.238030,0.597419,-0.050629,4.187038,188.495761,0
0.018750,59.958909,-179.024024,139.885038,5.585898,1.658995,5.078294,-5.990518,-1.767906,-4.766210,5.812067,-0.241683,0.593957,-0.002084,-1.366172,188.495678,0
0.019792,112.168439,-198.123934,55.594318,3.979878,-0.883004,6.356178,-4.733047,0.874958,-6.243446,4.637978,-0.201500,0.599379,-0.009553,-6.161611,188.571132,0
0.020834,160.805081,-163.560467,-13.825189,2.679228,-3.201336,6.633978,-2.673330,3.102463,-6.503641,2.723856,-0.164970,0.595982,-0.050629,-8.808151,188.495667,0
0.021875,181.618570,-114.040842,-82.038258,1.378578,-5.146888,5.903759,-0.065103,5.193964,-5.827974,0.197785,-0.091910,0.589580,0.005384,-10.312381,188.495575,0
0.022917,183.614850,-29.160410,-132.782576,0.394608,-6.180019,4.316325,2.345362,6.171714,-4.325558,-2.089910,-0.073645,0.595590,-0.031958,-12.189841,188.495725,0
0.023959,158.752089,45.753276,-169.788258,-0.340542,-6.417888,2.209007,4.442392,6.498856,-2.269178,-4.210387,-0.026156,0.607152,-0.024490,-11.737441,188.495725,0
0.025000,88.405901,105.577912,-185.841288,-0.645912,-5.519667,-0.580907,6.084195,5.613000,0.483852,-5.743819,0.014027,0.610614,-0.043161,-4.849651,188.495618,0
0.026042,11.265555,149.443675,-184.782576,-0.600672,-3.953995,-2.854905,6.449869,4.036103,2.846590,-6.277496,0.039598,0.613358,-0.002084,0.997618,188.495703,0
0.027084,-59.012578,180.032524,-139.627273,0.270198,-1.454599,-4.910632,5.920014,1.602757,4.873593,-5.701125,0.028639,0.603429,-0.020755,5.238868,188.495776,0
0.028125,-112.050111,198.141799,-55.828977,1.797048,1.112252,-6.228202,4.531945,-1.040108,6.308862,-4.502130,-0.040768,0.596570,-0.039427,10.294438,188.495687,0
0.029167,-161.321933,163.880355,13.861364,3.120318,3.377330,-6.470285,2.487154,-3.263937,6.535483,-2.481273,-0.077298,0.589841,-0.031958,13.687438,188.495676,0
0.030209,-181.545611,113.805008,82.234470,4.443588,5.369036,-5.696412,-0.117342,-5.333384,5.834636,-0.019243,-0.139399,0.587816,-0.035692,14.761888,188.495756,0
0.031250,-184.199756,28.525907,132.646402,5.416248,6.412818,-4.124852,-2.561389,-6.307458,4.311236,2.314704,-0.164970,0.579650,-0.028224,17.103058,188.495741,0
0.032292,-158.837925,-46.303213,169.381251,6.060918,6.572580,-1.930225,-4.591255,-6.594166,2.221283,4.406718,-0.219765,0.586314,-0.009553,17.385808,188.495711,0
0.033334,-87.618365,-104.956002,186.480682,6.456768,5.670810,0.831909,-6.240520,-5.649498,-0.506567,5.933034,-0.263601,0.601142,-0.009553,9.649768,188.495620,0
0.034375,-11.351391,-148.942573,184.978788,6.400218,3.998629,3.074159,-6.557687,-4.076277,-2.844125,6.363534,-0.270907,0.607936,-0.039427,4.085248,188.495721,0
0.035417,58.280219,-180.244196,139.885038,5.529348,1.552487,5.141791,-6.020369,-1.687040,-4.908898,5.858319,-0.216112,0.604931,-0.035692,-0.857222,188.504091,0
0.036459,111.737424,-197.664859,56.603788,3.957258,-0.985962,6.407769,-4.647225,0.974203,-6.335774,4.595284,-0.175929,0.599901,-0.024490,-6.218161,188.420743,0
0.037500,161.383549,-164.104108,-12.988068,2.679228,-3.293643,6.645884,-2.524076,3.205384,-6.520428,2.617121,-0.143052,0.598725,-0.058098,-8.921251,188.496219,0
0.038542,181.437090,-114.427431,-81.558144,1.378578,-5.224994,5.872010,0.061764,5.289534,-5.819580,0.108839,-0.124787,0.588469,-0.031958,-10.040941,188.496123,0
0.039584,184.227345,-28.677174,-132.364016,0.439848,-6.265226,4.232985,2.423721,6.270959,-4.287787,-2.207319,-0.099216,0.560510,-0.031958,-12.314251,188.496120,0
0.040625,158.411814,46.876800,-169.369697,-0.295302,-6.382385,2.157416,4.483437,6.487829,-2.147474,-4.267312,-0.022503,0.595786,-0.020755,-11.205871,188.421779,0
0.041667,86.783923,105.372537,-186.518372,-0.645912,-5.512567,-0.660279,6.110314,5.561539,0.563589,-5.800744,-0.000585,0.601012,-0.013287,-4.838341,188.496413,0
0.042709,10.097277,149.226218,-185.065720,-0.611982,-3.900740,-2.870780,6.449869,3.973615,2.859180,-6.281054,0.017680,0.616036,-0.028224,0.873208,188.496221,0
0.043750,-58.989893,180.177495,-139.787311,0.224958,-1.429747,-4.954286,5.923746,1.580702,4.877790,-5.743819,0.003068,0.596896,-0.028224,5.634718,188.495649,0
0.044792,-111.789233,198.153880,-58.315720,1.819668,1.140655,-6.252013,4.509557,-1.087893,6.308862,-4.466552,-0.022503,0.600424,-0.046895,10.758148,188.420833,0
0.045833,-161.389988,165.764976,12.975000,3.131628,3.448336,-6.470285,2.434915,-3.293343,6.573253,-2.477716,-0.062686,0.598464,-0.024490,13.834468,188.496431,0
0.046875,-182.090051,115.170150,81.409659,4.398348,5.415190,-5.708317,-0.113611,-5.366466,5.901783,0.005661,-0.091910,0.590298,-0.043161,14.931538,188.496196,0
0.047917,-184.460634,30.205152,132.486364,5.371008,6.416368,-4.073261,-2.572583,-6.303782,4.353203,2.360956,-0.168623,0.597549,-0.013287,16.820308,188.496862,0
0.048959,-159.450420,-45.300498,169.639773,6.083538,6.579681,-1.918320,-4.606180,-6.575787,2.166726,4.435181,-0.234377,0.596766,-0.017021,17.340568,188.421043,0
0.050006,-87.153322,-105.125135,186.886932,6.434148,5.674360,0.915249,-6.300222,-5.620092,-0.548534,5.957939,-0.256295,0.594544,-0.031958,9.446188,188.497086,0
0.051043,-10.364594,-149.051301,185.298864,6.400218,4.041232,3.109876,-6.602463,-4.028493,-2.890289,6.431133,-0.289172,0.576972,-0.013287,4.175728,188.497106,0
0.052084,59.255674,-179.942173,139.872728,4.522758,1.527635,5.185445,-6.035295,-1.653958,-4.887915,5.879666,-0.241683,0.599313,-0.054364,-1.173902,188.495703,0
0.053126,111.340437,-198.353471,55.926705,3.764988,-0.985962,6.455392,-4.632300,1.029340,-6.344167,4.581052,-0.241683,0.598595,-0.028224,-6.116371,188.420283,0
0.054167,161.031931,-164.140351,-13.197349,2.701848,-3.346897,6.713350,-2.561389,3.234790,-6.549805,2.617121,-0.164970,0.598399,-0.043161,-8.819461,188.495718,0
0.055208,181.811392,-114.886505,-81.262690,1.389888,-5.267598,5.915665,0.028181,5.322616,-5.899318,0.105281,-0.139399,0.594349,-0.031958,-10.312381,188.495774,0
0.056250,184.374797,-29.945669,-132.265531,0.439848,-6.314930,4.240922,2.513274,6.256256,-4.291984,-2.257129,-0.066339,0.595720,-0.009553,-12.291631,188.495693,0
0.057292,159.273844,45.052583,-169.702084,-0.261372,-6.531497,2.054233,4.531945,6.587074,-2.151671,-4.370490,-0.044421,0.606760,-0.017021,-11.748751,188.420443,0
0.058333,88.462613,104.526874,-186.703031,-0.600672,-5.512567,-0.775368,6.211061,5.590945,0.626540,-5.871901,0.021333,0.611398,-0.024490,-4.872271,188.495803,0
0.059375,11.617172,149.214138,-185.238069,-0.611982,-3.900740,-2.989837,6.513302,3.947885,2.993475,-6.334421,0.014027,0.604082,-0.035692,1.042858,188.495580,0
0.060417,-58.366056,180.926511,-139.627273,0.224958,-1.344540,-5.085250,5.905089,1.525566,5.012084,-5.736703,0.010374,0.598595,-0.061832,5.114458,188.495709,0
0.061458,-111.358218,198.564630,-56.001326,1.797048,1.240062,-6.279793,4.513288,-1.165083,6.413779,-4.434531,-0.015197,0.595655,-0.024490,10.226578,188.420231,0
0.062500,-161.344618,164.375672,13.541288,3.176868,3.554844,-6.533783,2.416258,-3.370533,6.619417,-2.431464,-0.095563,0.594218,-0.046895,13.664818,188.495698,0
0.063542,-181.749776,114.288244,81.508144,4.432278,5.493296,-5.732129,-0.225552,-5.403223,5.905979,0.140860,-0.117481,0.590168,0.009119,14.784508,188.495656,0
0.064583,-185.027759,29.250761,132.400190,5.382318,6.494474,-4.065324,-2.691987,-6.377297,4.286056,2.424997,-0.186888,0.580500,-0.035692,17.227468,188.495700,0
0.065626,-159.359680,-45.505873,169.319697,6.072228,6.632935,-1.874665,-4.714390,-6.660330,2.107972,4.524127,-0.234377,0.603102,-0.035692,17.431048,188.344838,0
0.066667,-87.924612,-103.868721,187.256251,6.479388,5.713413,0.966841,-6.348730,-5.697283,-0.670238,6.075348,-0.248989,0.607609,-0.058098,9.717628,188.495779,0
0.067708,-12.077311,-148.773441,185.348107,6.422838,4.002179,3.232902,-6.628583,-4.065250,-3.003599,6.495174,-0.238030,0.614011,-0.035692,4.096558,188.495700,0
0.068750,57.304764,-181.005293,139.958902,5.551968,1.499233,5.272754,-6.020369,-1.562064,-5.009619,5.893898,-0.219765,0.606695,-0.043161,-0.755432,188.495712,0
0.069792,111.000162,-198.003125,56.788447,3.991188,-1.117322,6.538732,-4.613643,1.095503,-6.415511,4.605957,-0.219765,0.598791,-0.035692,-6.161611,188.344853,0
0.070833,161.338179,-164.406130,-12.754167,2.690538,-3.417903,6.725256,-2.483031,3.330359,-6.549805,2.535291,-0.143052,0.596243,-0.009553,-8.921251,188.495752,0
0.071875,181.584542,-114.427431,-81.028788,1.401198,-5.320852,5.891853,0.140122,5.355697,-5.844761,0.076818,-0.088257,0.586836,-0.050629,-10.040941,188.495781,0
0.072917,184.839840,-28.653012,-131.846970,0.394608,-6.332681,4.229017,2.584170,6.362853,-4.203854,-2.314055,-0.066339,0.541239,0.001650,-12.416041,188.495593,0
0.073958,158.740746,46.369402,-169.258902,-0.295302,-6.464041,2.042327,4.595378,6.590750,-2.092917,-4.359817,-0.040768,0.599509,0.005384,-11.194561,188.344887,0
0.075000,87.067486,104.309417,-187.170834,-0.623292,-5.526768,-0.747587,6.203599,5.605648,0.655917,-5.886133,0.003068,0.588861,-0.009553,-4.894891,188.495674,0
0.076042,11.231527,148.839630,-185.385796,-0.600672,-3.890090,-2.997775,6.546885,3.966264,2.947311,-6.345095,0.017680,0.612248,-0.028224,0.805348,188.495665,0
0.077083,-57.821616,180.660731,-139.861175,0.202338,-1.351641,-5.089218,5.920014,1.492484,4.999494,-5.747377,0.024986,0.600032,-0.024490,5.544238,188.495633,0
0.078125,-111.176738,198.371336,-56.826137,1.842288,1.218761,-6.327416,4.513288,-1.150380,6.426369,-4.480783,-0.018850,0.599640,-0.035692,10.656358,188.420292,0
0.079167,-161.378645,164.544805,12.150189,3.086388,3.526442,-6.529814,2.371482,-3.385236,6.606827,-2.459926,-0.029809,0.597876,-0.054364,13.789228,188.495598,0
0.080208,-182.396299,115.399687,80.720265,4.398348,5.500396,-5.684506,-0.210626,-5.469387,5.889193,0.080376,-0.150358,0.592193,-0.009553,14.954158,188.495658,0
0.081250,-185.061786,30.096424,131.920076,5.359698,6.469622,-4.033575,-2.658405,-6.392000,4.235696,2.464134,-0.183235,0.584876,-0.017021,16.888168,188.495664,0
0.082292,-159.529818,-45.119284,169.541288,6.049608,6.647136,-1.858791,-4.699464,-6.638275,2.137349,4.520569,-0.186888,0.592715,0.001650,17.363188,188.420338,0
0.083333,-87.731790,-103.953287,186.997728,6.456768,5.656609,0.982715,-6.363655,-5.675229,-0.640861,6.021980,-0.212459,0.604735,-0.024490,9.525358,188.420388,0
0.084375,-10.750239,-148.616389,185.766667,6.456768,4.016380,3.173373,-6.665896,-4.013790,-2.986813,6.509405,-0.223418,0.579389,-0.017021,4.232278,188.495598,0
0.085417,58.234849,-180.365005,140.229735,5.563278,1.481481,5.296566,-6.102459,-1.554713,-5.005422,5.901014,-0.238030,0.590625,0.001650,-1.083422,188.495819,0
0.086458,110.682572,-198.558846,56.542235,4.002498,-1.106671,6.538732,-4.602449,1.117558,-6.423904,4.573937,-0.212459,0.600358,-0.024490,-5.980651,188.420200,0
0.087500,160.839109,-164.539020,-12.335606,2.713158,-3.442755,6.749067,-2.505419,3.341386,-6.587575,2.556638,-0.154011,0.599117,-0.031958,-8.785531,188.420292,0
0.088542,181.958845,-115.405984,-80.327084,1.423818,-5.381206,5.895822,0.099077,5.421861,-5.869941,0.055471,-0.128440,0.592585,-0.050629,-10.346311,188.495541,0
0.089583,184.760442,-30.561795,-131.834659,0.439848,-6.353983,4.232985,2.599095,6.373880,-4.266804,-2.324728,-0.084604,0.595982,-0.005818,-12.336871,188.495627,0
0.090625,159.727544,44.388133,-169.578978,-0.329232,-6.513745,2.058201,4.651349,6.616480,-2.080327,-4.420300,-0.011544,0.607740,-0.035692,-11.805301,188.420383,0
0.091667,88.473956,103.789938,-187.281629,-0.645912,-5.519667,-0.822991,6.278226,5.576242,0.718867,-5.960848,-0.000585,0.607348,-0.020755,-4.894891,188.420318,0
0.092708,11.730597,148.803387,-185.681251,-0.623292,-3.826185,-3.037460,6.576736,3.925831,3.056425,-6.348653,0.006721,0.588143,-0.020755,1.076788,188.495727,0
0.093750,-57.866986,181.204371,-139.824243,0.304128,-1.277085,-5.109061,5.934940,1.466754,5.062444,-5.782955,0.003068,0.593173,-0.035692,5.046598,188.495747,0
0.094792,-110.677668,198.902896,-56.235227,1.842288,1.303967,-6.351228,4.468512,-1.249626,6.476730,-4.430973,-0.029809,0.595655,-0.017021,10.192648,188.420341,0
0.095833,-161.004343,164.834746,12.790341,3.109008,3.654252,-6.565531,2.330437,-3.480806,6.661384,-2.328286,-0.069992,0.592519,-0.005818,13.676128,188.495676,0
0.096875,-181.942599,115.025179,80.474053,4.409658,5.560751,-5.708317,-0.251671,-5.498793,5.872406,0.158649,-0.113828,0.589972,-0.017021,14.818438,188.495665,0
0.097917,-185.311321,30.156829,131.821591,5.359698,6.508675,-4.021669,-2.740495,-6.436109,4.248286,2.528175,-0.175929,0.590233,-0.031958,17.261398,188.495797,0
0.098958,-159.915463,-44.382349,169.344319,6.072228,6.661337,-1.854822,-4.781554,-6.715466,2.099579,4.573937,-0.230724,0.604343,-0.013287,17.397118,188.420298,0
0.100000,-88.503080,-102.938491,187.564016,6.411528,5.681461,1.030338,-6.427089,-5.715662,-0.716402,6.114484,-0.245336,0.610680,-0.020755,9.740248,188.495743,0
0.101042,-12.927999,-148.338528,185.729735,6.422838,3.973777,3.256714,-6.677090,-4.068926,-3.016190,6.527195,-0.278213,0.613489,-0.009553,4.062628,188.495687,0
0.102083,56.646899,-181.138183,140.451326,5.608518,1.449529,5.328314,-6.039026,-1.580443,-5.051586,5.883224,-0.252642,0.604147,-0.005818,-0.710192,188.495707,0
0.103125,110.172159,-198.389713,57.022349,3.979878,-1.135074,6.554607,-4.542747,1.176370,-6.478461,4.566821,-0.227071,0.598725,-0.002084,-6.071131,188.420271,0
0.104167,160.737026,-164.841043,-12.224811,2.701848,-3.481808,6.721287,-2.427060,3.385495,-6.608559,2.485481,-0.146705,0.591866,-0.031958,-8.830771,188.495703,0
0.105208,181.652597,-114.572401,-80.179356,1.401198,-5.391857,5.895822,0.151317,5.440240,-5.874137,-0.008570,-0.106522,0.582329,-0.039427,-10.063561,188.495689,0
0.106250,185.191457,-29.087925,-131.354546,0.451158,-6.364633,4.221079,2.606558,6.384907,-4.241624,-2.353191,-0.069992,0.582851,-0.024490,-12.404731,188.495624,0
0.107292,159.149076,45.318363,-169.221970,-0.261372,-6.506645,2.058201,4.643886,6.594425,-2.084524,-4.420300,-0.026156,0.587359,-0.028224,-11.251111,188.571040,0
0.108333,88.235763,103.318783,-187.269319,-0.600672,-5.523218,-0.811085,6.274495,5.550512,0.735654,-5.953732,0.003068,0.614273,-0.043161,-4.962751,188.495703,0
0.109375,12.388462,148.404717,-185.952084,-0.611982,-3.854587,-3.069209,6.565541,3.955237,3.056425,-6.405578,0.014027,0.612901,-0.020755,0.748798,188.495524,0
0.110417,-57.073011,180.672812,-140.685985,0.258888,-1.333889,-5.148747,5.964791,1.485133,5.100214,-5.786513,-0.004238,0.607087,0.001650,5.487688,188.495691,0
0.111458,-110.496188,198.757925,-57.700190,1.763118,1.275565,-6.355196,4.509557,-1.150380,6.472533,-4.462994,-0.018850,0.601142,-0.028224,10.565878,188.495633,0
0.112500,-160.958973,165.136769,11.337689,3.075078,3.586796,-6.593311,2.341631,-3.444048,6.636204,-2.403001,-0.066339,0.601077,-0.024490,13.743988,188.495779,0
0.113542,-182.600464,115.786276,79.858523,4.387038,5.546550,-5.704349,-0.244209,-5.451008,5.914373,0.137302,-0.106522,0.591997,0.001650,14.954158,188.495703,0
0.114583,-185.220581,30.289718,131.316856,5.371008,6.505125,-4.101041,-2.718107,-6.380973,4.290253,2.510386,-0.157664,0.576058,-0.024490,16.865548,188.495593,0
0.115625,-159.756668,-44.732695,169.528978,6.072228,6.682639,-1.874665,-4.747972,-6.708114,2.103776,4.534800,-0.197847,0.609308,-0.035692,17.385808,188.495680,0
0.116667,-88.264887,-103.312999,186.899243,6.490698,5.663709,0.943029,-6.404700,-5.634795,-0.695418,6.082464,-0.248989,0.579977,0.001650,9.559288,188.495674,0
0.117708,-11.544214,-148.096910,186.283713,6.445458,4.012830,3.236871,-6.725598,-4.046871,-2.982616,6.509405,-0.278213,0.607022,-0.054364,4.334068,188.495774,0
0.118750,57.361477,-179.893849,141.128410,5.631138,1.509884,5.280691,-6.106191,-1.580443,-5.034799,5.950823,-0.248989,0.596831,-0.009553,-1.038182,188.495767,0
0.119792,110.047392,-198.909192,57.588637,4.036428,-1.124423,6.602230,-4.658419,1.099179,-6.478461,4.620189,-0.183235,0.604670,-0.024490,-5.912791,188.495731,0
0.120833,160.408094,-164.961852,-11.215341,2.724468,-3.442755,6.784785,-2.531538,3.334035,-6.663116,2.588658,-0.168623,0.599183,-0.028224,-8.762911,188.571084,0
0.121875,182.401202,-116.142919,-79.440720,1.446438,-5.406058,5.943445,0.102809,5.388779,-5.932891,0.002104,-0.099216,0.598725,-0.013287,-10.346311,188.495761,0
0.122917,184.987292,-31.310811,-131.317614,0.417228,-6.371734,4.264734,2.625215,6.348150,-4.321361,-2.306939,-0.059033,0.598268,-0.017021,-12.325561,188.495810,0
0.123958,160.090504,43.627037,-169.615910,-0.272682,-6.517295,2.070107,4.636423,6.653237,-2.134884,-4.462994,-0.022503,0.607283,-0.020755,-11.827921,188.495640,0
0.125000,89.211218,103.294621,-186.850758,-0.645912,-5.544519,-0.807116,6.267032,5.653433,0.655917,-5.950174,0.028639,0.579324,-0.031958,-4.849651,188.495667,0
0.126042,11.934762,148.199342,-186.346023,-0.589362,-3.890090,-3.053335,6.595392,3.969940,3.048032,-6.405578,0.028639,0.587555,-0.020755,0.997618,188.495772,0
0.127083,-57.696848,180.334546,-140.735228,0.247578,-1.330339,-5.136841,5.979716,1.496160,5.066641,-5.768724,0.017680,0.608785,-0.028224,5.080528,188.495752,0
