1-Time,2-VGERA,3-VGERB,4-VGERC,5-VN,6-IGERAN,7-IGERBN,8-IGERCN,9-IGERAT,10-IGERBT,11-IGERCT,12-IN,13-IFD,14-IFAULT,15-VFAULT,16-Speed (rad/s),17-FAULT 
0.000000,-146.179695,-65.016533,168.260985,6.117468,4.960754,-2.430267,-2.680793,-4.954782,2.552822,2.574427,-0.161317,0.549209,-0.039427,-34.809841,188.721842,0
0.001042,-70.468504,-122.992792,182.516667,6.400218,4.811642,-0.322949,-4.386029,-4.708506,0.555196,4.186131,-0.208806,0.558420,-0.058098,-6.761041,188.571230,0
0.002083,6.592445,-158.522730,167.485417,6.060918,3.881469,1.391479,-4.986780,-3.907193,-1.278759,4.812312,-0.230724,0.545551,-0.028224,20.190688,188.495883,0
0.003125,77.505758,-177.840096,117.885985,5.190048,2.138283,3.351960,-5.024094,-2.175915,-3.112713,4.862122,-0.256295,0.559596,-0.024490,37.619398,188.646531,0
0.004167,127.571555,-185.934301,37.916288,3.640578,0.316990,4.582221,-4.307671,-0.327012,-4.526999,4.264404,-0.245336,0.566781,0.001650,51.869997,188.721860,0
0.005208,169.198532,-152.264822,-33.731439,2.226828,-1.561107,5.185445,-2.953183,1.496160,-5.055782,3.012042,-0.179582,0.560053,-0.058098,59.504247,188.571094,0
0.006250,174.620247,-99.398786,-106.117803,0.869628,-3.378849,4.947330,-1.046453,3.403874,-5.005422,1.140615,-0.143052,0.556721,-0.043161,58.995297,188.571152,0
0.007292,173.701504,-13.129051,-148.774053,0.089238,-4.518489,4.050430,0.931173,4.480869,-4.044379,-0.730813,-0.080951,0.543460,-0.058098,55.670157,188.721978,0
0.008333,146.139228,64.949832,-168.089394,-0.272682,-4.926771,2.518557,2.655066,4.980771,-2.571340,-2.459926,-0.069992,0.560184,-0.065566,39.598648,188.721915,0
0.009375,69.917625,122.986495,-183.022160,-0.566742,-4.688902,0.383459,4.341645,4.763902,-0.477190,-4.053842,-0.066339,0.530787,-0.043161,11.052208,188.571062,0
0.010417,-7.438229,158.733890,-167.486175,-0.204822,-3.822634,-1.311126,4.905082,3.885397,1.285421,-4.747622,-0.044421,0.523406,-0.031958,-14.259571,188.571118,0
0.011458,-78.067979,178.788191,-117.074243,0.688668,-2.001342,-3.307324,4.927470,2.076928,3.194916,-4.722717,-0.004238,0.564430,-0.054364,-32.977621,188.721811,0
0.012500,-127.838871,186.181704,-37.018371,2.192898,-0.162297,-4.478056,4.188659,0.209647,4.470710,-4.096536,-0.029809,0.562731,-0.031958,-45.995431,188.721938,0
0.013542,-169.545246,152.765923,34.198485,3.538788,1.719350,-5.077312,2.800589,-1.613525,5.041461,-2.812153,-0.077298,0.555741,-0.035692,-55.269630,188.646525,0
0.014583,-174.558631,99.585784,106.289394,4.895988,3.522891,-4.847135,0.864008,-3.466103,4.923953,-0.930052,-0.124787,0.551234,-0.065566,-54.251730,188.571056,0
0.015625,-174.569973,14.125469,149.179546,5.721618,4.669631,-3.898643,-1.098692,-4.583531,3.967107,1.026763,-0.146705,0.551495,-0.020755,-50.734320,188.721907,0
0.016667,-146.633395,-64.134627,168.248675,6.117468,5.021109,-2.299304,-2.781540,-4.998891,2.481478,2.652699,-0.175929,0.557832,-0.031958,-35.759881,188.797329,0
0.017708,-70.082859,-122.098805,184.018561,6.411528,4.769039,-0.188017,-4.483045,-4.734237,0.408312,4.264404,-0.227071,0.549601,-0.043161,-5.211571,188.721998,0
0.018750,6.910035,-158.546892,167.140720,6.060918,3.803363,1.502600,-5.031556,-3.807948,-1.362693,4.876354,-0.267254,0.542023,-0.035692,20.450818,188.571210,0
0.019792,77.709923,-179.362290,116.753409,5.133498,2.006923,3.482923,-5.005437,-2.050939,-3.263794,4.847891,-0.248989,0.555937,-0.046895,36.228268,188.721898,0
0.020833,127.458130,-185.704764,36.315909,3.629268,0.192730,4.613969,-4.221849,-0.202037,-4.522802,4.189689,-0.201500,0.557244,-0.054364,50.897337,188.797304,0
0.021875,169.107792,-152.856786,-35.085606,2.260758,-1.703118,5.169571,-2.908407,1.621135,-5.139716,2.923096,-0.219765,0.557309,-0.050629,59.470317,188.797349,0
0.022917,174.041779,-98.830984,-106.462500,0.926178,-3.499559,4.935425,-0.915855,3.462686,-4.971848,1.033879,-0.132093,0.551822,-0.046895,57.988707,188.646583,0
0.023958,174.472794,-13.648529,-149.118750,0.089238,-4.600145,4.014713,1.020726,4.569087,-4.027593,-0.841106,-0.124787,0.553782,-0.043161,55.805877,188.797367,0
0.025000,146.298023,64.237059,-168.027841,-0.329232,-4.955173,2.439185,2.725962,5.046934,-2.541963,-2.538199,-0.051727,0.555611,-0.035692,37.528918,188.797333,0
0.026042,70.325955,122.068346,-184.142425,-0.589362,-4.696003,0.280276,4.423735,4.738171,-0.355486,-4.142788,-0.018850,0.569068,-0.035692,9.989068,188.797255,0
0.027083,-6.258608,158.915103,-167.006061,-0.272682,-3.737428,-1.422247,4.938664,3.811882,1.356764,-4.768969,-0.022503,0.561163,-0.020755,-13.501801,188.721920,0
0.028125,-77.376087,179.730501,-116.544887,0.677358,-1.905484,-3.390664,4.949858,1.992386,3.266260,-4.729833,-0.029809,0.556721,-0.020755,-32.502601,188.797208,0
0.029167,-127.600679,186.205866,-35.799621,2.204208,-0.055789,-4.533616,4.136420,0.110402,4.546251,-4.014705,-0.022503,0.551495,-0.065566,-45.780541,188.797300,0
0.030208,-169.193628,152.922975,35.897349,3.561408,1.822308,-5.085250,2.740887,-1.731149,5.079231,-2.694744,-0.066339,0.555480,-0.039427,-56.016090,188.797278,0
0.031250,-174.433863,98.232723,106.547917,4.884678,3.622299,-4.787606,0.785649,-3.587403,4.881986,-0.812643,-0.110175,0.545812,-0.028224,-52.883220,188.797378,0
0.032292,-175.023673,13.038188,149.031819,5.698998,4.751288,-3.847051,-1.165857,-4.660722,3.950320,1.062342,-0.139399,0.548882,-0.058098,-49.456290,188.797237,0
0.033333,-146.565340,-64.050061,168.384091,6.106158,5.049511,-2.255649,-2.871093,-5.050351,2.422724,2.770108,-0.186888,0.555545,-0.043161,-34.979491,188.797200,0
0.034375,-70.105544,-121.700135,184.671023,6.456768,4.800992,-0.108645,-4.520359,-4.741588,0.307591,4.349792,-0.245336,0.558028,-0.020755,-6.319951,188.797251,0
0.035417,5.299400,-158.909319,166.919129,6.094848,3.785612,1.566097,-5.068870,-3.818975,-1.446626,4.961742,-0.227071,0.566977,-0.046895,20.201998,188.797364,0
0.036458,76.700440,-179.881769,116.876516,5.076948,1.921716,3.566263,-4.994243,-1.999479,-3.309958,4.879912,-0.234377,0.557505,-0.024490,37.325338,188.797220,0
0.037500,127.253965,-185.885978,36.303599,3.629268,0.121725,4.685404,-4.199461,-0.099116,-4.598343,4.154111,-0.227071,0.555154,-0.054364,51.677727,188.797291,0
0.038542,169.209874,-153.025919,-36.156629,2.215518,-1.781224,5.221163,-2.789003,1.764490,-5.160700,2.848381,-0.183235,0.553063,-0.054364,59.775687,188.797324,0
0.039583,174.177889,-97.477922,-106.671781,0.937488,-3.577665,4.939393,-0.826302,3.642798,-4.942472,0.895123,-0.135746,0.531506,-0.031958,58.972677,188.797342,0
0.040625,174.881124,-11.425643,-148.761743,0.123168,-4.667600,3.955184,1.166249,4.653629,-3.918479,-0.986978,-0.102869,0.513280,-0.054364,55.726707,188.797315,0
0.041667,145.572103,65.324340,-168.114016,-0.272682,-4.987126,2.339971,2.875217,5.032231,-2.445439,-2.634261,-0.048074,0.548033,-0.020755,39.621268,188.797248,0
0.042708,68.624580,121.718000,-185.250379,-0.657222,-4.706654,0.129470,4.513288,4.686711,-0.275749,-4.249523,-0.000585,0.559334,-0.039427,10.973038,188.797235,0
0.043750,-5.816251,159.253369,-166.649054,-0.261372,-3.684173,-1.569084,5.031948,3.731016,1.474272,-4.793874,-0.015197,0.563384,-0.058098,-13.954201,188.797338,0
0.044792,-76.582112,180.696973,-116.606440,0.654738,-1.795425,-3.513690,4.927470,1.937250,3.396357,-4.751180,-0.033462,0.558550,-0.017021,-32.830591,188.797391,0
0.045833,-127.714104,185.843438,-36.759849,2.158968,0.079122,-4.612988,4.039404,-0.018249,4.621791,-3.968453,-0.022503,0.556983,-0.039427,-45.995431,188.797268,0
0.046875,-169.862836,153.744477,36.082008,3.550098,1.989171,-5.124935,2.610289,-1.852449,5.112804,-2.609356,-0.069992,0.551038,-0.058098,-55.416660,188.797403,0
0.047917,-174.229698,97.942781,106.584849,4.907298,3.728808,-4.759826,0.617738,-3.649890,4.869396,-0.677445,-0.102869,0.531637,-0.046895,-54.330900,188.797275,0
0.048958,-175.874361,11.576398,148.871781,5.676378,4.783240,-3.763711,-1.315112,-4.675425,3.870583,1.222445,-0.143052,0.536471,-0.028224,-50.824800,188.797411,0
0.050000,-145.623912,-65.693064,168.137879,6.094848,5.021109,-2.132623,-3.057662,-4.973160,2.301020,2.827034,-0.168623,0.514064,-0.050629,-35.239621,188.797327,0
0.051042,-67.394686,-121.168575,186.480682,6.468078,4.758388,-0.005462,-4.647225,-4.701155,0.143920,4.399602,-0.230724,0.544571,-0.031958,-4.770481,188.797193,0
0.052083,6.592445,-159.175099,166.549811,6.072228,3.714606,1.697060,-5.083795,-3.741784,-1.580921,4.961742,-0.234377,0.561098,-0.046895,20.054968,188.797402,0
0.053125,76.326138,-181.150263,116.716478,5.133498,1.797456,3.649603,-5.001705,-1.900233,-3.482022,4.855007,-0.230724,0.555937,-0.039427,35.798488,188.797260,0
0.054167,127.571555,-185.245690,36.980682,3.640578,0.018767,4.760807,-4.117371,0.000130,-4.661293,4.100743,-0.194194,0.557244,-0.058098,51.112227,188.797358,0
0.055208,170.071904,-153.895744,-35.381061,2.238138,-1.948087,5.241006,-2.714376,1.867411,-5.164896,2.738088,-0.201500,0.556460,-0.031958,59.560797,188.797260,0
0.056250,173.837614,-98.130291,-106.622538,0.903558,-3.662872,4.887802,-0.714361,3.661177,-4.913095,0.827524,-0.124787,0.546727,-0.035692,58.124427,188.797191,0
0.057292,175.720469,-11.896798,-148.909470,0.089238,-4.706654,3.903593,1.259533,4.683035,-3.914282,-1.083040,-0.102869,0.561294,-0.076769,55.862427,188.797273,0
0.058333,145.288541,66.000871,-167.843182,-0.272682,-4.980025,2.248693,2.919993,5.094719,-2.302752,-2.740996,-0.077298,0.523993,-0.065566,36.816388,188.797277,0
0.059375,66.877835,121.440139,-186.493751,-0.634602,-4.664050,0.065972,4.554333,4.719793,-0.162438,-4.285102,-0.037115,0.534707,-0.058098,9.276538,188.797313,0
0.060417,-7.562996,159.277531,-166.599811,-0.250062,-3.598967,-1.537336,5.031948,3.675880,1.558206,-4.822337,-0.029809,0.569133,-0.043161,-13.433941,188.797324,0
0.061458,-77.115209,181.337261,-115.990909,0.654738,-1.724420,-3.553376,4.953590,1.823302,3.471898,-4.736948,-0.011544,0.550711,-0.031958,-32.242471,188.797516,0
0.062500,-127.577994,185.746791,-36.636743,2.238138,0.103973,-4.616957,4.017016,-0.055007,4.638578,-3.975569,-0.037115,0.559988,-0.039427,-46.063291,188.797271,0
0.063542,-170.032973,153.792800,35.404924,3.584028,1.999822,-5.156684,2.606558,-1.903909,5.146378,-2.598682,-0.080951,0.554043,-0.043161,-56.242290,188.797351,0
0.064583,-174.569973,98.824687,106.301705,4.895988,3.767861,-4.783637,0.610275,-3.716054,4.865200,-0.652540,-0.128440,0.550058,-0.039427,-52.905840,188.797229,0
0.065625,-176.033156,13.219401,148.945644,5.698998,4.800992,-3.747837,-1.367351,-4.734237,3.849600,1.229561,-0.161317,0.549340,-0.046895,-49.637250,188.721857,0
0.066667,-146.191037,-64.521216,168.224054,6.072228,5.067262,-2.077063,-3.012885,-5.050351,2.309414,2.862612,-0.183235,0.553259,-0.061832,-34.402681,188.797298,0
0.067708,-67.803016,-120.914876,186.603788,6.422838,4.754838,0.058035,-4.658419,-4.708506,0.139723,4.449412,-0.241683,0.549340,-0.039427,-5.268121,188.797255,0
0.068750,7.182255,-159.054290,166.796023,6.072228,3.700405,1.704997,-5.102452,-3.690324,-1.559937,4.951068,-0.252642,0.551691,-0.046895,20.643088,188.797403,0
0.069792,77.244880,-181.186506,115.977841,5.110878,1.797456,3.657541,-4.986780,-1.848773,-3.482022,4.890585,-0.216112,0.557636,-0.050629,37.133068,188.721864,0
0.070833,127.185910,-185.861816,35.983523,3.617958,-0.027387,4.756838,-4.154684,0.025860,-4.665490,4.086512,-0.212459,0.555023,-0.039427,51.734277,188.797333,0
0.071875,169.652232,-153.605802,-35.935038,2.249448,-1.916135,5.268786,-2.691987,1.885789,-5.202667,2.748761,-0.175929,0.556983,-0.061832,60.126297,188.721983,0
0.072917,174.121177,-98.118210,-106.400947,0.914868,-3.652221,4.935425,-0.703167,3.672204,-4.950865,0.852429,-0.139399,0.550777,-0.058098,58.950057,188.721956,0
0.073958,175.584359,-12.959918,-149.081819,0.089238,-4.731506,3.899624,1.259533,4.716117,-3.922675,-1.083040,-0.121134,0.549993,-0.043161,55.817187,188.722092,0
0.075000,146.116543,64.188735,-168.298675,-0.306612,-4.965824,2.244725,2.916262,5.087368,-2.357309,-2.776575,-0.088257,0.553128,-0.069301,39.519478,188.797355,0
0.076042,68.341017,120.993146,-186.346023,-0.645912,-4.656950,0.054066,4.595378,4.701414,-0.187619,-4.320680,-0.044421,0.560706,-0.046895,10.396228,188.646554,0
0.077083,-6.746336,159.277531,-166.587501,-0.283992,-3.634470,-1.612739,4.998366,3.697934,1.554009,-4.815221,-0.022503,0.549536,-0.039427,-14.417911,188.721945,0
0.078125,-77.160579,181.361423,-115.769319,0.733908,-1.731520,-3.557345,4.893888,1.819626,3.492881,-4.740506,-0.055380,0.544048,-0.058098,-32.762731,188.722011,0
0.079167,-127.396514,186.109218,-35.294886,2.226828,0.164328,-4.612988,3.998359,-0.088088,4.646971,-3.936433,-0.051727,0.550777,-0.069301,-45.769231,188.797273,0
0.080208,-169.522561,153.961933,36.783712,3.606648,2.056626,-5.132873,2.636409,-1.925964,5.146378,-2.534641,-0.051727,0.550842,-0.073035,-55.394040,188.571210,0
0.081250,-174.161643,97.725325,106.449432,4.907298,3.778511,-4.751889,0.606544,-3.708702,4.886183,-0.656098,-0.110175,0.547837,-0.031958,-54.296970,188.646500,0
0.082292,-176.157923,12.784489,148.896402,5.721618,4.868447,-3.783554,-1.359888,-4.726885,3.845403,1.240234,-0.135746,0.544048,-0.039427,-50.903970,188.721871,0
0.083333,-146.100297,-64.219194,168.421023,6.094848,5.067262,-2.132623,-3.031542,-5.112839,2.292627,2.898191,-0.190541,0.555807,-0.035692,-35.443201,188.797324,0
0.084375,-68.642361,-120.479964,186.702273,6.490698,4.783240,0.046129,-4.647225,-4.745264,0.127133,4.492106,-0.256295,0.560510,-0.061832,-5.007991,188.571151,0
0.085417,5.367455,-159.078452,166.549811,6.083538,3.693305,1.724840,-5.076333,-3.741784,-1.606101,4.936837,-0.245336,0.564299,-0.009553,20.032348,188.495850,0
0.086458,76.121973,-181.391882,116.445644,5.122188,1.779705,3.665478,-4.960660,-1.863476,-3.503006,4.869238,-0.245336,0.555480,-0.050629,35.651458,188.721929,0
0.087500,127.049800,-185.596036,35.921970,3.595338,-0.045138,4.760807,-4.083788,0.055266,-4.673883,4.075838,-0.201500,0.553194,-0.035692,50.863407,188.721684,0
0.088542,169.470752,-153.799097,-36.846023,2.204208,-1.962288,5.221163,-2.695719,1.922547,-5.211060,2.720299,-0.201500,0.550123,-0.087972,59.481627,188.571274,0
0.089583,173.769559,-97.139657,-106.634849,0.892248,-3.666422,4.871927,-0.684510,3.697934,-4.900505,0.806177,-0.146705,0.516089,-0.039427,58.237527,188.495638,0
0.090625,175.890607,-11.486048,-148.737122,0.089238,-4.770559,3.875813,1.207294,4.723468,-3.910085,-1.079482,-0.106522,0.545877,-0.061832,55.952907,188.721896,0
0.091667,145.583446,65.324340,-168.101705,-0.283992,-4.983575,2.312191,2.893873,5.068989,-2.340522,-2.691186,-0.055380,0.549732,-0.043161,37.268788,188.646505,0
0.092708,68.261620,121.138117,-186.272160,-0.657222,-4.681802,0.133438,4.539408,4.730820,-0.183422,-4.324238,-0.018850,0.555284,-0.054364,9.989068,188.571136,0
0.093750,-5.612086,159.265450,-166.575190,-0.261372,-3.662872,-1.569084,5.009560,3.664852,1.507845,-4.850799,-0.015197,0.565606,-0.031958,-13.083331,188.495832,0
0.094792,-76.094384,181.204371,-116.581819,0.677358,-1.767023,-3.549408,4.931201,1.878438,3.442521,-4.726275,-0.011544,0.560706,-0.039427,-32.197231,188.721902,0
0.095833,-127.498596,185.843438,-36.489015,2.170278,0.121725,-4.616957,4.046867,-0.029276,4.638578,-3.975569,0.006721,0.559400,-0.046895,-45.916261,188.571125,0
0.096875,-169.806123,153.792800,36.094318,3.538788,2.006923,-5.128904,2.632678,-1.845097,5.129591,-2.609356,-0.055380,0.553128,-0.058098,-56.174430,188.571060,0
0.097917,-174.354466,97.991105,106.437122,4.884678,3.707506,-4.755857,0.655051,-3.649890,4.902970,-0.713024,-0.117481,0.541566,-0.061832,-52.962390,188.495745,0
0.098958,-175.908388,11.600560,148.514773,5.721618,4.790341,-3.791491,-1.288992,-4.715858,3.925140,1.218887,-0.143052,0.544506,-0.031958,-49.569390,188.646594,0
0.100000,-145.816735,-65.415203,168.051705,6.049608,5.092114,-2.164372,-2.997960,-5.043000,2.351381,2.837707,-0.190541,0.539280,-0.076769,-34.470541,188.495689,0
0.101042,-68.120606,-121.084009,185.988258,6.468078,4.793891,0.002475,-4.677076,-4.759967,0.202674,4.413834,-0.223418,0.553716,-0.028224,-5.844931,188.495667,0
0.102083,6.252170,-158.993885,167.079167,6.083538,3.771411,1.637531,-5.098721,-3.804272,-1.480200,4.975973,-0.245336,0.564887,-0.050629,20.145448,188.495731,0
0.103125,76.246740,-180.594542,117.011932,5.133498,1.872012,3.641666,-5.053944,-1.962721,-3.410679,4.943953,-0.219765,0.562666,-0.043161,37.053898,188.571154,0
0.104167,126.981745,-185.970544,37.657765,3.629268,0.050719,4.725090,-4.225580,-0.003546,-4.686473,4.196805,-0.223418,0.563058,-0.054364,51.722967,188.495696,0
0.105208,169.686259,-153.484993,-35.171780,2.204208,-1.880632,5.260848,-2.759152,1.790220,-5.181683,2.819918,-0.205153,0.556395,-0.035692,59.945337,188.495644,0
0.106250,174.393397,-98.565204,-106.093182,0.914868,-3.609618,4.935425,-0.811377,3.664852,-4.988635,0.916470,-0.135746,0.548164,-0.046895,59.029227,188.495553,0
0.107292,175.357509,-11.969284,-148.540152,0.089238,-4.681802,3.967090,1.173712,4.672008,-3.989822,-1.022556,-0.102869,0.532028,-0.050629,55.817187,188.420267,0
0.108333,145.867008,65.445149,-168.040152,-0.261372,-4.987126,2.347908,2.819246,5.076340,-2.420259,-2.687629,-0.055380,0.547184,-0.035692,39.406378,188.495689,0
0.109375,67.717180,121.693838,-185.521213,-0.611982,-4.678251,0.181061,4.494631,4.712441,-0.279946,-4.245965,-0.007891,0.553651,-0.054364,10.520638,188.495660,0
0.110417,-7.268091,158.975508,-167.129167,-0.261372,-3.677073,-1.501618,5.050605,3.753070,1.482665,-4.811663,-0.011544,0.546988,-0.069301,-14.157781,188.495750,0
0.111458,-77.183264,180.467436,-116.631061,0.688668,-1.855780,-3.513690,5.002097,1.951953,3.366980,-4.783200,-0.015197,0.563842,-0.020755,-32.717491,188.269570,0
0.112500,-127.555309,186.193785,-37.006061,2.170278,-0.038038,-4.609020,4.140151,0.062617,4.659562,-4.071631,-0.029809,0.561229,-0.050629,-46.006741,188.495636,0
0.113542,-169.930891,153.684072,34.604735,3.527478,1.900414,-5.128904,2.733425,-1.786285,5.150575,-2.719649,-0.077298,0.556983,-0.054364,-55.450590,188.420207,0
0.114583,-174.672056,99.356247,106.018561,4.895988,3.664903,-4.783637,0.703559,-3.587403,4.919757,-0.769949,-0.117481,0.550777,-0.046895,-54.387450,188.495626,0
0.115625,-175.556771,13.630152,148.736364,5.676378,4.747737,-3.815303,-1.203171,-4.638667,3.983894,1.101478,-0.150358,0.569656,-0.046895,-50.892660,188.269501,0
0.116667,-146.361175,-64.581621,167.990152,6.094848,5.006908,-2.211995,-2.912138,-5.057703,2.414331,2.784340,-0.194194,0.542938,-0.046895,-35.431891,188.420249,0
0.117708,-68.812499,-121.265222,185.372728,6.456768,4.786790,-0.057054,-4.576329,-4.679100,0.299198,4.349792,-0.197847,0.509949,-0.054364,-4.827031,188.420186,0
0.118750,7.227625,-158.546892,167.189963,6.060918,3.789162,1.605783,-5.050213,-3.800596,-1.417250,4.904816,-0.248989,0.563319,-0.069301,20.360338,188.495673,0
0.119792,77.108770,-180.026739,116.778031,5.133498,1.971420,3.550389,-4.994243,-2.017857,-3.339335,4.851449,-0.227071,0.557048,-0.061832,35.934208,188.268710,0
0.120833,127.083827,-185.898059,36.796023,3.663198,0.128825,4.665561,-4.225580,-0.117494,-4.602539,4.154111,-0.205153,0.560118,-0.039427,50.886027,188.269940,0
0.121875,169.504779,-153.195052,-34.802462,2.294688,-1.781224,5.229100,-2.856168,1.661569,-5.114536,2.912422,-0.212459,0.561882,-0.043161,59.583417,188.420723,0
0.122917,174.245944,-99.096763,-106.117803,0.914868,-3.499559,4.959236,-0.930781,3.517822,-4.959258,1.026763,-0.150358,0.551691,-0.061832,58.158357,188.496083,0
0.123958,175.107974,-14.131766,-148.761743,0.111858,-4.610796,3.963122,0.998338,4.572763,-4.031789,-0.851780,-0.110175,0.550711,-0.061832,55.907667,188.269966,0
0.125000,146.434133,63.922955,-168.101705,-0.272682,-4.965824,2.411405,2.699842,4.999150,-2.508390,-2.563104,-0.066339,0.556395,-0.039427,37.494988,188.194589,0
0.126042,70.291927,121.850890,-184.327084,-0.634602,-4.703103,0.292181,4.405078,4.730820,-0.418437,-4.121441,-0.029809,0.559661,-0.073035,9.921208,188.420681,0
0.127083,-6.564856,158.685566,-167.326137,-0.283992,-3.733877,-1.370655,4.890156,3.811882,1.289617,-4.719159,-0.004238,0.565932,-0.065566,-13.547041,188.420690,0
