1-Time,2-VGERA,3-VGERB,4-VGERC,5-VN,6-IGERAN,7-IGERBN,8-IGERCN,9-IGERAT,10-IGERBT,11-IGERCT,12-IN,13-IFD,14-IFAULT,15-VFAULT,16-Speed (rad/s),17-Active Power,18-Reactive Power,19-FAULT 
0.000000,106.066174,93.339957,-175.918940,-0.419712,-4.873517,1.399416,3.628953,4.932986,-1.429840,-3.402756,-0.077298,0.547380,-0.017021,36.205648,188.421199,973.336269,1002.353547,0
0.001042,26.861493,142.847501,-182.012690,-0.555432,-4.124408,-0.418195,4.539408,4.227242,0.391525,-4.277986,-0.037115,0.539541,-0.024490,23.278318,188.496563,974.238370,1003.170734,0
0.002083,-49.677700,174.040395,-157.576137,-0.170892,-2.938615,-2.319147,4.979709,3.017920,2.275840,-4.758295,-0.022503,0.555676,-0.065566,-0.054212,188.269429,972.825716,1003.234402,0
0.003125,-114.091761,175.308890,-100.184091,0.982728,-1.028565,-3.985952,4.595378,1.180045,3.908354,-4.438089,-0.026156,0.553586,-0.050629,-12.212461,188.367388,972.272751,1003.109155,0
0.004167,-152.701632,174.958544,-16.828977,2.543508,0.700420,-4.863009,3.718506,-0.628424,4.953330,-3.623342,-0.022503,0.561425,-0.009553,-26.349961,188.442173,972.768598,1003.057936,0
0.005208,-166.607538,132.772027,70.022349,4.160838,2.553665,-4.918569,1.897598,-2.374405,4.991100,-1.912018,-0.069992,0.550319,-0.054364,-31.790071,188.498476,972.060974,1002.999247,0
0.006250,-187.432369,47.058013,124.866099,5.223978,4.165492,-4.489962,-0.024058,-4.135089,4.592414,-0.008570,-0.102869,0.547902,-0.024490,-36.212281,188.270998,971.708152,1003.278930,0
0.007292,-155.004160,-24.231401,163.213637,6.004368,4.825844,-3.287481,-1.699443,-4.723209,3.543241,1.556883,-0.183235,0.564168,-0.035692,-37.806991,188.420524,971.197874,1004.938741,0
0.008333,-106.378860,-93.104635,173.702273,6.174018,4.971405,-1.263503,-3.684532,-4.910673,1.440698,3.524372,-0.205153,0.544244,-0.035692,-31.710901,188.420636,970.765760,1005.911467,0
0.009375,-29.045692,-142.455128,181.174811,6.332358,4.261349,0.601731,-4.621106,-4.252713,-0.376470,4.431623,-0.194194,0.553978,-0.031958,-17.188861,188.496051,970.482291,1006.462113,0
0.010416,48.049284,-172.331204,156.812122,5.891268,3.089757,2.482840,-5.128572,-3.058095,-2.248195,5.040015,-0.234377,0.561947,-0.058098,1.800628,188.269693,968.383052,1007.293060,0
0.011458,114.039952,-174.759465,87.749621,4.567998,1.161956,4.121865,-4.747972,-1.223895,-3.893298,4.627304,-0.227071,0.556068,-0.039427,17.962618,188.420611,966.388737,1007.840245,0
0.012500,152.298206,-174.928598,1.107576,2.973288,-0.577680,5.026702,-3.848712,0.602953,-4.929881,3.819673,-0.201500,0.551038,-0.020755,30.200038,188.420497,964.409813,1010.239166,0
0.013541,166.283509,-130.072201,-71.278788,1.593468,-2.455777,5.090199,-2.009147,2.400394,-5.043192,2.179506,-0.154011,0.545812,-0.017021,35.696698,188.500269,964.010523,1014.093453,0
0.014583,187.153710,-48.381128,-123.143372,0.586878,-4.007249,4.629844,-0.150924,4.083888,-4.627720,0.233364,-0.121134,0.549601,-0.020755,40.955848,188.288557,963.679853,1015.022345,0
0.015625,154.850269,22.799558,-157.588447,-0.057792,-4.649849,3.467049,1.599088,4.730820,-3.536579,-1.374783,-0.080951,0.554892,-0.065566,40.684408,188.420262,963.175226,1014.446772,0
0.016666,105.703214,93.774869,-174.010796,-0.385782,-4.901919,1.419259,3.617759,4.903580,-1.438233,-3.406314,-0.033462,0.553716,-0.031958,34.463908,188.420336,962.442453,1013.958558,0
0.017708,26.657328,142.956229,-181.655682,-0.578052,-4.113757,-0.461849,4.535676,4.219891,0.383132,-4.263755,-0.029809,0.526541,-0.035692,21.140728,188.495691,962.042122,1013.906046,0
0.018750,-49.212658,172.107451,-158.831819,-0.159582,-2.920864,-2.338990,5.020754,3.017920,2.305217,-4.808105,-0.022503,0.557048,-0.031958,0.058888,188.269532,963.009102,1013.534099,0
0.019791,-114.069076,175.333052,-92.120644,1.107138,-1.071169,-4.033575,4.632692,1.176370,3.992287,-4.480783,-0.011544,0.558093,-0.002084,-12.732721,188.420544,961.924511,1014.877591,0
0.020833,-152.792372,175.018948,-5.564773,2.758398,0.700420,-4.874915,3.722238,-0.657830,4.928150,-3.637574,-0.044421,0.561621,-0.035692,-26.169001,188.420649,959.437222,1017.081285,0
0.021875,-166.925128,129.884691,66.747727,4.138218,2.567867,-4.934443,1.860284,-2.466299,4.940740,-1.876439,-0.091910,0.548360,-0.054364,-31.145401,188.496056,959.794217,1015.301403,0
0.022917,-187.443711,46.647263,124.373675,5.269218,4.158391,-4.422496,-0.031521,-4.090980,4.563038,0.005661,-0.113828,0.542219,-0.043161,-35.194381,188.269859,959.199034,1014.644069,0
0.023958,-154.924762,-23.675680,163.730682,5.981748,4.808092,-3.279544,-1.781533,-4.767318,3.480291,1.610250,-0.172276,0.545093,-0.061832,-36.415861,188.420604,960.393674,1013.935153,0
0.025000,-106.980013,-92.947583,174.588637,6.185328,4.999807,-1.200006,-3.747965,-4.958457,1.432305,3.595529,-0.197847,0.550842,-0.028224,-31.869241,188.443713,961.951001,1014.383378,0
0.026041,-28.660047,-142.612180,182.048864,6.366288,4.215196,0.641417,-4.617374,-4.230659,-0.397453,4.481433,-0.245336,0.555415,-0.017021,-17.234101,188.496594,962.797546,1014.384683,0
0.027083,48.650436,-171.715077,156.024243,5.857338,3.008101,2.490777,-5.091258,-3.039716,-2.340522,5.004436,-0.227071,0.558942,-0.009553,3.723328,188.269575,963.114800,1013.554023,0
0.028125,114.017267,-175.435996,97.598106,4.782888,1.144205,4.177425,-4.733047,-1.157732,-3.989822,4.648651,-0.205153,0.552736,-0.028224,18.482878,188.420459,967.798041,1012.363972,0
0.029166,152.184781,-174.844032,4.566856,3.007218,-0.616733,5.054482,-3.822592,0.647062,-4.900505,3.780537,-0.223418,0.551953,-0.031958,33.050158,188.420235,968.642699,1010.710641,0
0.030208,166.816607,-130.072201,-70.503220,1.604778,-2.477079,5.062419,-1.986758,2.426125,-4.984438,2.094118,-0.161317,0.548948,-0.050629,35.900278,188.495765,968.994666,1009.099659,0
0.031250,187.006257,-48.151591,-125.654735,0.530328,-4.049852,4.637781,-0.117342,4.087564,-4.619326,0.215574,-0.128440,0.554108,-0.024490,42.810688,188.344910,969.010799,1009.630682,0
0.032291,154.634761,23.367360,-163.435985,-0.170892,-4.713754,3.455143,1.643865,4.760226,-3.503006,-1.385457,-0.106522,0.551038,-0.035692,43.161298,188.345001,969.875804,1011.184673,0
0.033333,105.260856,94.004406,-177.310038,-0.442332,-4.873517,1.391479,3.625222,4.929310,-1.442430,-3.416987,-0.066339,0.553716,-0.024490,36.216958,188.420323,970.664493,1012.302248,0
0.034375,27.167740,142.714611,-181.298675,-0.544122,-4.117307,-0.473755,4.543139,4.227242,0.391525,-4.263755,-0.044421,0.542415,-0.046895,23.210458,188.495769,970.784976,1012.120426,0
0.035416,-48.498080,172.204098,-150.559091,0.032688,-2.942165,-2.346927,5.046874,3.062029,2.326200,-4.808105,-0.040768,0.561882,-0.054364,0.194608,188.420455,968.519237,1012.297440,0
0.036458,-114.103103,175.091434,-95.949243,1.061898,-1.074719,-4.017701,4.673737,1.172694,3.954517,-4.509246,-0.011544,0.561033,-0.054364,-12.133291,188.420332,969.297032,1012.073633,0
0.037500,-152.599550,175.151838,-9.491856,2.690538,0.689769,-4.914600,3.785671,-0.606369,4.957527,-3.669594,-0.044421,0.559334,-0.050629,-26.316031,188.420354,970.041481,1012.065833,0
0.038541,-166.380688,130.186714,71.007197,4.240008,2.571417,-4.938412,1.908792,-2.425866,4.999494,-1.897787,-0.080951,0.546400,-0.024490,-31.676971,188.495693,969.398730,1013.946688,0
0.039583,-187.421026,46.780152,126.761932,5.246598,4.176143,-4.493931,-0.016595,-4.090980,4.621791,-0.005012,-0.135746,0.536863,-0.017021,-36.212281,188.344885,969.517176,1015.407043,0
0.040625,-155.083557,-23.011230,165.023296,6.026988,4.800992,-3.343041,-1.725563,-4.741588,3.513864,1.574672,-0.154011,0.553651,-0.028224,-37.784371,188.366093,969.182169,1016.036319,0
0.041666,-106.809875,-92.766370,178.294129,6.321048,5.006908,-1.259535,-3.710651,-4.958457,1.428108,3.574182,-0.208806,0.550450,-0.039427,-31.790071,188.433189,969.687320,1016.800677,0
0.042708,-28.455882,-142.515532,181.027084,6.332358,4.264900,0.542202,-4.632300,-4.278444,-0.372273,4.470759,-0.208806,0.557440,-0.073035,-17.188861,188.495586,969.090356,1017.360966,0
0.043750,49.138164,-172.186233,150.041288,5.766858,3.050704,2.478871,-5.139766,-3.061770,-2.298555,5.036457,-0.245336,0.541435,-0.046895,2.072068,188.344919,966.996521,1018.177968,0
0.044791,114.198747,-174.976921,88.352841,4.567998,1.176157,4.125833,-4.759166,-1.165083,-3.960445,4.659325,-0.168623,0.552345,-0.065566,18.064408,188.420316,963.870670,1019.259308,0
0.045833,152.377603,-174.892355,2.904924,2.973288,-0.613183,5.030671,-3.856175,0.595601,-4.959258,3.794768,-0.219765,0.552867,-0.024490,30.233968,188.420289,963.628500,1020.475293,0
0.046875,166.464989,-130.362143,-72.239015,1.559538,-2.469978,5.114011,-1.979296,2.429800,-5.051586,2.143927,-0.161317,0.556003,-0.039427,35.809798,188.495707,963.790510,1022.012526,0
0.047916,187.096997,-47.922054,-126.713447,0.496398,-4.067603,4.669529,-0.128536,4.094915,-4.602539,0.215574,-0.139399,0.552410,-0.031958,40.955848,188.344822,963.758821,1022.219939,0
0.048958,154.680131,23.923082,-163.645266,-0.204822,-4.717304,3.455143,1.673715,4.716117,-3.494613,-1.431709,-0.088257,0.549797,-0.020755,40.718338,188.495785,963.763436,1021.785986,0
0.050000,105.385624,94.173539,-173.358334,-0.374472,-4.912570,1.339888,3.673730,4.962392,-1.404660,-3.406314,-0.040768,0.551561,-0.035692,34.463908,188.420419,963.248893,1020.882040,0
0.051041,27.542043,142.907906,-180.867804,-0.532812,-4.113757,-0.493598,4.565527,4.256648,0.454475,-4.317122,-0.029809,0.540455,-0.024490,21.095488,188.495709,964.454520,1020.903137,0
0.052083,-48.600163,172.022884,-162.438826,-0.193512,-2.896012,-2.402487,5.054337,3.039975,2.326200,-4.872146,-0.011544,0.560118,-0.024490,0.296398,188.420367,968.690450,1021.281325,0
0.053125,-113.932966,175.659236,-86.371591,1.265478,-1.032116,-4.073261,4.655080,1.124909,3.992287,-4.484341,-0.044421,0.559269,-0.017021,-12.597001,188.420379,966.700556,1021.690716,0
0.054166,-152.315987,175.176000,-0.295833,2.894118,0.750124,-4.930475,3.718506,-0.698263,4.957527,-3.591322,-0.044421,0.555219,-0.043161,-26.225551,188.420428,965.458294,1022.034121,0
0.055208,-167.072581,129.328970,73.690909,4.251318,2.645973,-4.934443,1.837896,-2.488353,4.999494,-1.862208,-0.084604,0.543852,-0.009553,-31.009681,188.495702,965.796746,1022.473776,0
0.056250,-187.568479,47.190903,125.493940,5.223978,4.215196,-4.414559,-0.061372,-4.127738,4.575628,0.098165,-0.132093,0.524973,-0.028224,-35.228311,188.345064,967.038488,1020.720835,0
0.057291,-155.004160,-22.721288,166.340531,6.060918,4.868447,-3.235890,-1.818847,-4.804076,3.404750,1.699197,-0.154011,0.554696,-0.065566,-36.483721,188.420392,969.258796,1019.536334,0
0.058333,-106.730478,-93.285849,178.047917,6.275808,5.017559,-1.223818,-3.796473,-4.969485,1.369354,3.666686,-0.238030,0.553716,-0.035692,-31.914481,188.420381,970.616572,1019.086680,0
0.059375,-27.401029,-142.914202,182.270455,6.377598,4.240048,0.677134,-4.695733,-4.223307,-0.468797,4.534800,-0.227071,0.553520,-0.035692,-17.075761,188.495720,972.175500,1018.448010,0
0.060416,50.090934,-171.461378,157.193750,5.879958,2.951297,2.570149,-5.139766,-2.977228,-2.399276,5.000878,-0.241683,0.545485,-0.002084,4.141798,188.420298,975.124210,1016.975476,0
0.061458,113.779074,-175.870908,86.703220,4.534068,1.080300,4.201237,-4.744241,-1.117299,-4.015002,4.616631,-0.241683,0.552671,-0.039427,18.471568,188.420278,975.635031,1016.369435,0
0.062500,152.343576,-174.711142,1.932386,2.928048,-0.701940,5.058451,-3.770353,0.702198,-4.992832,3.744958,-0.183235,0.556395,-0.054364,33.151948,188.420216,976.715854,1015.487541,0
0.063541,167.145539,-129.516480,-73.174621,1.559538,-2.551635,5.114011,-1.934519,2.525370,-5.026405,2.065655,-0.172276,0.549405,-0.054364,35.911588,188.495721,977.645563,1014.668698,0
0.064583,187.187737,-47.136795,-126.602652,0.541638,-4.103106,4.625875,-0.016595,4.175782,-4.636113,0.119513,-0.124787,0.543526,-0.031958,42.935098,188.495743,979.229579,1014.502913,0
0.065625,154.555364,24.599613,-165.048675,-0.227442,-4.742156,3.387677,1.714761,4.741847,-3.477826,-1.463729,-0.084604,0.551495,-0.061832,43.251777,188.495645,979.811837,1014.877129,0
0.066666,105.691871,94.076892,-178.331819,-0.453642,-4.841564,1.304170,3.681193,4.932986,-1.333316,-3.481028,-0.044421,0.533792,-0.031958,36.250888,188.420191,982.072854,1014.870509,0
0.067709,28.018428,142.895825,-180.498485,-0.555432,-4.106657,-0.553127,4.628960,4.208863,0.458672,-4.356259,-0.015197,0.556852,-0.031958,23.097358,188.495691,982.482700,1014.321464,0
0.068750,-48.770300,171.926237,-150.029735,-0.001242,-2.892461,-2.438204,5.046874,3.017920,2.363971,-4.865031,-0.033462,0.566781,-0.024490,0.296398,188.495553,979.028577,1013.813220,0
0.069791,-114.080418,175.780045,-86.297728,1.242858,-0.985962,-4.049449,4.651349,1.128585,4.000681,-4.466552,-0.004238,0.557767,-0.020755,-11.963641,188.495819,979.008573,1013.744825,0
0.070833,-152.350015,175.212243,-1.723864,2.826258,0.760775,-4.926506,3.692387,-0.698263,4.957527,-3.580648,-0.033462,0.552867,-0.024490,-26.451751,188.495662,979.333193,1013.328690,0
0.071874,-166.947813,129.522264,73.026137,4.228698,2.653073,-4.922538,1.826702,-2.492029,5.007887,-1.830187,-0.102869,0.547576,-0.017021,-31.620421,188.495738,979.688567,1012.813187,0
0.072916,-187.625191,47.577492,126.269508,5.235288,4.229397,-4.442339,-0.087491,-4.168171,4.596611,0.069703,-0.117481,0.547576,0.009119,-36.336691,188.495664,980.108200,1013.594181,0
0.073958,-154.970132,-22.745450,164.949432,6.004368,4.854246,-3.283513,-1.818847,-4.807752,3.488684,1.649387,-0.179582,0.559269,-0.024490,-37.852231,188.495759,979.342319,1014.450952,0
0.075000,-106.288120,-93.382496,178.318751,6.287118,5.031760,-1.223818,-3.770353,-4.973160,1.369354,3.631107,-0.219765,0.549144,-0.031958,-31.790071,188.420557,978.855759,1014.620239,0
0.076041,-26.856589,-142.660503,181.347160,6.377598,4.186793,0.633480,-4.692002,-4.208604,-0.477190,4.499222,-0.238030,0.544897,-0.005818,-16.883491,188.495761,978.093989,1014.140729,0
0.077083,49.784686,-171.678835,150.632197,5.789478,2.993900,2.558243,-5.117378,-3.010310,-2.386686,5.011552,-0.241683,0.568023,-0.050629,2.479228,188.495698,976.033757,1014.574024,0
0.078124,113.960554,-175.351430,88.635985,4.613238,1.058998,4.209174,-4.744241,-1.124650,-3.998216,4.620189,-0.212459,0.559008,-0.020755,17.962618,188.495644,976.219503,1014.396156,0
0.079166,152.502371,-174.783627,3.385038,3.007218,-0.641585,5.082262,-3.818861,0.683819,-5.009619,3.798326,-0.216112,0.562470,-0.046895,30.426238,188.494838,976.597623,1014.979313,0
0.080208,166.952717,-129.516480,-72.128220,1.559538,-2.569386,5.141791,-1.930788,2.551100,-5.059979,2.062097,-0.168623,0.551430,-0.017021,35.888968,188.495754,977.253065,1014.848169,0
0.081249,187.369217,-46.206566,-126.282576,0.552948,-4.113757,4.661592,-0.042715,4.205188,-4.606736,0.147975,-0.146705,0.535360,0.001650,40.967158,188.495767,977.043111,1014.922058,0
0.082291,154.532679,24.804988,-164.507008,-0.216132,-4.720855,3.355928,1.778194,4.760226,-3.427465,-1.527770,-0.095563,0.533335,-0.035692,40.967158,188.495662,977.848946,1014.029760,0
0.083333,106.236311,93.871516,-176.596023,-0.453642,-4.887718,1.296233,3.729700,4.932986,-1.333316,-3.477471,-0.037115,0.554370,-0.046895,34.441288,188.571140,977.626465,1013.555163,0
0.084375,28.222593,143.064957,-181.335607,-0.544122,-4.145710,-0.576938,4.643886,4.238269,0.492246,-4.359817,-0.026156,0.558093,-0.028224,21.231208,188.495702,978.320695,1013.783501,0
0.085416,-49.473535,171.600053,-150.916099,0.032688,-2.860509,-2.462016,5.076725,2.992190,2.464691,-4.872146,-0.037115,0.561817,0.001650,0.228538,188.495759,979.668005,1013.302641,0
0.086458,-114.159816,176.468657,-86.334659,1.254168,-0.914956,-4.144695,4.643886,1.033015,4.076221,-4.470110,-0.062686,0.555676,-0.069301,-12.585691,188.495555,981.382017,1012.690240,0
0.087499,-152.145850,175.320971,-2.856439,2.837568,0.806929,-4.958255,3.669998,-0.786481,5.003690,-3.527280,-0.062686,0.550319,-0.013287,-26.383891,188.570982,982.965254,1011.482364,0
0.088541,-167.809843,129.014866,71.364205,4.172148,2.752481,-4.954286,1.711029,-2.565544,4.986904,-1.776820,-0.066339,0.545485,-0.031958,-31.088851,188.495645,984.043332,1010.336656,0
0.089583,-187.647876,47.613735,125.727841,5.269218,4.286201,-4.430433,-0.162119,-4.274768,4.529464,0.140860,-0.139399,0.551887,-0.017021,-35.239621,188.495797,985.601028,1009.071672,0
0.090624,-154.720597,-23.264929,163.829167,6.004368,4.907500,-3.164455,-1.945713,-4.833482,3.413144,1.791701,-0.143052,0.556787,-0.039427,-36.608131,188.496928,987.137287,1007.432661,0
0.091666,-106.129325,-94.095269,177.543182,6.298428,5.028209,-1.108729,-3.863637,-4.969485,1.289617,3.741401,-0.208806,0.551691,-0.024490,-31.948411,188.571165,988.572425,1006.562702,0
0.092708,-26.289464,-142.986688,182.098107,6.366288,4.183243,0.808097,-4.736778,-4.153468,-0.590501,4.559705,-0.197847,0.531441,0.001650,-16.736461,188.495738,990.237455,1005.624498,0
0.093750,49.920796,-170.953980,151.752463,5.800788,2.944196,2.641583,-5.109915,-2.907389,-2.470619,5.064920,-0.252642,0.555676,-0.028224,4.322758,188.495586,992.122752,1004.436580,0
0.094791,113.336717,-176.595763,89.116099,4.601928,0.952490,4.292514,-4.729315,-1.029081,-4.161887,4.637978,-0.205153,0.559008,-0.024490,18.256678,188.495691,995.252868,1003.927385,0
0.095833,152.094041,-174.711142,2.597159,2.984598,-0.762294,5.141791,-3.755428,0.794092,-5.018012,3.737843,-0.197847,0.562209,-0.017021,33.287668,188.570908,996.163120,1002.623060,0
0.096875,167.655952,-128.682897,-72.903788,1.582158,-2.654593,5.129885,-1.837504,2.602561,-5.076766,1.969593,-0.154011,0.549928,-0.031958,35.730628,188.495712,996.988510,1002.082934,0
0.097916,187.459957,-45.300498,-126.097917,0.552948,-4.167011,4.594126,0.054301,4.282378,-4.585753,0.062587,-0.117481,0.516677,-0.009553,43.082128,188.495678,998.227046,1001.400351,0
0.098958,154.657446,24.587532,-165.060985,-0.227442,-4.798961,3.324180,1.856553,4.833741,-3.414875,-1.606043,-0.055380,0.543330,-0.017021,43.387497,188.571035,999.913488,1001.461257,0
0.100000,106.406449,93.714465,-178.294887,-0.498882,-4.873517,1.268453,3.755820,4.955041,-1.278759,-3.527280,-0.073645,0.549013,-0.020755,36.330058,188.570944,1001.373527,1001.402254,0
0.101041,27.734866,143.149524,-180.904735,-0.498882,-4.135059,-0.620593,4.688662,4.208863,0.559393,-4.391837,-0.048074,0.560575,-0.020755,23.006878,188.495580,1002.032724,1000.754496,0
0.102083,-50.222140,171.382596,-150.916099,0.010068,-2.807255,-2.497733,5.050605,2.896621,2.527642,-4.875704,-0.000585,0.563776,0.001650,0.081508,188.495600,1002.848082,999.624477,0
0.103125,-113.978336,176.903570,-87.984281,1.220238,-0.890104,-4.168507,4.625229,1.036691,4.093008,-4.459436,-0.015197,0.551887,-0.028224,-11.839231,188.571082,1003.559791,999.405936,0
0.104166,-152.213905,175.224324,-3.250379,2.792328,0.881484,-5.005878,3.632685,-0.786481,4.991100,-3.545070,-0.029809,0.550907,-0.031958,-26.621401,188.571075,1003.502790,999.472828,0
0.105208,-167.968638,129.401455,72.275190,4.228698,2.787984,-4.934443,1.714761,-2.635383,5.054051,-1.723452,-0.095563,0.551169,-0.017021,-31.654351,188.495658,1005.045048,999.639944,0
0.106249,-187.942781,47.468764,125.986364,5.257908,4.318154,-4.438370,-0.214358,-4.285795,4.571431,0.144417,-0.161317,0.549928,-0.031958,-36.506341,188.571132,1005.371649,1000.262500,0
0.107291,-154.788652,-23.627356,165.084849,6.038298,4.935902,-3.188267,-1.971833,-4.903321,3.387964,1.802374,-0.154011,0.554827,-0.020755,-38.033191,188.571123,1006.267537,1000.843203,0
0.108333,-105.562200,-94.312725,178.601894,6.332358,5.010458,-1.069043,-3.863637,-4.987863,1.289617,3.780537,-0.216112,0.543264,-0.028224,-31.767451,188.570982,1006.878025,1001.330503,0
0.109374,-26.607054,-142.853798,181.445644,6.332358,4.176143,0.796192,-4.755435,-4.168171,-0.552731,4.570379,-0.223418,0.535033,-0.028224,-16.566811,188.495731,1006.576217,1001.643316,0
0.110416,49.478439,-171.207679,151.887879,5.755548,2.926445,2.697143,-5.128572,-2.933119,-2.495800,5.047130,-0.197847,0.558550,-0.039427,2.626258,188.570899,1006.795346,1001.667717,0
