1-Time,2-VGERA,3-VGERB,4-VGERC,5-VN,6-IGERAN,7-IGERBN,8-IGERCN,9-IGERAT,10-IGERBT,11-IGERCT,12-IN,13-IFD,14-IFAULT,15-VFAULT,16-Speed (rad/s),17-Active Power,18-Reactive Power,19-FAULT 
0.000000,-152.883112,176.239120,0.861364,2.905428,3.103959,-6.458380,2.785664,-3.025013,6.535483,-2.801480,-0.084604,0.601273,-0.054364,9.909898,188.495656,1660.173773,872.964560,0
0.001042,-185.402061,126.042964,68.988258,4.194768,5.319332,-5.831343,0.050570,-5.123866,5.964733,-0.175789,-0.102869,0.588143,-0.039427,5.498998,188.495645,1661.620070,872.479524,0
0.002083,-191.164052,43.651198,124.915341,5.235288,6.373765,-4.390747,-2.251686,-6.388324,4.546251,2.129696,-0.128440,0.589318,-0.013287,-1.151282,188.495694,1662.950321,870.673285,0
0.003125,-162.172620,-26.961686,173.505304,6.174018,6.796248,-2.299304,-4.512896,-6.708114,2.548625,4.271520,-0.216112,0.605062,-0.050629,-4.544281,188.495698,1665.214914,869.603676,0
0.004167,-108.964950,-94.614748,184.769508,6.411528,5.894477,0.411239,-6.035295,-5.954586,-0.133062,5.819183,-0.245336,0.613946,-0.035692,-7.971211,188.495807,1667.215300,868.430243,0
0.005208,-25.109844,-144.206859,192.155872,6.569868,4.325254,2.867792,-6.725598,-4.355634,-2.621700,6.488058,-0.230724,0.615906,-0.069301,-11.273731,188.495655,1669.608042,867.735072,0
0.006250,50.079591,-171.860048,156.011932,5.868648,2.003372,4.836210,-6.143505,-2.076669,-4.636113,6.004191,-0.227071,0.602122,-0.065566,-11.590411,188.495683,1670.329458,866.377990,0
0.007292,104.671046,-200.938784,72.459849,4.296558,-0.815549,6.479204,-4.859913,0.753658,-6.298003,4.766060,-0.256295,0.603755,-0.087972,-12.235081,188.495731,1672.238115,865.151423,0
0.008333,152.774591,-175.520562,-1.157576,2.928048,-2.970567,6.645884,-2.882287,2.896621,-6.549805,2.948001,-0.183235,0.597876,-0.043161,-5.856241,188.495617,1672.661928,864.410358,0
0.009375,185.372937,-125.795561,-68.816667,1.661328,-5.161089,6.050597,-0.188238,5.080016,-5.966465,0.318752,-0.150358,0.592323,-0.039427,-1.139972,188.420209,1673.973636,863.948851,0
0.010417,190.692570,-43.597090,-124.977652,0.564258,-6.208421,4.562378,2.147599,6.285662,-4.585753,-1.936923,-0.088257,0.602188,-0.073035,6.652618,188.495734,1674.512396,863.052414,0
0.011458,161.814564,27.088279,-173.579925,-0.340542,-6.584751,2.486808,4.378959,6.642210,-2.546160,-4.132114,-0.033462,0.610876,-0.076769,9.072958,188.495779,1676.620887,861.670639,0
0.012500,108.799717,94.934636,-184.573296,-0.578052,-5.771737,-0.223734,5.916283,5.881330,0.122937,-5.665546,0.006721,0.615253,-0.050629,13.054078,188.495725,1677.528636,861.475045,0
0.013542,24.502253,144.454261,-192.107387,-0.759012,-4.177662,-2.700131,6.587930,4.212539,2.640952,-6.305959,0.010374,0.615318,-0.035692,16.119088,188.495759,1677.623346,860.323375,0
0.014583,-50.743895,171.938318,-155.778788,-0.057792,-1.877082,-4.652674,6.039418,1.999738,4.621791,-5.900364,0.017680,0.592846,-0.046895,16.628038,188.495700,1677.780221,860.209403,0
0.015625,-105.119843,201.137863,-71.746591,1.548228,0.941839,-6.291699,4.722245,-0.845293,6.292075,-4.630213,-0.022503,0.601926,-0.050629,17.317948,188.494504,1678.121757,860.709340,0
0.016667,-153.030565,175.864612,1.403030,2.916738,3.125260,-6.478223,2.834172,-3.047067,6.585844,-2.815711,-0.073645,0.598660,-0.054364,10.249198,188.489656,1678.662486,861.283264,0
0.017708,-185.935159,125.982559,69.025190,4.206078,5.312232,-5.863092,0.050570,-5.175327,5.973126,-0.157999,-0.117481,0.595590,-0.031958,5.985328,188.570989,1679.552422,861.219185,0
0.018750,-191.243449,44.206920,125.100000,5.269218,6.370215,-4.410590,-2.285268,-6.392000,4.617595,2.115465,-0.150358,0.608981,-0.061832,-1.490582,188.495682,1679.932417,862.095872,0
0.019792,-162.161278,-26.804634,173.800758,6.162708,6.799798,-2.295335,-4.527821,-6.748548,2.557018,4.246615,-0.197847,0.622569,-0.076769,-5.064541,188.495609,1680.140535,862.627264,0
0.020833,-108.874210,-94.771800,184.831061,6.354978,5.901578,0.458862,-6.031563,-5.947234,-0.137258,5.804952,-0.241683,0.616755,-0.028224,-8.095621,188.495624,1679.934587,862.608787,0
0.021875,-24.100362,-144.267264,192.131251,6.581178,4.307503,2.919384,-6.680822,-4.307850,-2.621700,6.477385,-0.263601,0.597223,-0.073035,-11.352901,188.646413,1679.444261,862.347675,0
0.022917,50.703429,-171.908372,155.741099,5.834718,2.014023,4.871927,-6.113654,-2.021533,-4.657096,6.054001,-0.256295,0.580892,-0.028224,-11.907091,188.495740,1680.108623,862.341656,0
0.023958,104.931924,-201.204564,71.635038,4.296558,-0.804898,6.467298,-4.833794,0.742631,-6.285413,4.783850,-0.227071,0.606042,-0.050629,-12.088051,188.495613,1679.839624,862.995224,0
0.025000,152.978756,-175.399753,-1.169886,2.950668,-2.952816,6.665727,-2.863630,2.937054,-6.558198,2.944443,-0.172276,0.602710,-0.058098,-5.675281,188.495627,1680.321790,862.821694,0
0.026042,185.769925,-125.747238,-68.865909,1.650018,-5.214343,6.058534,-0.154656,5.135152,-5.983251,0.322310,-0.124787,0.596112,-0.017021,-0.913772,188.646478,1681.190185,863.038854,0
0.027083,190.862708,-43.899113,-125.199243,0.564258,-6.275877,4.506817,2.162525,6.285662,-4.623523,-1.936923,-0.055380,0.603363,-0.031958,6.211528,188.495618,1681.500374,863.490841,0
0.028125,161.927989,27.438625,-173.838448,-0.385782,-6.616703,2.482840,4.442392,6.649562,-2.508390,-4.128556,-0.018850,0.614926,-0.054364,8.891998,188.495573,1681.645468,863.313653,0
0.029167,108.062454,95.284982,-184.807198,-0.578052,-5.700731,-0.271357,5.949865,5.859275,0.139723,-5.683336,0.028639,0.617539,-0.043161,13.088008,188.495571,1681.630720,863.234782,0
0.030208,23.118468,144.562989,-192.156629,-0.725082,-4.149260,-2.727911,6.606587,4.227242,2.666132,-6.341537,-0.000585,0.598333,-0.061832,15.960748,188.570997,1681.971890,863.855119,0
0.031250,-51.435788,172.397392,-154.978599,-0.046482,-1.841579,-4.712203,6.035687,1.996062,4.688938,-5.911038,-0.011544,0.581610,-0.050629,16.684588,188.495607,1682.604518,864.188080,0
0.032292,-104.813595,201.439886,-71.204924,1.559538,0.998644,-6.307573,4.718513,-0.893078,6.325649,-4.580403,-0.018850,0.603037,-0.005818,17.657248,188.495626,1683.026396,863.279389,0
0.033333,-153.506950,175.176000,1.082955,2.905428,3.178514,-6.474254,2.740887,-3.083825,6.560663,-2.758785,-0.059033,0.602645,-0.058098,9.943828,188.495649,1682.969071,862.273346,0
0.034375,-186.184694,126.151692,68.988258,4.172148,5.365486,-5.859123,-0.016595,-5.230463,5.960536,-0.108190,-0.128440,0.595132,-0.058098,5.465068,188.646446,1683.878754,861.499288,0
0.035417,-190.812434,44.219001,125.457008,5.269218,6.409268,-4.339156,-2.344970,-6.399351,4.592414,2.158159,-0.208806,0.603429,-0.024490,-1.128662,188.495743,1684.110281,860.924884,0
0.036458,-162.501553,-27.517407,173.616099,6.162708,6.767846,-2.239775,-4.598717,-6.785305,2.464691,4.342677,-0.179582,0.612052,-0.065566,-4.702621,188.495562,1685.636451,859.791091,0
0.037500,-107.479083,-95.508735,184.904925,6.411528,5.851874,0.458862,-6.080071,-5.932531,-0.204405,5.808510,-0.245336,0.625117,-0.039427,-8.039071,188.495705,1685.494218,859.523253,0
0.038542,-22.841344,-144.351830,192.328220,6.547248,4.261349,2.927321,-6.710673,-4.296822,-2.680454,6.502290,-0.259948,0.617408,-0.039427,-11.217181,188.646500,1686.066453,859.499011,0
0.039583,51.418007,-171.992938,154.928599,5.857338,1.932367,4.911613,-6.113654,-2.010506,-4.657096,6.029096,-0.274560,0.591409,-0.050629,-11.590411,188.495508,1685.507106,859.582690,0
0.040625,104.795814,-201.349535,71.388826,4.307868,-0.829750,6.487141,-4.833794,0.812470,-6.302200,4.762503,-0.216112,0.604147,-0.050629,-12.269011,188.495754,1686.059036,858.719277,0
0.041667,153.455141,-174.819870,-0.800568,2.939358,-2.931514,6.645884,-2.837511,2.984839,-6.595969,2.919538,-0.201500,0.606499,-0.013287,-5.878861,188.495682,1686.846385,858.381156,0
0.042708,186.030802,-126.000937,-68.705871,1.650018,-5.171740,6.002974,-0.139730,5.131477,-5.966465,0.272500,-0.106522,0.591997,-0.050629,-1.117352,188.646487,1687.070435,857.628024,0
0.043750,190.386323,-43.874951,-125.420834,0.530328,-6.197770,4.494912,2.173719,6.285662,-4.560573,-1.944039,-0.073645,0.600881,-0.017021,6.641308,188.495593,1686.751268,856.867733,0
0.044792,161.905304,28.235965,-173.666099,-0.385782,-6.556349,2.447122,4.375227,6.627507,-2.550357,-4.124999,-0.015197,0.590298,-0.028224,9.163438,188.495635,1686.264517,857.493450,0
0.045833,106.962231,96.009836,-184.671781,-0.578052,-5.718483,-0.255483,5.901358,5.760030,0.160707,-5.651315,-0.040768,0.625574,-0.058098,13.065388,188.495680,1684.919112,856.777172,0
0.046875,22.006903,144.720041,-192.168940,-0.747702,-4.131508,-2.708068,6.602855,4.194160,2.632559,-6.277496,0.017680,0.619237,-0.017021,16.130398,188.721757,1683.545178,856.788647,0
0.047917,-51.934858,171.974561,-154.855493,-0.057792,-1.841579,-4.640768,6.028224,1.996062,4.630185,-5.846996,0.021333,0.612966,-0.039427,16.650658,188.495680,1682.063078,856.550900,0
0.048958,-105.278638,201.101620,-71.303409,1.548228,0.938289,-6.279793,4.752096,-0.830590,6.220731,-4.648002,-0.022503,0.606172,-0.073035,17.317948,188.495649,1680.634538,857.876398,0
0.050000,-153.688430,175.200162,0.972159,2.905428,3.029403,-6.446474,2.778201,-3.021337,6.543877,-2.783690,-0.073645,0.606499,-0.069301,10.237888,188.495734,1679.901495,858.504000,0
0.051042,-186.127981,126.042964,69.025190,4.172148,5.308681,-5.827375,0.054301,-5.167975,5.926963,-0.182904,-0.106522,0.593434,-0.065566,5.974018,188.721858,1678.539058,859.178642,0
0.052083,-190.846462,43.880735,125.407766,5.223978,6.313410,-4.327250,-2.285268,-6.325836,4.563038,2.047866,-0.150358,0.598203,-0.043161,-1.581062,188.571109,1676.587398,859.708768,0
0.053125,-161.843688,-28.302666,173.517614,6.185328,6.721692,-2.259618,-4.449463,-6.667681,2.523445,4.232383,-0.234377,0.603821,-0.020755,-5.098471,188.495709,1673.730321,860.455301,0
0.054167,-107.036725,-95.871162,184.769508,6.411528,5.851874,0.391396,-5.994250,-5.833286,-0.091095,5.737353,-0.263601,0.573836,-0.035692,-8.073001,188.495776,1671.367232,860.890572,0
0.055208,-22.172137,-144.545124,191.971213,6.615108,4.314603,2.816201,-6.617388,-4.289471,-2.604914,6.420459,-0.238030,0.581153,-0.039427,-11.307661,188.646498,1669.424382,861.304805,0
0.056250,51.304582,-171.847967,155.187122,5.846028,2.010473,4.772713,-6.121116,-2.061966,-4.594146,6.018422,-0.241683,0.606564,-0.024490,-11.895781,188.571015,1668.529964,861.904256,0
0.057292,105.294884,-200.781732,71.708902,4.296558,-0.769395,6.391895,-4.815137,0.691171,-6.222463,4.776734,-0.197847,0.605323,-0.031958,-12.088051,188.495604,1666.705442,863.167133,0
0.058333,153.557224,-175.037326,-0.726705,2.905428,-2.888911,6.598261,-2.900944,2.892945,-6.512035,2.962232,-0.172276,0.608720,-0.028224,-5.663971,188.495694,1665.032803,863.785340,0
0.059375,185.815295,-125.553943,-69.210606,1.593468,-5.100734,5.967256,-0.169581,5.080016,-5.903514,0.329426,-0.113828,0.595263,-0.080503,-0.857222,188.646400,1663.466983,864.154309,0
0.060417,190.465720,-42.980964,-125.531629,0.564258,-6.180019,4.534598,2.121480,6.212147,-4.543786,-1.894229,-0.106522,0.600946,-0.043161,6.313318,188.571102,1661.935938,864.519568,0
0.061458,161.213411,29.335327,-173.579925,-0.351852,-6.556349,2.486808,4.352839,6.583398,-2.525176,-4.082304,-0.037115,0.595590,-0.028224,8.948548,188.495638,1660.598403,864.547579,0
0.062500,106.304366,96.408506,-184.585607,-0.521502,-5.711382,-0.231672,5.878969,5.767381,0.097757,-5.587274,0.028639,0.595851,-0.058098,13.121938,188.495707,1659.231532,865.588505,0
0.063542,22.165698,144.913336,-191.762690,-0.747702,-4.170562,-2.664413,6.558079,4.227242,2.636756,-6.291727,0.010374,0.595394,-0.039427,15.960748,188.646438,1659.411687,866.018617,0
0.064583,-51.356390,172.397392,-154.707766,-0.035172,-1.901934,-4.652674,5.998373,1.999738,4.550448,-5.839881,0.006721,0.617931,-0.069301,16.616728,188.571056,1658.553421,866.176434,0
0.065625,-105.562200,200.860002,-71.660417,1.536918,0.920537,-6.224233,4.748364,-0.826914,6.300468,-4.619539,-0.022503,0.609308,-0.065566,17.600698,188.495611,1659.363461,865.997606,0
0.066667,-154.085417,174.886059,1.082955,2.882808,3.040054,-6.398851,2.770738,-3.010310,6.497713,-2.790806,-0.066339,0.606434,-0.020755,9.898588,188.495727,1658.697845,866.068238,0
0.067708,-185.969186,125.728860,69.579167,4.160838,5.248327,-5.799595,0.061764,-5.149596,5.910176,-0.168673,-0.117481,0.590102,-0.024490,5.385898,188.646514,1658.233923,866.011039,0
0.068750,-190.608269,42.575998,125.727841,5.246598,6.316960,-4.335187,-2.251686,-6.311133,4.550448,2.111907,-0.164970,0.598921,-0.046895,-1.298312,188.573250,1658.123940,865.729313,0
0.069792,-161.639523,-29.414109,173.234470,6.196638,6.735893,-2.251681,-4.464388,-6.630924,2.527642,4.257288,-0.205153,0.557179,-0.031958,-4.702621,188.495729,1657.708285,865.745454,0
0.070833,-106.424230,-96.306075,184.486364,6.388908,5.837673,0.371553,-5.997981,-5.862692,-0.116275,5.716006,-0.256295,0.594022,-0.061832,-8.016451,188.495707,1657.462875,866.034168,0
0.071875,-22.773289,-144.617610,191.761932,6.592488,4.321704,2.800326,-6.617388,-4.307850,-2.596520,6.420459,-0.248989,0.610549,-0.061832,-11.217181,188.646466,1657.507986,866.144672,0
0.072917,50.952964,-171.835886,154.928599,5.879958,2.035325,4.764775,-6.124848,-2.087697,-4.556376,5.989960,-0.227071,0.612248,-0.035692,-11.556481,188.571105,1656.691866,866.223974,0
0.073958,105.374281,-200.552195,72.078220,4.285248,-0.758744,6.352209,-4.796480,0.709549,-6.214069,4.773176,-0.227071,0.606172,-0.046895,-12.212461,188.495640,1656.725397,865.895475,0
0.075000,153.625279,-174.602413,-1.083712,2.894118,-2.871160,6.570481,-2.882287,2.881918,-6.478461,2.933769,-0.168623,0.603298,-0.039427,-5.878861,188.495631,1656.022083,865.576638,0
0.076042,185.463677,-125.251921,-69.641477,1.627398,-5.047480,5.979162,-0.203164,5.013853,-5.874137,0.382793,-0.150358,0.590037,-0.020755,-0.992942,188.721795,1654.565000,866.160675,0
0.077083,190.204843,-42.038654,-125.519319,0.530328,-6.109013,4.502849,2.102823,6.190093,-4.560573,-1.837303,-0.084604,0.588273,-0.050629,6.799648,188.495665,1653.521493,867.040228,0
0.078125,160.827766,29.697754,-173.407576,-0.363162,-6.485343,2.510620,4.270749,6.542965,-2.596520,-3.986243,-0.037115,0.602253,-0.035692,9.186058,188.495627,1651.710546,868.198983,0
0.079167,106.553901,96.686367,-184.302463,-0.578052,-5.711382,-0.124520,5.785685,5.785760,0.043199,-5.551695,0.010374,0.610092,-0.039427,13.110628,188.495698,1651.066643,868.990127,0
0.080208,23.084440,144.889174,-191.356440,-0.713772,-4.191863,-2.581073,6.453600,4.201512,2.523445,-6.231244,0.032292,0.612509,-0.043161,16.096468,188.721742,1649.335202,868.965680,0
0.081250,-51.027458,171.781266,-155.077084,-0.035172,-1.905484,-4.537585,5.987179,2.058550,4.508481,-5.818534,0.014027,0.616820,-0.017021,16.548868,188.495580,1648.501429,869.257541,0
0.082292,-105.879790,200.123067,-71.882008,1.536918,0.831780,-6.140893,4.737170,-0.735021,6.166174,-4.612424,-0.004238,0.604539,-0.039427,17.227468,188.495660,1646.024403,869.839687,0
0.083333,-153.631717,175.067272,1.772348,2.916738,2.969048,-6.339322,2.819246,-2.877983,6.472533,-2.837058,-0.073645,0.601861,-0.065566,10.170028,188.495550,1644.312604,871.166214,0
0.084375,-185.277294,124.955682,70.046970,4.206078,5.159570,-5.759909,0.188630,-5.028297,5.889193,-0.211367,-0.128440,0.586771,-0.080503,5.894848,188.721938,1642.031896,871.815704,0
0.085417,-190.676324,41.984034,125.789394,5.269218,6.214002,-4.386779,-2.136013,-6.252321,4.596611,1.955361,-0.139399,0.615187,-0.035692,-1.728092,188.571087,1640.072899,873.785240,0
0.086458,-161.004343,-29.112087,173.554546,6.185328,6.640036,-2.331052,-4.371104,-6.605193,2.619969,4.107859,-0.227071,0.615644,-0.058098,-5.075851,188.495749,1637.913372,875.465530,0
0.087500,-107.501768,-96.112780,184.350948,6.377598,5.834123,0.280276,-5.878577,-5.866368,0.043199,5.634175,-0.252642,0.613227,-0.039427,-8.140861,188.495667,1636.350233,876.905769,0
0.088542,-23.589949,-144.859228,191.257198,6.569868,4.332355,2.677300,-6.561418,-4.355634,-2.420259,6.377765,-0.245336,0.612444,-0.054364,-11.307661,188.646373,1634.350415,878.416939,0
0.089583,50.816854,-171.606349,155.371781,5.857338,2.081478,4.645718,-6.042758,-2.190618,-4.455655,5.982844,-0.278213,0.613619,-0.024490,-11.839231,188.571026,1632.963601,879.706842,0
0.090625,105.975434,-199.839422,71.942803,4.251318,-0.652236,6.280774,-4.833794,0.595601,-6.075579,4.783850,-0.212459,0.607479,-0.058098,-11.986261,188.495568,1630.290958,880.902041,0
0.091667,153.341716,-175.025245,-1.748485,2.905428,-2.736249,6.522858,-2.927064,2.749591,-6.423904,3.019158,-0.175929,0.595394,-0.005818,-5.618731,188.495689,1628.423059,882.582148,0
0.092708,184.839840,-124.370015,-70.220076,1.593468,-4.990676,5.955351,-0.285254,4.929310,-5.848957,0.418372,-0.110175,0.589841,-0.013287,-0.800672,188.646558,1626.551827,883.110817,0
0.093750,190.352295,-41.700388,-125.753220,0.564258,-6.030907,4.574283,1.979688,6.090847,-4.598343,-1.783935,-0.069992,0.603755,-0.039427,6.415108,188.571008,1625.068827,883.960610,0
0.094792,160.702999,29.142033,-173.739963,-0.363162,-6.488893,2.546337,4.233435,6.509883,-2.604914,-3.911528,-0.033462,0.600816,-0.050629,8.971168,188.495573,1624.032649,884.103355,0
0.095833,107.245794,96.517234,-184.253220,-0.578052,-5.693631,-0.037211,5.740909,5.767381,-0.015554,-5.444960,0.017680,0.607152,-0.046895,13.144558,188.495680,1622.513073,884.374804,0
0.096875,23.572168,145.130792,-191.036364,-0.702462,-4.156360,-2.529482,6.490914,4.249297,2.443708,-6.217013,0.006721,0.615383,-0.046895,15.960748,188.646482,1621.735887,885.397535,0
0.097917,-51.254308,172.022884,-154.830872,-0.023862,-1.930336,-4.470119,5.916283,2.080604,4.445530,-5.797187,0.014027,0.606172,-0.024490,16.571488,188.495680,1620.707784,885.868576,0
0.098958,-106.242750,199.941853,-71.426515,1.548228,0.799828,-6.125019,4.767021,-0.705615,6.140994,-4.619539,-0.026156,0.602514,-0.046895,17.487598,188.495698,1620.049015,886.431525,0
0.100000,-153.609032,174.861897,2.523295,2.905428,2.929995,-6.367102,2.856560,-2.826522,6.455746,-2.829942,-0.051727,0.595982,-0.024490,9.853348,188.495680,1619.131519,886.825128,0
0.101042,-184.868964,124.726145,70.477841,4.194768,5.113416,-5.771815,0.184899,-4.991539,5.884996,-0.296756,-0.102869,0.585595,-0.039427,5.419828,188.570948,1618.081002,887.920029,0
0.102083,-190.392762,42.177328,126.047917,5.269218,6.231754,-4.378842,-2.094968,-6.208212,4.588218,1.930457,-0.143052,0.581675,-0.035692,-1.275692,188.495723,1617.312309,887.931114,0
0.103125,-161.276563,-28.435556,173.529925,6.196638,6.668438,-2.378675,-4.315133,-6.586815,2.603182,4.104301,-0.212459,0.598464,-0.061832,-4.646071,188.495716,1617.329547,887.355452,0
0.104167,-107.637878,-96.245670,184.055493,6.388908,5.830572,0.292181,-5.833801,-5.859016,0.047396,5.616386,-0.208806,0.602383,-0.039427,-8.050381,188.495683,1616.989638,887.309120,0
0.105208,-23.964252,-144.955875,190.937122,6.547248,4.318154,2.661426,-6.546492,-4.355634,-2.441243,6.331513,-0.259948,0.613554,-0.024490,-11.217181,188.571100,1616.654466,886.867976,0
0.106250,51.395322,-171.497621,154.879357,5.879958,2.031775,4.606032,-6.039026,-2.197969,-4.413688,5.929476,-0.234377,0.614991,-0.050629,-11.511241,188.495569,1615.389767,886.899871,0
0.107292,106.190941,-199.827341,71.401137,4.262628,-0.648686,6.256963,-4.818868,0.566195,-6.100759,4.776734,-0.234377,0.600032,-0.002084,-12.099361,188.495671,1615.293641,887.366349,0
0.108333,152.944728,-174.554090,-2.597917,2.905428,-2.743350,6.467298,-2.968109,2.723860,-6.402921,3.004926,-0.179582,0.595720,-0.039427,-5.788381,188.495624,1614.396386,887.381585,0
0.109375,184.408825,-124.345853,-70.515531,1.593468,-4.916120,5.963288,-0.333762,4.877850,-5.899318,0.478855,-0.110175,0.586575,-0.035692,-1.083422,188.495687,1613.756899,888.648838,0
0.110417,190.284240,-42.570214,-125.937879,0.575568,-6.016706,4.578252,1.912523,6.090847,-4.610933,-1.741241,-0.110175,0.586575,-0.061832,6.799648,188.495750,1613.690673,888.984705,0
0.111458,160.759711,28.175560,-173.616857,-0.351852,-6.435639,2.645552,4.117763,6.432692,-2.630094,-3.851044,-0.018850,0.617604,-0.054364,9.118198,188.495665,1612.381732,888.658287,0
