1-Time,2-VGERA,3-VGERB,4-VGERC,5-VN,6-IGERAN,7-IGERBN,8-IGERCN,9-IGERAT,10-IGERBT,11-IGERCT,12-IN,13-IFD,14-IFAULT,15-VFAULT,16-Speed (rad/s),17-Active Power,18-Reactive Power,19-FAULT 
0.000000,155.947371,-165.077525,-11.320343,0.066564,-0.959349,4.922331,-3.473068,1.016185,-4.940915,3.204775,0.055498,0.572373,-0.040740,63.863686,188.344957,1013.239487,977.838624,0
0.001042,175.609241,-115.443112,-81.544854,-1.284552,-2.849127,4.869186,-1.547737,3.067054,-4.893463,1.239928,0.008098,0.564656,-0.011006,70.607422,188.420251,1014.397021,976.706076,0
0.002083,185.055979,-35.882414,-132.581875,-2.286629,-4.170138,4.329552,0.211350,4.327958,-4.319733,-0.500255,-0.042949,0.537854,-0.007290,76.585593,188.495676,1014.743176,975.888966,0
0.003125,151.280502,32.673210,-171.819623,-3.052262,-4.863668,3.049967,2.086422,5.015379,-2.952270,-2.373713,-0.072118,0.566585,-0.044457,66.498134,188.344822,1015.152384,975.021805,0
0.004167,99.798042,102.168434,-175.598793,-3.097299,-4.793948,1.018165,3.853242,4.947017,-0.972254,-4.011085,-0.083057,0.556663,0.000144,46.987457,188.344849,1014.770624,973.712285,0
0.005208,16.924390,146.176987,-176.182073,-3.176114,-3.971986,-0.846023,4.723120,4.130467,0.930115,-4.924967,-0.104934,0.560729,-0.003573,11.062143,188.420381,1014.684728,973.550524,0
0.006250,-60.694797,166.026054,-145.572012,-2.545593,-2.636298,-2.583480,4.966686,2.751827,2.659933,-5.023971,-0.086703,0.566998,-0.014723,-20.281032,188.495747,1014.291827,973.417749,0
0.007292,-119.092812,180.319732,-65.978563,-1.036847,-0.713494,-4.218733,4.502751,0.738937,4.212887,-4.639379,-0.079410,0.576713,-0.007290,-44.193714,188.344927,1013.546932,973.847066,0
0.008333,-155.794969,165.145179,11.172401,0.449381,0.989141,-4.925979,3.458897,-0.985312,4.859952,-3.493219,-0.057533,0.575129,-0.003573,-63.006374,188.344927,1012.928135,973.783676,0
0.009375,-175.445539,115.534256,81.506277,1.811756,2.886259,-4.913715,1.533566,-2.945031,4.864265,-1.471255,-0.028364,0.567205,-0.003573,-70.549452,188.420470,1011.920592,973.980579,0
0.010417,-185.174775,36.713493,133.041516,2.825093,4.276989,-4.365905,-0.298978,-4.255308,4.264653,0.230850,0.011744,0.570857,-0.011006,-73.600458,188.495589,1010.899361,974.715073,0
0.011458,-151.207199,-31.560250,172.510146,3.647022,4.871443,-3.119025,-2.081263,-4.919942,2.936014,2.108116,0.044560,0.551634,-0.044457,-66.079897,188.269297,1009.852273,975.709459,0
0.012500,-100.707833,-101.807156,175.888311,3.680800,4.845757,-1.091311,-3.855815,-4.908548,0.951684,3.775951,0.102898,0.558041,-0.029590,-44.767888,188.344914,1009.034274,976.846283,0
0.013542,-18.783374,-146.485174,175.827553,3.714578,4.012787,0.768789,-4.756622,-4.088201,-0.967940,4.689833,0.081021,0.578780,-0.007290,-11.465764,188.420300,1008.460363,977.802659,0
0.014583,59.389509,-166.369476,145.764317,3.095316,2.673429,2.575743,-4.965393,-2.652592,-2.663248,4.769798,0.070083,0.579194,0.011294,19.708537,188.495636,1008.343244,978.264447,0
0.015625,119.369513,-179.923218,67.203759,1.586570,0.772642,4.161939,-4.586513,-0.696671,-4.302478,4.366167,0.091960,0.581812,-0.014723,45.794075,188.269505,1008.005283,978.537947,0
0.016667,156.704466,-164.913095,-10.214541,0.100342,-0.963018,4.946860,-3.534926,0.993397,-4.927973,3.299971,0.040913,0.583121,0.011294,63.942494,188.344865,1007.852686,979.665160,0
0.017708,175.609241,-115.995128,-81.192456,-1.295811,-2.849127,4.930508,-1.613461,2.991096,-4.966797,1.281815,0.011744,0.567412,-0.007290,71.316697,188.420358,1007.472681,980.763918,0
0.018750,184.988179,-37.291815,-132.776302,-2.275370,-4.239858,4.390874,0.145626,4.324160,-4.311105,-0.431714,-0.021072,0.568652,-0.022156,74.615386,188.495752,1007.187886,981.021134,0
0.019792,151.133603,31.533944,-172.220628,-3.086040,-4.823304,3.074496,2.001367,4.992592,-2.952270,-2.316596,-0.035656,0.569686,-0.029590,64.876935,188.269521,1006.569772,980.909304,0
0.020833,100.396938,102.074474,-175.538035,-3.086040,-4.826973,1.042694,3.795250,5.000188,-0.989509,-4.033932,-0.093995,0.564725,-0.033307,45.309967,188.269384,1007.215122,981.541819,0
0.021875,17.760584,146.458868,-175.708158,-3.209892,-4.038037,-0.788789,4.696057,4.126669,0.899919,-4.921160,-0.086703,0.581054,-0.048173,11.456185,188.420318,1006.978808,981.572357,0
0.022917,-60.412299,165.979074,-145.268220,-2.590631,-2.684001,-2.542598,4.966686,2.717646,2.603854,-5.012548,-0.093995,0.589735,0.000144,-20.787657,188.420305,1006.313023,981.161159,0
0.023958,-119.443109,180.178792,-65.298069,-0.991810,-0.764867,-4.202380,4.502751,0.746533,4.260339,-4.605109,-0.075764,0.574371,-0.011006,-46.130146,188.269586,1006.403475,981.121678,0
0.025000,-155.885368,164.804573,12.168838,0.483158,0.985472,-4.905539,3.451164,-0.970120,4.859952,-3.504642,-0.075764,0.568170,-0.018440,-63.974590,188.269494,1005.944166,981.585792,0
0.026042,-175.422939,114.770830,82.150315,1.823015,2.889928,-4.844217,1.506503,-2.956425,4.890148,-1.467447,-0.032010,0.557766,0.003860,-70.358060,188.420245,1005.965246,981.998557,0
0.027083,-184.858377,35.210132,133.017213,2.813834,4.269650,-4.337288,-0.275782,-4.270500,4.195632,0.208003,-0.013779,0.518355,-0.011006,-74.478607,188.420222,1005.274311,981.661058,0
0.028125,-150.777802,-33.157572,172.084838,3.601985,4.827410,-3.094496,-2.092861,-4.919942,2.923073,2.081462,0.037267,0.542952,-0.014723,-65.483206,188.344701,1004.526253,981.902378,0
0.029167,-99.306642,-102.770247,175.572367,3.692059,4.834749,-1.074959,-3.863547,-4.870569,0.947370,3.768335,0.091960,0.549222,0.015011,-46.344054,188.269548,1003.676038,981.803155,0
0.030208,-16.523389,-146.684839,176.034131,3.703318,4.009117,0.776965,-4.760488,-4.084403,-0.946371,4.705065,0.066437,0.570168,0.007577,-11.803514,188.420345,1003.127076,982.471079,0
0.031250,60.971499,-166.028871,145.484828,3.084057,2.732141,2.530774,-4.980858,-2.694369,-2.637366,4.807876,0.113837,0.532273,-0.022156,20.530394,188.420336,1002.604167,983.671213,0
0.032292,119.629411,-180.287313,66.255929,1.575311,0.735948,4.174203,-4.590379,-0.776427,-4.298164,4.430900,0.048206,0.584568,-0.007290,46.402024,188.344943,1002.067884,985.382827,0
0.033333,156.308969,-164.689940,-10.943641,0.089083,-0.933663,4.975477,-3.619981,0.925035,-4.927973,3.353281,0.070083,0.584568,-0.014723,64.223952,188.269545,1001.110798,986.434698,0
0.034375,175.597941,-115.760228,-81.532702,-1.228255,-2.772068,4.946860,-1.690784,2.975904,-4.984052,1.384626,0.015390,0.570375,-0.029590,70.765039,188.344872,1000.456731,987.831316,0
0.035417,184.750881,-37.186110,-133.274520,-2.264111,-4.155460,4.431756,0.110831,4.327958,-4.423263,-0.347942,0.008098,0.542815,-0.022156,76.439234,188.420312,1000.007443,989.907709,0
0.036458,151.291802,31.122868,-172.475813,-3.097299,-4.878346,3.160346,1.970438,5.057156,-3.085997,-2.259478,-0.075764,0.579056,-0.003573,66.419326,188.420260,999.891739,992.105211,0
0.037500,101.086233,101.769104,-175.295001,-3.164855,-4.871007,1.128545,3.752722,5.007783,-1.123236,-3.965391,-0.086703,0.574440,-0.033307,47.235140,188.269597,998.504155,993.277559,0
0.038542,18.924476,146.576318,-175.319304,-3.153596,-4.093079,-0.739732,4.715388,4.187436,0.809330,-4.947814,-0.119518,0.584292,-0.014723,11.467443,188.344921,998.223706,994.503778,0
0.039583,-59.553505,166.084779,-145.304675,-2.568112,-2.757391,-2.509893,4.989883,2.880956,2.517579,-5.058242,-0.101287,0.568376,-0.018440,-20.326066,188.420220,997.288806,996.756002,0
0.040625,-119.703008,179.427111,-66.610449,-1.036847,-0.860273,-4.153322,4.576207,0.890854,4.182691,-4.681266,-0.086703,0.582156,-0.018440,-44.587755,188.420296,995.851221,998.532565,0
0.041667,-156.427765,164.863298,11.184553,0.449381,0.871718,-4.885098,3.567148,-0.867577,4.838383,-3.603646,-0.046595,0.581399,-0.033307,-63.062666,188.269603,994.828878,1000.088226,0
0.042708,-175.185641,115.569491,82.040950,1.811756,2.787183,-4.901451,1.595424,-2.872871,4.868579,-1.570259,-0.010133,0.566378,-0.018440,-70.391835,188.420350,993.446334,1000.970210,0
0.043750,-184.948776,36.173223,133.442522,2.847611,4.221947,-4.414963,-0.186861,-4.205936,4.294849,0.139462,0.004452,0.567274,-0.044457,-73.499133,188.420296,992.694152,1002.415021,0
0.044792,-150.766502,-32.394146,172.267113,3.647022,4.853096,-3.163994,-1.965279,-4.889559,2.966210,2.031960,0.062790,0.554872,-0.003573,-65.798439,188.420296,991.958474,1002.748335,0
0.045833,-99.747339,-102.793737,175.730339,3.692059,4.831079,-1.160810,-3.759162,-4.931336,1.003449,3.726449,0.084667,0.567619,0.029877,-44.159939,188.269485,991.650513,1003.917681,0
0.046875,-16.896287,-146.802289,175.560216,3.635763,4.075168,0.691114,-4.717961,-4.137573,-0.829900,4.663178,0.095606,0.552736,0.029877,-10.384965,188.420336,990.156021,1005.043359,0
0.047917,61.265297,-166.216791,145.266098,3.084057,2.743149,2.440835,-4.946062,-2.755136,-2.620111,4.773606,0.099252,0.553701,-0.018440,20.642978,188.420260,989.404138,1005.616284,0
0.048958,120.409106,-179.711808,65.769862,1.552792,0.831354,4.096529,-4.586513,-0.814406,-4.250713,4.411861,0.088314,0.575266,-0.011006,46.334474,188.420356,988.179560,1005.875616,0
0.050000,156.421968,-164.960075,-12.523359,0.066564,-0.845595,4.910067,-3.647044,0.921237,-4.897777,3.418014,0.066437,0.574577,-0.011006,63.953752,188.269550,987.589566,1006.902791,0
0.051042,175.032945,-114.832372,-82.857235,-1.284552,-2.768399,4.934596,-1.683052,2.922733,-4.915032,1.373203,0.026329,0.569686,-0.025873,71.226630,188.420282,986.034748,1006.506972,0
0.052083,184.807380,-35.248184,-133.323127,-2.275370,-4.181146,4.431756,0.064438,4.248202,-4.371498,-0.317479,-0.017425,0.561969,-0.014723,74.536578,188.420171,984.237019,1006.270510,0
0.053125,150.455607,33.154755,-172.172021,-3.086040,-4.837982,3.188963,1.904714,4.981198,-3.094625,-2.229015,-0.072118,0.567205,-0.033307,64.730577,188.420303,982.515548,1006.330671,0
0.054167,99.436444,102.978840,-175.234243,-3.108558,-4.834312,1.210307,3.760455,5.007783,-1.105981,-3.950160,-0.068472,0.530757,0.003860,45.355000,188.269514,981.829192,1006.621972,0
0.055208,17.026089,146.940413,-174.991209,-3.108558,-4.089409,-0.682498,4.692191,4.229213,0.766192,-4.879273,-0.090349,0.571339,-0.022156,11.929034,188.420263,980.173410,1007.486832,0
0.056250,-60.728697,166.049544,-145.037339,-2.511815,-2.764730,-2.469012,4.993749,2.877158,2.508952,-5.100128,-0.086703,0.575198,-0.011006,-20.427391,188.420240,980.134408,1008.127559,0
0.057292,-120.245404,179.380131,-66.258051,-0.991810,-0.889629,-4.153322,4.607136,0.879460,4.199946,-4.673650,-0.079410,0.582156,-0.033307,-46.366571,188.420329,980.235883,1008.179651,0
0.058333,-156.619864,164.416988,11.038733,0.438121,0.857040,-4.950508,3.582613,-0.806810,4.842697,-3.588415,-0.068472,0.581536,-0.018440,-64.323598,188.269523,979.566512,1008.364659,0
0.059375,-175.332540,115.358081,81.992344,1.845534,2.776174,-4.938244,1.614754,-2.834892,4.890148,-1.619761,-0.017425,0.568170,-0.007290,-70.436869,188.344907,979.000228,1009.181219,0
0.060417,-184.553279,37.112824,133.746313,2.825093,4.177913,-4.435404,-0.171396,-4.190744,4.303476,0.116615,0.026329,0.571408,-0.022156,-74.320991,188.420350,978.811610,1009.284123,0
0.061458,-150.732602,-31.266625,172.765331,3.624503,4.834749,-3.192611,-1.961413,-4.900952,3.030917,1.986265,0.044560,0.576989,-0.003573,-65.359364,188.420280,978.563148,1010.142820,0
0.062500,-100.606134,-102.582326,175.244272,3.714578,4.886121,-1.168986,-3.747563,-4.938931,1.033645,3.669332,0.088314,0.572166,-0.007290,-46.377829,188.269613,977.922164,1010.278062,0
0.063542,-18.082779,-147.084170,175.171362,3.669540,4.071498,0.691114,-4.683166,-4.148967,-0.890292,4.594637,0.073729,0.567963,-0.011006,-11.814772,188.344889,977.972756,1009.518377,0
0.064583,60.316103,-166.052361,145.156733,3.106575,2.761497,2.416306,-4.957661,-2.758934,-2.525208,4.705065,0.113837,0.592078,0.000144,20.879402,188.420296,976.452317,1008.937867,0
0.065625,120.431706,-179.617848,66.255929,1.552792,0.853371,4.043383,-4.594245,-0.825800,-4.224830,4.392822,0.070083,0.583052,-0.007290,46.773549,188.420287,976.108394,1008.710751,0
0.066667,156.760966,-164.314099,-11.867168,0.089083,-0.823578,4.836481,-3.639312,0.811098,-4.884836,3.368512,0.077375,0.578229,-0.003573,64.223952,188.269536,974.830612,1008.584036,0
0.067708,175.213744,-114.855862,-82.820780,-1.295811,-2.669323,4.852833,-1.706248,2.831583,-4.927973,1.418897,0.033621,0.565758,-0.011006,70.551131,188.344842,973.684675,1009.352553,0
0.068750,184.513582,-35.577044,-133.541857,-2.320407,-4.060053,4.407227,0.021910,4.179840,-4.401694,-0.294632,0.000805,0.539094,0.007577,76.337909,188.420262,972.816692,1009.617587,0
0.069792,150.512107,33.131265,-172.074808,-3.029743,-4.724228,3.188963,1.819659,4.901442,-3.129135,-2.137627,-0.057533,0.566861,0.015011,66.115351,188.495562,971.032061,1009.785569,0
0.070833,99.074847,103.260720,-175.137029,-3.131077,-4.834312,1.251189,3.590345,4.969804,-1.183628,-3.854964,-0.061180,0.588564,0.011294,46.514608,188.269490,969.078431,1010.216433,0
0.071875,16.291594,146.846453,-174.821086,-3.131077,-4.027028,-0.608912,4.595538,4.206425,0.701486,-4.852618,-0.119518,0.542815,-0.003573,10.600552,188.420377,967.914754,1010.339596,0
0.072917,-61.926489,165.802899,-144.356845,-2.545593,-2.808763,-2.383161,4.920292,2.911340,2.401108,-5.023971,-0.090349,0.552529,0.018727,-21.091632,188.420309,965.525233,1010.618749,0
0.073958,-120.878200,178.945565,-65.188704,-1.025588,-0.952010,-4.014326,4.583939,1.035174,4.074847,-4.700305,-0.108580,0.578367,0.000144,-45.139413,188.495649,962.639822,1012.363528,0
0.075000,-156.280866,164.581418,12.873635,0.449381,0.757964,-4.844217,3.594211,-0.708065,4.799559,-3.683611,-0.068472,0.575129,-0.007290,-63.163991,188.269557,960.827374,1014.111009,0
0.076042,-174.304247,114.700360,83.219663,1.856793,2.677099,-4.881010,1.707541,-2.739944,4.842697,-1.699725,-0.042949,0.564725,-0.007290,-70.267994,188.420345,958.514814,1014.774027,0
0.077083,-184.541979,35.386307,133.855678,2.847611,4.089846,-4.414963,-0.051546,-4.088201,4.363869,-0.024275,-0.017425,0.577885,-0.003573,-73.273966,188.420283,955.857403,1016.565103,0
0.078125,-150.122406,-32.887437,172.425084,3.613244,4.732003,-3.225316,-1.826098,-4.840186,3.069741,1.883454,0.022683,0.583741,0.000144,-65.573272,188.495638,953.570556,1017.267006,0
0.079167,-99.430941,-103.193067,175.438699,3.703318,4.853096,-1.316159,-3.689571,-4.916144,1.163058,3.600790,0.088314,0.551772,-0.022156,-44.385105,188.269566,951.494094,1018.565891,0
0.080208,-17.551683,-147.236855,174.478717,3.692059,4.104524,0.556206,-4.629040,-4.164159,-0.713428,4.579406,0.102898,0.574164,-0.014723,-11.206823,188.420168,949.371697,1019.912502,0
0.081250,60.609901,-166.334241,144.913700,3.095316,2.812869,2.326367,-4.996322,-2.831094,-2.434619,4.769798,0.113837,0.579400,0.011294,20.035028,188.420390,948.568028,1021.663396,0
0.082292,121.188801,-178.337641,67.191608,1.620348,1.007489,3.977973,-4.671567,-0.932141,-4.134241,4.480402,0.102898,0.583190,-0.003573,46.514608,188.495617,947.033808,1023.291361,0
0.083333,157.235562,-164.255374,-11.283888,0.122861,-0.728172,4.869186,-3.766894,0.738937,-4.858953,3.463708,0.081021,0.588013,-0.011006,64.212694,188.269546,946.148557,1024.665670,0
0.084375,174.784346,-115.443112,-82.845083,-1.295811,-2.632629,4.922331,-1.818366,2.793604,-4.962483,1.552172,0.048206,0.570443,-0.011006,71.170338,188.495727,945.410763,1026.332042,0
0.085417,184.377983,-37.021680,-133.942862,-2.275370,-4.093079,4.513518,-0.047680,4.172244,-4.401694,-0.172781,-0.013779,0.577471,0.026161,74.390219,188.420298,944.650477,1027.163706,0
0.086458,150.207009,31.733609,-172.597330,-3.074780,-4.731567,3.266638,1.780998,4.886250,-3.155017,-2.095741,-0.028364,0.575955,-0.003573,64.437860,188.495635,944.244556,1027.301140,0
0.087500,100.137040,102.967095,-175.088423,-3.142336,-4.904032,1.300246,3.632872,4.958411,-1.239707,-3.813078,-0.072118,0.581399,0.007577,45.096059,188.269671,943.691026,1027.559668,0
0.088542,17.591085,147.210548,-174.201351,-3.198633,-4.122434,-0.563942,4.595538,4.214021,0.658348,-4.791693,-0.053887,0.581674,0.000144,11.534993,188.495653,942.824263,1027.471165,0
0.089583,-61.033795,166.108269,-144.356845,-2.545593,-2.834450,-2.346368,4.943489,2.930329,2.409735,-5.016356,-0.083057,0.578987,-0.007290,-21.192957,188.420511,943.005389,1027.451055,0
0.090625,-121.126798,178.651940,-65.504647,-0.991810,-0.977696,-4.034767,4.541412,0.989599,4.036023,-4.704113,-0.115872,0.577333,-0.011006,-46.828162,188.495740,942.914736,1026.984399,0
0.091667,-156.698963,164.135108,12.970848,0.483158,0.724939,-4.807424,3.648337,-0.670086,4.743480,-3.675995,-0.042949,0.575335,0.018727,-64.323598,188.269530,941.850157,1026.887658,0
0.092708,-174.722344,114.195325,83.778639,1.879312,2.677099,-4.856481,1.750069,-2.736146,4.864265,-1.737804,-0.039302,0.564311,-0.011006,-70.110377,188.420327,941.619861,1027.794847,0
0.093750,-184.169082,34.763822,134.037954,2.847611,4.115532,-4.459932,-0.016751,-4.129978,4.312104,-0.024275,0.008098,0.527588,-0.014723,-74.140857,188.420305,941.691188,1027.441543,0
0.094792,-149.625210,-33.850527,172.279264,3.647022,4.761359,-3.249845,-1.872492,-4.828792,3.065427,1.906301,0.029975,0.553632,-0.022156,-65.032873,188.495680,941.491805,1027.378688,0
0.095833,-98.425248,-104.179648,175.037694,3.692059,4.831079,-1.279365,-3.677973,-4.862973,1.145803,3.612214,0.070083,0.577747,-0.003573,-45.769879,188.344876,940.949718,1026.938508,0
0.096875,-15.630695,-147.401285,174.600234,3.714578,4.159566,0.552118,-4.621308,-4.148967,-0.704801,4.594637,0.102898,0.479840,0.003860,-11.409473,188.420218,940.550401,1027.280486,0
0.097917,62.496988,-165.852696,144.342571,3.084057,2.900937,2.322279,-4.976991,-2.846285,-2.447560,4.765990,0.081021,0.537165,-0.022156,21.295960,188.420273,940.023594,1027.742977,0
0.098958,121.414799,-179.136302,65.563284,1.552792,0.992811,3.986149,-4.644505,-0.943535,-4.142869,4.446131,0.110191,0.579883,-0.022156,47.156332,188.495759,939.612895,1027.916054,0
0.100000,156.715766,-163.867789,-12.596269,0.077824,-0.750189,4.807864,-3.716634,0.754129,-4.863267,3.490363,0.066437,0.580710,0.007577,64.415344,188.344968,939.373659,1028.275890,0
0.101042,174.908646,-114.538747,-83.416211,-1.318330,-2.614281,4.922331,-1.849295,2.808796,-4.966797,1.567403,0.062790,0.573544,-0.018440,70.528614,188.420171,939.182380,1028.696775,0
0.102083,184.005086,-35.671004,-134.270957,-2.320407,-3.994003,4.497166,-0.086341,4.126669,-4.449146,-0.142318,0.000805,0.539507,-0.022156,76.146518,188.420372,938.076009,1029.570634,0
0.103125,150.173109,32.532270,-172.621633,-3.052262,-4.735236,3.262550,1.742336,4.897644,-3.215410,-2.065278,-0.057533,0.563622,0.000144,66.002767,188.495607,937.573733,1030.665830,0
0.104166,99.628543,103.413406,-174.784631,-3.119818,-4.859999,1.357480,3.590345,5.007783,-1.231080,-3.763576,-0.035656,0.574233,-0.014723,46.897391,188.420330,937.062970,1031.168659,0
0.105208,17.568485,147.457193,-173.909711,-3.097299,-4.148121,-0.527149,4.572341,4.274788,0.623838,-4.784077,-0.123164,0.578229,-0.007290,11.377376,188.495671,936.657177,1032.114560,0
0.106250,-60.785197,165.943839,-144.150267,-2.545593,-2.933525,-2.370897,4.947355,2.972106,2.353656,-5.043011,-0.108580,0.583879,-0.022156,-20.663815,188.420291,936.064447,1032.847620,0
0.107292,-121.318897,178.299590,-66.197293,-1.025588,-1.036408,-4.010238,4.630333,1.050366,4.053278,-4.707920,-0.112226,0.582983,-0.018440,-45.229480,188.495732,935.928409,1033.379370,0
0.108333,-157.309159,163.712287,11.950108,0.471899,0.691914,-4.848305,3.675400,-0.632106,4.756421,-3.695035,-0.068472,0.586635,-0.044457,-63.456707,188.420379,935.783812,1033.817143,0
0.109375,-174.925743,114.947005,83.316876,1.856793,2.629396,-4.889186,1.777132,-2.720955,4.885834,-1.730188,-0.053887,0.570237,-0.011006,-70.335544,188.495694,936.106950,1033.844095,0
0.110416,-184.101282,36.114498,134.268835,2.892649,4.045812,-4.472197,-0.024483,-4.095796,4.355241,0.009996,0.022683,0.575266,-0.033307,-73.161383,188.495703,936.478018,1033.785174,0
