1-Time,2-VGERA,3-VGERB,4-VGERC,5-VN,6-IGERAN,7-IGERBN,8-IGERCN,9-IGERAT,10-IGERBT,11-IGERCT,12-IN,13-IFD,14-IFAULT,15-VFAULT,16-Speed (rad/s),17-Active Power,18-Reactive Power,19-FAULT 
0.000000,165.168110,-142.480126,-4.515407,0.212935,-6.456275,2.696481,4.061210,6.530884,-2.715367,-3.883168,-0.006994,0.319372,-0.078573,-311.522632,188.495513,1474.207110,-872.144014,0
0.001042,202.457864,-81.406073,-57.703274,-0.789143,-5.825126,0.134007,5.673594,6.004969,-0.238060,-5.631836,0.000299,0.322679,-0.030256,-277.691367,188.269293,1474.965784,-872.041292,0
0.002083,175.405842,-27.320302,-136.640533,-2.320407,-4.522463,-2.122740,6.457076,4.699249,2.010962,-6.373695,0.058637,0.338044,-0.074856,-197.959912,188.344509,1476.178384,-872.063672,0
0.003129,128.985749,22.090956,-190.205102,-3.333744,-2.570303,-3.924920,6.131571,2.925646,3.900649,-6.229865,0.058637,0.345209,-0.071140,-100.744278,188.420075,1476.729805,-871.958028,0
0.004168,67.796653,80.698556,-198.334571,-3.513893,0.167123,-5.759281,5.151273,0.241666,5.646601,-5.139786,0.003945,0.350239,-0.041406,21.307219,188.495416,1477.863630,-872.319712,0
0.005208,13.703911,151.403517,-170.956854,-2.939669,2.548611,-6.354644,3.395061,-1.999820,6.416003,-3.455464,-0.050748,0.293328,-0.048839,140.183868,188.269283,1478.681526,-872.049342,0
0.006250,-33.495877,193.309713,-105.374282,-1.734924,4.687914,-5.767327,0.760745,-3.940265,5.790335,-0.847602,-0.061686,0.302905,-0.037689,232.378289,188.420037,1479.366303,-872.198709,0
0.007292,-104.651507,190.467420,-47.495870,-0.620253,6.236431,-4.600737,-1.729745,-5.601431,4.775738,1.680774,-0.141902,0.317649,-0.063706,294.535499,188.420052,1480.345646,-872.340372,0
0.008333,-165.840603,142.453819,3.832791,0.381825,6.614387,-2.617535,-3.845525,-5.898845,2.788820,3.842006,-0.189302,0.320888,-0.041406,310.094504,188.495421,1481.149400,-873.001281,0
0.009375,-202.395861,82.331112,58.223674,1.395162,5.997916,-0.063106,-5.473048,-5.423708,0.315740,5.575534,-0.214826,0.327020,-0.037689,278.582453,188.269254,1482.390007,-873.522449,0
0.010417,-175.513339,28.597691,137.719910,2.971464,4.640211,2.229845,-6.252745,-4.063583,-1.954420,6.336318,-0.236703,0.336046,-0.056273,199.571531,188.344621,1483.548648,-874.394471,0
0.011458,-130.042439,-21.060211,190.251587,3.917245,2.688051,4.052139,-5.847757,-2.333504,-3.818741,6.139498,-0.214826,0.328811,-0.059989,102.828747,188.419999,1483.977430,-874.730629,0
0.012500,-68.649945,-80.677883,198.490420,4.097394,-0.111757,5.874432,-4.871243,0.390373,-5.636560,5.030495,-0.203887,0.337837,-0.048839,-20.461166,188.495530,1485.127511,-875.290984,0
0.013542,-14.048706,-151.500293,170.808912,3.635763,-2.452880,6.449681,-3.111247,2.642740,-6.363688,3.353742,-0.141902,0.331981,-0.030256,-139.844440,188.269351,1484.652127,-875.494707,0
0.014583,33.716079,-193.805820,105.238492,2.340943,-4.581175,5.886500,-0.507210,4.633963,-5.712655,0.757236,-0.130964,0.321921,-0.063706,-232.725618,188.269227,1485.220826,-876.129687,0
0.015625,104.781309,-190.446747,46.886164,1.260050,-6.126023,4.667615,1.960570,6.255232,-4.660011,-1.793851,-0.079917,0.312137,-0.063706,-294.184812,188.419961,1484.991765,-876.380240,0
0.016667,165.744406,-141.963345,-4.588317,0.212935,-6.511317,2.756822,4.076350,6.559900,-2.715367,-3.932373,-0.025225,0.320750,-0.037689,-312.175615,188.495461,1485.470644,-876.900474,0
0.017708,202.299665,-80.889293,-57.593909,-0.822920,-5.913193,0.162166,5.684949,6.019477,-0.216923,-5.616696,0.025822,0.326744,-0.078573,-277.353617,188.344560,1485.316189,-876.753481,0
0.018750,175.405842,-27.238087,-136.822809,-2.331667,-4.566497,-2.118718,6.426797,4.710130,2.027872,-6.434255,0.040407,0.321577,-0.052556,-198.995677,188.344581,1486.006741,-877.331906,0
0.019792,129.087448,21.398000,-190.083586,-3.311226,-2.654701,-3.920897,6.131571,2.940154,3.866829,-6.248790,-0.010640,0.362641,-0.056273,-102.601902,188.420061,1486.058685,-877.151635,0
0.020833,68.587648,80.557616,-198.456087,-3.513893,0.196479,-5.759281,5.136133,0.288817,5.676193,-5.136001,-0.006994,0.319096,-0.037689,19.899928,188.495562,1486.441242,-877.322237,0
0.021875,14.969503,151.567947,-170.896096,-2.995965,2.537603,-6.318440,3.326932,-2.039717,6.424458,-3.447894,-0.017932,0.317994,-0.007956,139.542144,188.344692,1486.264823,-878.297674,0
0.022917,-33.269879,193.356693,-105.665922,-1.746183,4.695253,-5.743190,0.753175,-4.009178,5.832610,-0.836247,-0.079917,0.324333,-0.056273,232.502130,188.344659,1486.844314,-879.422634,0
0.023958,-105.126104,190.420440,-47.580932,-0.654031,6.232762,-4.604760,-1.733530,-5.619566,4.750374,1.695914,-0.127317,0.316616,-0.078573,294.546757,188.420007,1486.786046,-879.751414,0
0.025000,-165.840603,142.277644,4.270252,0.359306,6.632734,-2.585353,-3.860665,-5.967758,2.822640,3.891211,-0.171072,0.320681,-0.030256,309.621654,188.495486,1487.904754,-880.276392,0
0.026042,-202.565360,81.743862,58.126460,1.338865,5.986907,-0.010811,-5.476833,-5.409200,0.298830,5.632309,-0.189302,0.325917,-0.097156,278.120862,188.269134,1487.936209,-880.830579,0
0.027083,-175.468139,27.470170,137.391815,2.915167,4.643880,2.237891,-6.290595,-4.070837,-2.009377,6.328748,-0.229410,0.335288,-0.074856,198.479473,188.344581,1487.824405,-880.944203,0
0.028125,-129.104545,-21.412562,190.628289,3.951023,2.666034,4.003866,-5.874252,-2.355266,-3.852561,6.154638,-0.225764,0.351893,-0.030256,101.916823,188.420039,1488.349026,-880.815673,0
0.029167,-67.712051,-80.525197,198.660544,4.097394,-0.122765,5.894545,-4.878813,0.404881,-5.611196,5.056990,-0.222118,0.323919,-0.033973,-20.934015,188.495407,1488.420288,-880.405557,0
0.030208,-13.664508,-151.782174,170.869670,3.579466,-2.489575,6.461749,-3.103677,2.697145,-6.397508,3.410517,-0.163779,0.296359,-0.059989,-140.182190,188.344659,1489.452682,-880.816992,0
0.031250,33.761278,-193.876290,104.946852,2.363462,-4.632547,5.914659,-0.492070,4.681114,-5.780295,0.806441,-0.068979,0.328053,-0.056273,-232.736876,188.344610,1490.760498,-880.927353,0
0.032292,104.973408,-190.446747,47.007681,1.248791,-6.181065,4.691751,1.945430,6.291502,-4.693831,-1.782496,-0.061686,0.316202,-0.059989,-294.770245,188.420157,1491.496626,-881.062911,0
0.033333,166.049504,-142.022070,-3.907824,0.303010,-6.592046,2.756822,4.099060,6.625186,-2.757642,-3.936158,-0.014286,0.326055,-0.041406,-313.763039,188.495470,1492.512640,-881.426531,0
0.034375,202.322264,-82.028559,-57.800487,-0.766624,-5.927871,0.158143,5.734153,6.081136,-0.238060,-5.665901,-0.006994,0.330671,-0.033973,-278.524483,188.344654,1493.700865,-882.213469,0
0.035417,175.451042,-28.647488,-137.867852,-2.320407,-4.581175,-2.154922,6.536560,4.739146,2.040555,-6.475890,0.033114,0.337079,-0.063706,-199.468527,188.344784,1494.605389,-883.055274,0
0.036458,129.934943,21.022160,-190.241557,-3.311226,-2.651032,-3.985261,6.180776,2.990932,3.926014,-6.328275,0.044053,0.332118,-0.041406,-102.399252,188.419963,1496.147106,-884.079063,0
0.037500,69.186544,80.921711,-198.528997,-3.480115,0.222165,-5.859849,5.200477,0.223531,5.718468,-5.185206,-0.003348,0.340731,-0.045123,20.913177,188.495450,1496.789970,-885.287582,0
0.038542,14.935603,151.356537,-170.762428,-2.995965,2.607323,-6.419008,3.395061,-2.101376,6.487870,-3.508454,-0.021578,0.335081,-0.056273,139.722277,188.344554,1497.847891,-886.019943,0
0.039583,-33.292479,194.401999,-104.572272,-1.734924,4.764973,-5.831690,0.730465,-4.088972,5.904477,-0.840032,-0.087210,0.329707,-0.052556,233.571671,188.269237,1499.271860,-886.696653,0
0.040625,-104.708007,190.068090,-47.070561,-0.631512,6.350185,-4.548442,-1.797873,-5.666717,4.771511,1.813249,-0.101794,0.312689,-0.059989,293.747416,188.420037,1499.197904,-888.126256,0
0.041667,-166.936695,141.326298,3.844943,0.336788,6.750158,-2.637649,-3.928793,-6.036671,2.805730,3.940416,-0.185656,0.316409,-0.041406,310.004437,188.495410,1499.928500,-888.970424,0
0.042708,-202.248962,80.816006,57.944185,1.383902,6.049288,-0.026902,-5.537392,-5.445470,0.239646,5.685299,-0.200241,0.329982,-0.041406,276.814896,188.344670,1500.033432,-889.744064,0
0.043750,-175.072642,27.141310,138.133067,2.982723,4.713600,2.318345,-6.351154,-4.147004,-2.009377,6.449868,-0.229410,0.334116,-0.059989,198.355632,188.269225,1502.144335,-890.153015,0
0.044792,-128.697748,-21.588737,190.178677,3.962282,2.699060,4.056161,-5.919671,-2.377028,-3.903291,6.234123,-0.233057,0.359747,-0.045123,101.995631,188.420061,1503.125910,-890.609947,0
0.045833,-67.361753,-81.053723,198.940032,4.164950,-0.078731,5.987068,-4.931802,0.448405,-5.721110,5.155400,-0.207533,0.278032,-0.041406,-20.607524,188.495503,1505.002551,-891.846656,0
0.046875,-14.060006,-151.394588,170.638789,3.613244,-2.537278,6.542204,-3.080967,2.704399,-6.469375,3.433227,-0.152841,0.325642,-0.078573,-138.707349,188.420106,1505.646408,-892.335749,0
0.047917,33.422281,-195.050791,105.141278,2.385980,-4.691259,5.983045,-0.507210,4.717384,-5.864845,0.776161,-0.112733,0.325780,-0.063706,-233.682576,188.269203,1506.820736,-893.503297,0
0.048958,105.041207,-189.742046,48.417275,1.260050,-6.232437,4.707842,2.024914,6.342280,-4.774153,-1.835486,-0.061686,0.316891,-0.082290,-293.768254,188.419961,1507.541620,-894.717522,0
0.050000,167.563694,-141.834150,-3.057206,0.269232,-6.643418,2.764867,4.197468,6.672337,-2.804145,-4.004288,0.003945,0.325091,-0.022822,-315.564371,188.495354,1508.853576,-895.676713,0
0.051042,202.084966,-82.169499,-57.691122,-0.834180,-5.935210,0.134007,5.779572,6.088390,-0.254970,-5.722676,0.011237,0.330120,-0.082290,-277.454942,188.495432,1509.207437,-896.163316,0
0.052083,175.496242,-28.318628,-138.037976,-2.342926,-4.603191,-2.227331,6.619828,4.771789,2.082830,-6.544020,0.058637,0.334874,-0.086006,-198.939386,188.269194,1510.185098,-896.928848,0
0.053125,129.121348,21.104375,-190.047131,-3.345004,-2.595990,-4.009397,6.199700,2.958289,3.942924,-6.332060,0.036760,0.353408,-0.052556,-101.374745,188.420034,1509.798447,-897.023188,0
0.054167,67.830553,80.851241,-199.051519,-3.581449,0.244182,-5.863872,5.208047,0.230785,5.760743,-5.211701,0.011237,0.336735,-0.056273,21.870135,188.495398,1510.552628,-896.932390,0
0.055208,14.088108,151.321302,-170.276361,-2.939669,2.636679,-6.475326,3.391276,-2.170289,6.538600,-3.466819,-0.028871,0.345347,-0.067423,140.127577,188.495421,1510.534449,-897.755826,0
0.056250,-33.134280,195.282874,-103.660896,-1.701146,4.786990,-5.863872,0.734250,-4.088972,5.938297,-0.847602,-0.090856,0.317374,-0.071140,234.202137,188.269169,1511.203565,-897.550391,0
0.057292,-104.775806,189.797955,-46.851831,-0.620253,6.361193,-4.588669,-1.794089,-5.739257,4.805331,1.786754,-0.138256,0.316202,-0.045123,293.634833,188.419965,1512.172592,-897.648809,0
0.058333,-167.219194,140.891733,3.747730,0.370565,6.761166,-2.641672,-3.932578,-6.065687,2.822640,3.959341,-0.211179,0.322403,-0.041406,310.522320,188.495577,1512.647595,-897.793070,0
0.059375,-202.102063,80.980436,58.029247,1.428940,6.067636,-0.026902,-5.571457,-5.496248,0.311513,5.685299,-0.211179,0.325504,-0.037689,277.951987,188.495445,1513.651132,-897.197575,0
0.060417,-175.253440,27.963461,138.619134,2.993982,4.724609,2.306277,-6.404143,-4.179647,-2.068562,6.476363,-0.240349,0.351204,-0.052556,200.021864,188.269274,1514.249308,-898.279406,0
0.061458,-129.341844,-20.778331,190.482469,3.973542,2.750432,4.072252,-6.002939,-2.398790,-3.907519,6.241693,-0.214826,0.339766,-0.015389,103.245305,188.420130,1514.539225,-898.707791,0
0.062500,-68.842044,-81.112448,199.049397,4.119912,-0.122765,6.043386,-5.018856,0.372238,-5.754930,5.159185,-0.229410,0.336321,-0.033973,-20.539974,188.495443,1515.255297,-898.865159,0
0.063542,-15.212598,-151.711704,170.444362,3.635763,-2.529939,6.578408,-3.137741,2.729788,-6.477830,3.421872,-0.189302,0.334874,-0.071140,-138.977549,188.495566,1515.100098,-899.611198,0
0.064583,33.286681,-195.461866,104.412178,2.318424,-4.742631,5.983045,-0.476930,4.768162,-5.847935,0.776161,-0.145548,0.328398,-0.048839,-234.290525,188.269270,1515.160890,-899.918196,0
0.065625,105.278506,-189.565871,47.639568,1.271309,-6.247115,4.736001,2.051408,6.407566,-4.757243,-1.899831,-0.032517,0.317856,-0.074856,-293.610638,188.420137,1515.321053,-900.842416,0
0.066667,168.026991,-140.965019,-3.190875,0.235454,-6.709469,2.760845,4.246672,6.733996,-2.791462,-4.061063,-0.003348,0.321990,-0.078573,-315.147813,188.495470,1515.928473,-901.555083,0
0.067708,202.107566,-80.959763,-57.569606,-0.789143,-5.960896,0.138030,5.893120,6.146422,-0.191558,-5.794591,0.018530,0.325297,-0.082290,-276.385401,188.495374,1516.489009,-902.512323,0
0.068750,175.066845,-27.426007,-138.572649,-2.365445,-4.669242,-2.255490,6.684172,4.804432,2.150469,-6.631074,0.051345,0.333083,-0.059989,-198.117528,188.344652,1517.664963,-903.337934,0
0.069792,128.567652,21.444980,-190.132192,-3.299967,-2.640023,-4.049624,6.264044,2.987305,3.997881,-6.388835,0.018530,0.333772,-0.033973,-100.766795,188.495468,1518.702121,-903.652931,0
0.070833,67.129958,81.426747,-199.173036,-3.570190,0.225835,-5.940304,5.329165,0.180007,5.904477,-5.344176,-0.003348,0.346312,-0.056273,22.399276,188.419990,1521.118153,-905.063168,0
0.071875,14.122008,151.180362,-170.142692,-2.984706,2.666034,-6.563826,3.429126,-2.144900,6.606240,-3.531164,-0.006994,0.311586,-0.059989,139.373269,188.495381,1522.363119,-904.838278,0
0.072917,-32.964781,196.304690,-103.527228,-1.746183,4.904413,-5.960418,0.772099,-4.172393,5.989027,-0.836247,-0.076271,0.312826,-0.067423,234.967703,188.269279,1523.445651,-906.078475,0
0.073958,-104.821006,189.046274,-47.994088,-0.620253,6.463939,-4.649010,-1.831938,-5.815424,4.898336,1.786754,-0.160133,0.319234,-0.056273,293.071917,188.495322,1524.694240,-906.788181,0
0.075000,-169.174081,140.692068,2.423197,0.325528,6.893267,-2.685921,-4.049911,-6.170870,2.873370,4.065321,-0.141902,0.321714,-0.033973,312.030935,188.495577,1526.715493,-908.620032,0
0.076042,-201.830865,81.426747,57.932034,1.350125,6.111669,0.057575,-5.666080,-5.543399,0.243873,5.783709,-0.203887,0.325642,-0.033973,276.859929,188.495392,1527.201875,-910.489979,0
0.077083,-175.321240,28.773866,139.639874,2.993982,4.757634,2.443050,-6.529046,-4.201409,-2.136202,6.635333,-0.254934,0.324539,-0.063706,199.796697,188.269218,1529.009746,-912.664761,0
0.078125,-129.183645,-20.790076,190.117918,3.951023,2.728415,4.217070,-6.033219,-2.391536,-3.945566,6.321178,-0.233057,0.350584,-0.007956,101.950598,188.495452,1529.737577,-913.338070,0
0.079167,-68.039749,-81.605738,199.693436,4.108653,-0.177807,6.103727,-5.075630,0.430270,-5.843707,5.246240,-0.225764,0.339284,-0.052556,-21.992298,188.420093,1531.389468,-914.446796,0
0.080208,-14.613702,-151.218413,170.006902,3.658281,-2.584981,6.598522,-3.107462,2.802328,-6.553925,3.414302,-0.185656,0.330465,-0.045123,-138.887482,188.495638,1531.752800,-915.410683,0
0.081250,32.981584,-197.082678,103.148404,2.318424,-4.827029,6.083613,-0.473145,4.862464,-5.936712,0.700461,-0.112733,0.300424,-0.045123,-235.157416,188.344746,1532.927346,-917.064107,0
0.082292,104.611810,-188.908151,47.408686,1.203754,-6.349860,4.736001,2.089258,6.476479,-4.799518,-1.865766,-0.094502,0.315445,-0.037689,-292.405997,188.503315,1533.603484,-917.030821,0
0.083333,169.315183,-140.142869,-2.838476,0.269232,-6.779189,2.805095,4.273167,6.831925,-2.753415,-4.136763,-0.010640,0.321439,-0.067423,-316.341195,188.420287,1534.572366,-918.486330,0
0.084375,201.587769,-80.501707,-57.338724,-0.777883,-5.982913,0.097802,5.851486,6.171811,-0.170421,-5.817301,0.044053,0.328604,-0.063706,-275.901293,188.495855,1534.554311,-918.731515,0
0.085417,175.089444,-27.672652,-139.034413,-2.297889,-4.687589,-2.267558,6.763656,4.768162,2.175834,-6.665139,0.033114,0.352099,-0.063706,-199.457269,188.344977,1534.568205,-919.473240,0
0.086458,128.352953,20.939945,-190.059282,-3.288707,-2.599659,-4.069738,6.298109,2.990932,4.069748,-6.392620,0.033114,0.308623,-0.048839,-102.095277,188.495694,1534.602702,-920.317552,0
0.087500,67.796653,81.461982,-199.659103,-3.525153,0.251521,-5.988577,5.325380,0.187261,5.883340,-5.306326,0.011237,0.345140,-0.056273,21.678743,188.495788,1534.241104,-920.462096,0
0.088542,15.545799,151.250832,-170.033327,-2.962187,2.706399,-6.535667,3.372352,-2.202932,6.648515,-3.523594,-0.039809,0.333290,-0.071140,138.472603,188.495671,1534.281188,-921.912131,0
0.089583,-32.535384,196.621806,-103.551531,-1.757442,4.933769,-5.952372,0.726680,-4.226798,5.989027,-0.794612,-0.098148,0.325159,-0.067423,235.023995,188.344925,1534.140512,-923.040064,0
0.090625,-105.103504,188.834864,-48.139908,-0.665290,6.452930,-4.636942,-1.896282,-5.782781,4.864516,1.854884,-0.112733,0.317649,-0.067423,292.790459,188.495749,1533.297560,-923.538701,0
0.091667,-169.411379,140.468912,2.338136,0.291750,6.896936,-2.657762,-4.076406,-6.196259,2.831095,4.088031,-0.211179,0.322541,-0.052556,311.614377,188.420247,1533.208624,-924.149638,0
0.092708,-201.808265,81.074396,57.786214,1.383902,6.133686,0.033439,-5.650940,-5.572415,0.235418,5.798849,-0.218472,0.326193,-0.067423,276.443371,188.495794,1533.491844,-924.302881,0
0.093755,-174.891843,27.235270,140.283913,3.005242,4.746625,2.443050,-6.574465,-4.190528,-2.186932,6.654258,-0.207533,0.337148,-0.071140,198.085432,188.344892,1533.778297,-924.306347,0
0.094792,-128.211851,-21.024976,190.385255,3.984801,2.695390,4.184888,-6.040789,-2.380655,-3.962476,6.324963,-0.222118,0.350170,-0.045123,101.241324,188.495644,1533.783928,-924.181049,0
0.095833,-66.887157,-81.417818,199.839256,4.108653,-0.181477,6.111772,-5.079415,0.506437,-5.852162,5.215960,-0.222118,0.337837,-0.052556,-22.532697,188.495352,1533.064784,-924.648846,0
0.096875,-14.319904,-151.429823,169.836778,3.624503,-2.654701,6.662885,-3.130172,2.853106,-6.587745,3.444582,-0.174718,0.312482,-0.019106,-138.988807,188.496205,1533.743172,-925.102230,0
0.097917,33.015483,-197.235363,102.820309,2.284646,-4.871063,6.075568,-0.495855,4.866091,-5.966304,0.734526,-0.127317,0.318201,-0.059989,-235.360066,188.345317,1534.396468,-924.782945,0
0.098958,104.849109,-188.778955,47.578809,1.305087,-6.324174,4.764160,2.104398,6.494614,-4.816428,-1.941466,-0.087210,0.314962,-0.041406,-292.709972,188.496130,1534.458658,-925.734920,0
0.100000,169.620281,-140.154614,-2.036466,0.348047,-6.826892,2.793026,4.292092,6.831925,-2.812600,-4.159473,0.014883,0.326675,-0.041406,-318.052460,188.496159,1534.946624,-925.896997,0
0.101042,201.610369,-81.617483,-57.520999,-0.766624,-5.997591,0.113893,5.919615,6.215335,-0.157738,-5.836226,0.033114,0.331292,-0.015389,-277.083417,188.496243,1535.555512,-926.673534,0
0.102083,175.236343,-28.976348,-139.775665,-2.433000,-4.720615,-2.291695,6.801505,4.840702,2.158924,-6.718129,0.054991,0.322335,-0.067423,-199.907602,188.420698,1537.016790,-927.151563,0
0.103125,129.245647,20.540614,-189.998524,-3.390041,-2.647362,-4.122033,6.309463,2.947408,4.065521,-6.460750,0.065930,0.348930,-0.078573,-101.847594,188.496156,1537.384213,-928.129502,0
0.104167,68.327750,81.720372,-199.464676,-3.581449,0.255191,-6.060986,5.359444,0.183634,5.925615,-5.374456,0.029468,0.338939,-0.022822,22.241660,188.420743,1538.451064,-928.634291,0
0.105208,15.285900,151.086402,-169.595867,-2.995965,2.754102,-6.596008,3.372352,-2.221067,6.665425,-3.542519,-0.028871,0.336735,-0.059989,138.945453,188.496138,1538.673468,-928.594722,0
0.106250,-32.648383,197.443956,-102.421426,-1.712405,4.999819,-6.008690,0.707755,-4.263068,6.022847,-0.809752,-0.065333,0.316547,-0.059989,235.845853,188.345404,1539.574038,-928.536081,0
0.107292,-104.662807,188.341574,-47.410808,-0.687809,6.526320,-4.600737,-1.934131,-5.884337,4.851833,1.900304,-0.152841,0.313446,-0.041406,291.991118,188.496206,1539.767127,-929.589829,0
0.108333,-170.270173,139.494077,2.386742,0.336788,6.955648,-2.669831,-4.114255,-6.228902,2.852232,4.141021,-0.174718,0.318269,-0.026539,311.614377,188.420748,1540.523595,-929.877695,0
0.109375,-201.457967,80.310971,57.482422,1.395162,6.141025,0.077689,-5.726639,-5.583296,0.155096,5.840484,-0.222118,0.323781,-0.026539,275.497672,188.496145,1540.098652,-930.776955,0
