1-Time,2-VGERA,3-VGERB,4-VGERC,5-VN,6-IGERAN,7-IGERBN,8-IGERCN,9-IGERAT,10-IGERBT,11-IGERCT,12-IN,13-IFD,14-IFAULT,15-VFAULT,16-Speed (rad/s),17-Active Power,18-Reactive Power,19-FAULT 
0.000000,-114.471142,191.242591,-40.071198,-0.541438,3.957745,-5.633226,1.309330,-3.875518,5.640742,-1.188573,-0.072118,0.457516,-0.011006,-33.689697,188.646357,1646.504406,-30.400405,0
0.001042,-161.286733,158.344818,25.936682,0.764641,5.333797,-4.721573,-0.898228,-5.257956,4.596812,1.042822,0.029975,0.459859,-0.011006,7.684646,188.495660,1646.367647,-31.054997,0
0.002083,-191.310634,86.218711,78.407601,1.777978,5.939260,-2.881913,-3.299092,-5.979558,2.741895,3.460802,0.070083,0.461099,0.000144,40.322529,188.495524,1647.380086,-31.731453,0
0.003125,-184.044782,20.740280,138.995836,2.971464,5.785142,-1.009549,-4.667701,-5.713704,0.904232,4.667887,0.091960,0.471090,-0.007290,77.351159,188.495653,1647.565847,-31.962913,0
0.004167,-137.172692,-40.521693,183.422347,3.860949,4.720995,1.263453,-5.757949,-4.646493,-1.476964,5.814048,0.146652,0.466336,-0.018440,107.455919,188.646580,1648.065395,-32.733150,0
0.005208,-66.322160,-94.936325,197.724865,4.097394,2.867911,3.499661,-5.893263,-2.774125,-3.534628,5.795009,0.113837,0.485765,0.007577,116.789070,188.495693,1646.812003,-32.897933,0
0.006250,-4.488969,-156.527158,169.946143,3.601985,0.735948,4.930508,-5.123904,-0.548553,-5.057386,5.075327,0.099252,0.478117,-0.011006,108.289035,188.495638,1647.501518,-32.250785,0
0.007292,56.666227,-184.609477,119.067094,2.588648,-1.579490,5.670460,-3.488533,1.813745,-5.674254,3.285641,0.070083,0.467507,-0.014723,82.226013,188.495642,1647.006069,-32.683544,0
0.008333,115.267640,-191.867893,39.254914,1.079901,-3.656411,5.629578,-1.308037,3.944370,-5.613861,1.134210,0.019036,0.457172,-0.011006,33.848992,188.646406,1647.720546,-32.842316,0
0.009375,160.975838,-157.501994,-26.886635,-0.226178,-5.028794,4.713837,0.884056,5.334403,-4.548362,-1.043875,-0.024718,0.455449,-0.037023,-8.786283,188.495660,1646.525358,-33.290185,0
0.010417,191.700335,-83.978230,-78.664908,-1.216996,-5.692969,2.861913,3.261724,6.018026,-2.753837,-3.431392,-0.053887,0.448146,-0.033307,-39.915551,188.495613,1646.795662,-32.988181,0
0.011458,183.236691,-18.135704,-138.961503,-2.410482,-5.505826,1.018165,4.603270,5.736981,-0.937744,-4.642286,-0.090349,0.455174,0.000144,-77.743521,188.495712,1646.195914,-32.393043,0
0.012500,135.743104,42.069218,-183.594593,-3.277448,-4.393975,-1.267101,5.708982,4.696355,1.421884,-5.761791,-0.115872,0.452556,-0.014723,-106.970132,188.646500,1645.882419,-32.725446,0
0.013542,64.508375,95.567739,-197.325982,-3.570190,-2.672993,-3.462428,5.863627,2.835381,3.505430,-5.788446,-0.123164,0.488935,-0.011006,-117.339049,188.495665,1645.210933,-32.177128,0
0.014583,3.002882,156.806221,-169.498654,-3.041003,-0.496995,-4.983213,5.082670,0.651586,5.028188,-5.064956,-0.108580,0.471779,-0.022156,-108.028415,188.495645,1644.928973,-31.817091,0
0.015625,-57.044922,184.430485,-118.680363,-2.050184,1.840459,-5.674108,3.431834,-1.684126,5.606232,-3.244808,-0.057533,0.468816,-0.014723,-84.622358,188.495703,1643.678197,-31.717608,0
0.016667,-115.872333,191.207356,-39.390705,-0.485141,3.902703,-5.592345,1.293866,-3.841337,5.558781,-1.127648,-0.021072,0.462615,0.003860,-34.061222,188.646482,1642.559661,-31.682251,0
0.017708,-161.614431,157.358237,27.006029,0.775900,5.304441,-4.701132,-0.917559,-5.208583,4.566616,1.046630,0.044560,0.459170,-0.022156,9.001870,188.495600,1641.668408,-31.030551,0
0.018750,-191.875631,84.821055,79.513403,1.789237,5.950268,-2.824679,-3.322289,-5.968164,2.703071,3.456994,0.070083,0.459446,-0.011006,40.739087,188.495644,1641.463788,-30.573790,0
0.019792,-183.072989,19.460073,139.919363,2.982723,5.711753,-0.993196,-4.671567,-5.626352,0.856781,4.660272,0.062790,0.472605,-0.014723,79.366399,188.495618,1640.234041,-30.647495,0
0.020833,-135.884501,-41.743174,184.309419,3.894726,4.658614,1.283894,-5.761815,-4.585726,-1.481278,5.798816,0.128422,0.484112,-0.014723,107.422144,188.646402,1639.617028,-30.318654,0
0.021875,-64.785370,-96.345726,197.408921,4.097394,2.856903,3.479221,-5.920326,-2.736146,-3.573452,5.734083,0.128422,0.482183,0.003860,119.040735,188.495633,1638.904883,-30.224555,0
0.022917,-2.262884,-157.349308,169.423622,3.601985,0.717600,4.918243,-5.085243,-0.548553,-5.078955,4.987746,0.117483,0.479702,-0.022156,109.561225,188.495626,1638.228937,-29.770503,0
0.023958,58.044818,-184.644712,117.548135,2.566129,-1.542795,5.703165,-3.434407,1.787159,-5.656999,3.281833,0.110191,0.468265,0.000144,81.032631,188.495721,1637.750303,-28.530074,0
0.025000,116.476732,-191.738698,37.626590,1.046123,-3.649072,5.617314,-1.319636,3.887401,-5.579351,1.145634,0.008098,0.453589,0.011294,33.150976,188.721922,1637.079239,-27.065090,0
0.026042,161.303536,-156.433198,-28.344835,-0.226178,-5.025125,4.660691,0.914985,5.258445,-4.544048,-1.036260,-0.010133,0.455863,-0.029590,-8.977674,188.571065,1636.142288,-25.819704,0
0.027083,192.344430,-82.275204,-79.734255,-1.250774,-5.692969,2.829208,3.308118,6.067399,-2.727955,-3.446623,-0.061180,0.452693,-0.018440,-39.949326,188.495740,1636.791688,-25.377223,0
0.028125,182.276197,-17.489728,-140.030850,-2.455519,-5.465462,1.034518,4.568475,5.767365,-0.911861,-4.665133,-0.090349,0.488039,-0.040740,-78.351471,188.495705,1637.237130,-25.166531,0
0.029167,134.680911,42.597743,-184.785457,-3.299967,-4.434340,-1.312070,5.701250,4.707749,1.434825,-5.792254,-0.119518,0.487212,-0.011006,-108.073448,188.646480,1637.886997,-24.798475,0
0.030208,64.067678,96.824455,-196.912825,-3.502634,-2.584925,-3.515574,5.844297,2.793604,3.526999,-5.727521,-0.097641,0.461513,0.007577,-116.156925,188.570986,1637.165534,-24.986414,0
0.031250,2.223187,158.015957,-169.170559,-3.041003,-0.449292,-4.962773,5.105867,0.640192,5.071326,-5.030686,-0.075764,0.487557,-0.025873,-108.411198,188.495741,1637.482410,-25.000210,0
0.032292,-58.174914,184.160350,-117.428740,-2.038925,1.858806,-5.649579,3.377708,-1.710712,5.632115,-3.202922,-0.035656,0.468334,-0.018440,-80.918369,188.570997,1637.348132,-24.947472,0
0.033333,-117.883720,191.442256,-38.017566,-0.451364,3.954075,-5.600521,1.262937,-3.864124,5.554467,-1.150495,0.000805,0.456483,-0.022156,-32.496315,188.646576,1638.011975,-23.839713,0
0.034375,-161.919529,155.878366,28.318410,0.809678,5.289763,-4.660251,-0.983283,-5.197189,4.519164,1.088516,0.026329,0.462133,-0.007290,9.339620,188.571120,1637.279374,-23.751413,0
0.035417,-193.344621,82.695208,80.534143,1.800497,5.986963,-2.808327,-3.330022,-5.971962,2.690130,3.479841,0.077375,0.459790,-0.025873,41.538428,188.495613,1637.752889,-23.090860,0
0.036458,-181.626598,17.815772,140.806435,2.971464,5.675058,-0.952315,-4.671567,-5.584575,0.830898,4.683119,0.117483,0.464751,0.000144,78.792224,188.571027,1637.147210,-22.794513,0
0.037500,-134.257311,-42.823715,185.597497,3.872208,4.640267,1.386097,-5.711555,-4.566737,-1.476964,5.802624,0.128422,0.476739,-0.014723,108.480426,188.571027,1637.114886,-22.050247,0
0.038542,-62.932183,-97.649422,196.679821,4.029838,2.827547,3.520102,-5.846870,-2.679178,-3.582080,5.707428,0.117483,0.466749,-0.018440,116.282445,188.571013,1636.287867,-21.728451,0
0.039583,-0.161097,-158.547299,169.119830,3.613244,0.688244,4.963213,-5.065912,-0.472594,-5.100524,4.964899,0.132068,0.446355,0.007577,108.097643,188.495678,1636.443404,-21.803601,0
0.040625,59.547708,-183.975246,116.150693,2.554870,-1.575820,5.609138,-3.407344,1.836532,-5.613861,3.186637,0.091960,0.469849,-0.007290,80.368390,188.645263,1635.094355,-22.214764,0
0.041667,118.070021,-192.044068,36.302058,1.034864,-3.671089,5.605050,-1.246179,3.955764,-5.587979,1.122787,0.037267,0.453865,-0.040740,32.711902,188.571583,1636.047763,-22.119899,0
0.042708,161.450435,-154.988561,-29.450637,-0.237437,-4.995769,4.611633,0.872458,5.266041,-4.522480,-1.043875,-0.002841,0.455863,-0.003573,-9.900857,188.571362,1635.655041,-21.654127,0
0.043750,193.553522,-81.100703,-80.742844,-1.250774,-5.689299,2.788326,3.265590,6.044612,-2.715014,-3.442816,-0.079410,0.455863,0.015011,-41.063900,188.496045,1635.740945,-21.021265,0
0.044792,180.942806,-17.019928,-141.124500,-2.455519,-5.410419,0.981372,4.576207,5.672417,-0.890292,-4.608015,-0.097641,0.464200,-0.044457,-79.240878,188.571494,1633.985796,-20.697172,0
0.045833,133.980316,43.079289,-185.708984,-3.333744,-4.390306,-1.271189,5.643258,4.665972,1.447766,-5.723713,-0.115872,0.484801,0.000144,-108.208548,188.571476,1633.066484,-20.553160,0
0.046875,63.626981,98.210366,-195.916388,-3.513893,-2.551900,-3.425635,5.774706,2.789807,3.479548,-5.670403,-0.097641,0.474948,-0.003573,-116.922491,188.571442,1631.919962,-19.625240,0
0.047917,1.319193,158.885088,-168.745250,-3.007225,-0.434614,-4.938244,5.020812,0.602213,5.010933,-4.973568,-0.083057,0.476671,0.026161,-107.915831,188.496076,1630.827614,-19.459291,0
0.048958,-59.384006,183.561354,-116.274332,-2.005147,1.847798,-5.588257,3.335181,-1.729701,5.571722,-3.122957,-0.053887,0.468747,-0.018440,-82.629634,188.571351,1629.319316,-19.555041,0
0.050000,-119.126711,191.289571,-36.522910,-0.451364,3.895364,-5.584169,1.251338,-3.864124,5.554467,-1.081954,-0.010133,0.459239,-0.029590,-32.349956,188.571348,1629.244307,-19.431948,0
0.051042,-161.987328,154.880040,29.898127,0.832197,5.256738,-4.582576,-0.936889,-5.132625,4.476027,1.092324,0.066437,0.458894,0.007577,10.690619,188.571529,1628.025881,-18.676044,0
0.052083,-193.661019,80.921711,81.712855,1.777978,5.975955,-2.771534,-3.341620,-5.899802,2.664247,3.434147,0.073729,0.454209,-0.018440,42.213928,188.496143,1626.817646,-17.521974,0
0.053125,-180.733904,16.089256,141.620597,3.016501,5.605338,-0.923698,-4.582646,-5.482032,0.861095,4.591731,0.091960,0.472812,-0.048173,80.638590,188.571458,1624.761824,-16.055356,0
0.054167,-132.946520,-44.244861,186.059260,3.917245,4.625589,1.341127,-5.699957,-4.532556,-1.485592,5.749315,0.106545,0.447388,-0.007290,108.334068,188.571552,1623.817404,-15.419703,0
0.055208,-61.417993,-98.870903,196.193754,4.041097,2.776174,3.483309,-5.788878,-2.667784,-3.538942,5.635079,0.110191,0.464131,-0.014723,118.669210,188.571435,1622.448950,-14.369080,0
0.056250,1.635591,-159.216765,168.475791,3.545688,0.680905,4.922331,-5.042716,-0.491584,-5.053072,4.945860,0.084667,0.450695,-0.014723,109.257251,188.495955,1621.741525,-13.070173,0
0.057292,60.824600,-183.869541,115.069194,2.521092,-1.583159,5.629578,-3.357084,1.844128,-5.587979,3.190445,0.077375,0.467851,-0.048173,79.400174,188.646887,1621.391065,-12.300848,0
0.058333,119.640711,-191.656483,35.609413,0.989827,-3.638064,5.560080,-1.280974,3.921582,-5.587979,1.149442,0.040913,0.460203,-0.022156,32.475477,188.646866,1621.396142,-10.982766,0
0.059375,161.925031,-154.225136,-30.216193,-0.259955,-4.966413,4.607545,0.872458,5.247051,-4.436204,-1.047683,-0.013779,0.462202,-0.029590,-9.788274,188.571543,1620.399209,-11.020321,0
0.060417,194.050719,-80.337277,-82.018769,-1.284552,-5.648935,2.767886,3.288787,6.002835,-2.710700,-3.427584,-0.068472,0.458619,-0.022156,-40.962575,188.495955,1620.109555,-10.258053,0
0.061458,180.151811,-16.667578,-142.254606,-2.511815,-5.410419,0.952755,4.541412,5.672417,-0.885979,-4.627054,-0.108580,0.477360,-0.025873,-80.006445,188.722201,1620.326347,-10.004697,0
0.062500,133.166721,43.760499,-186.608207,-3.356263,-4.375628,-1.320247,5.697384,4.643184,1.495218,-5.716097,-0.115872,0.475844,-0.033307,-108.715172,188.571428,1620.340320,-10.202264,0
0.063542,62.926386,99.326142,-195.563990,-3.536412,-2.551900,-3.433811,5.755376,2.713848,3.544254,-5.678019,-0.115872,0.479702,-0.003573,-115.762884,188.571420,1620.526139,-11.017534,0
0.064583,-0.420996,159.765964,-168.283487,-3.018484,-0.405258,-4.962773,4.970552,0.575628,5.062698,-4.931682,-0.093995,0.476739,-0.007290,-108.287356,188.496018,1620.685703,-10.983513,0
0.065625,-60.717397,183.432159,-114.548794,-1.960110,1.880823,-5.596433,3.273323,-1.775276,5.576036,-3.107726,-0.090349,0.470470,0.003860,-78.869354,188.722299,1620.571586,-10.636899,0
0.066667,-120.460103,191.477491,-35.052558,-0.428845,3.990770,-5.535111,1.212677,-3.909699,5.528585,-1.051491,0.011744,0.456069,-0.025873,-31.010216,188.571444,1620.830394,-10.557470,0
0.067708,-162.009928,153.235738,31.271266,0.865975,5.264077,-4.545783,-0.983283,-5.163008,4.368183,1.141826,0.008098,0.454485,-0.022156,11.118435,188.571542,1619.874573,-11.181367,0
0.068750,-194.904011,78.678414,82.733596,1.834274,5.942930,-2.742917,-3.345486,-5.922589,2.612482,3.472225,0.073729,0.453658,0.015011,42.788102,188.496098,1620.333219,-11.054342,0
0.069792,-179.208414,14.715089,142.556275,3.050279,5.590660,-0.878728,-4.601977,-5.493426,0.774819,4.641233,0.095606,0.440843,-0.014723,80.255806,188.722244,1620.471480,-11.506587,0
0.070833,-131.556629,-45.243187,187.165062,3.984801,4.552199,1.422890,-5.730886,-4.505970,-1.533043,5.764546,0.113837,0.431541,-0.037023,109.178442,188.646810,1620.661683,-11.543506,0
0.071875,-59.937702,-100.268559,195.464654,4.097394,2.757827,3.466956,-5.746351,-2.641199,-3.534628,5.657926,0.113837,0.442289,0.007577,115.798337,188.571399,1620.573578,-10.816204,0
0.072917,3.002882,-160.191601,168.402881,3.579466,0.669897,4.987742,-5.042716,-0.468797,-5.022876,4.945860,0.106545,0.439465,-0.003573,107.894993,188.571511,1620.504599,-10.212769,0
0.073958,61.875493,-183.270546,113.793269,2.498573,-1.627193,5.560080,-3.353218,1.855522,-5.579351,3.106672,0.070083,0.469781,-0.022156,78.893549,188.722213,1619.504638,-10.377554,0
0.075000,121.019302,-191.809168,34.941071,0.989827,-3.689437,5.547816,-1.265510,3.963359,-5.544841,1.099940,0.040913,0.458894,-0.033307,32.329119,188.571489,1619.542844,-10.804848,0
0.076042,162.286629,-152.827480,-30.981748,-0.293733,-4.918710,4.570752,0.957513,5.228062,-4.453459,-1.089569,-0.028364,0.462408,-0.022156,-10.688940,188.571462,1619.353260,-10.447008,0
0.077083,195.135512,-79.327206,-83.003055,-1.284552,-5.659944,2.771974,3.292653,5.999037,-2.684817,-3.446623,-0.042949,0.449937,-0.022156,-42.302315,188.571489,1619.699028,-10.259211,0
0.078125,178.705421,-15.927642,-143.251043,-2.489297,-5.304005,0.977284,4.518215,5.611650,-0.838527,-4.661325,-0.097641,0.472881,-0.011006,-80.659427,188.722348,1619.060434,-10.680848,0
0.079167,132.104528,44.735335,-187.446673,-3.356263,-4.357281,-1.357040,5.670321,4.582418,1.469335,-5.708482,-0.119518,0.476739,0.018727,-109.097955,188.646915,1618.486628,-10.209063,0
0.080208,61.400896,100.759033,-194.810586,-3.513893,-2.504197,-3.458340,5.693518,2.713848,3.496803,-5.613285,-0.148688,0.478738,-0.014723,-116.629775,188.571491,1617.182652,-8.919885,0
0.081250,-2.477582,160.482410,-167.991846,-3.029743,-0.339208,-4.962773,5.001481,0.549042,5.036816,-4.901219,-0.104934,0.477153,-0.025873,-107.791990,188.571453,1616.680606,-8.315306,0
0.082292,-62.208987,183.044574,-112.811105,-1.937591,1.906509,-5.526935,3.219197,-1.809457,5.519957,-3.065839,-0.064826,0.463648,-0.018440,-80.310419,188.722277,1615.571229,-7.956140,0
0.083333,-121.623995,191.465746,-33.339172,-0.383808,3.957745,-5.490142,1.170150,-3.913497,5.507016,-1.055299,-0.028364,0.454829,0.003860,-30.751274,188.646915,1615.532240,-7.070426,0
0.084375,-162.168127,152.037747,32.717315,0.877234,5.201696,-4.484461,-1.025810,-5.132625,4.368183,1.153249,0.048206,0.454623,-0.011006,12.165459,188.571402,1615.055682,-6.264726,0
0.085417,-195.480307,76.904918,83.766488,1.901830,5.961277,-2.685683,-3.391880,-5.896004,2.586599,3.479841,0.099252,0.451867,-0.040740,43.474860,188.571489,1614.762430,-5.724771,0
0.086458,-178.067122,13.517098,143.467651,3.050279,5.561304,-0.903257,-4.563316,-5.482032,0.770506,4.606962,0.099252,0.444563,-0.011006,82.012105,188.722186,1614.135134,-4.846889,0
0.087500,-130.483136,-46.065338,187.979224,3.939764,4.511835,1.402449,-5.684493,-4.456597,-1.528729,5.684581,0.121129,0.459721,-0.063040,109.268509,188.646766,1612.865450,-4.366053,0
0.088542,-59.271007,-101.501785,194.954284,4.074875,2.713793,3.475133,-5.742484,-2.595624,-3.551883,5.635079,0.132068,0.462202,-0.018440,118.207619,188.571389,1612.491411,-4.443253,0
0.089583,4.144174,-161.002007,167.977573,3.579466,0.618524,4.959125,-4.992456,-0.457403,-5.074641,4.953476,0.081021,0.473915,-0.048173,108.975793,188.646849,1613.178992,-4.178645,0
0.090625,63.061985,-183.070881,112.723921,2.453536,-1.623523,5.596873,-3.279762,1.870713,-5.587979,3.099057,0.073729,0.471779,-0.007290,77.553809,188.722299,1613.143157,-3.694100,0
0.091667,122.567392,-191.468563,34.187667,0.967308,-3.685767,5.539639,-1.304171,3.959561,-5.553469,1.073285,0.037267,0.460617,-0.037023,31.845011,188.646822,1613.335806,-3.207913,0
0.092708,162.806426,-151.817409,-32.014640,-0.304993,-4.915041,4.521694,0.938182,5.228062,-4.410322,-1.158111,-0.032010,0.465302,-0.033307,-11.015431,188.571456,1613.022875,-3.642866,0
0.093750,195.915207,-77.847335,-84.084553,-1.307070,-5.707647,2.771974,3.350645,6.025622,-2.671876,-3.469471,-0.061180,0.467851,-0.007290,-42.043374,188.722259,1613.644880,-3.206423,0
0.094792,177.778827,-14.565221,-144.211025,-2.511815,-5.315013,0.948667,4.568475,5.520501,-0.756566,-4.649902,-0.097641,0.472192,-0.025873,-81.650160,188.722190,1612.356041,-3.683094,0
0.095833,130.793737,45.968561,-188.127166,-3.412560,-4.327925,-1.426538,5.670321,4.593812,1.516786,-5.735136,-0.115872,0.478393,-0.029590,-109.041664,188.571464,1612.896488,-3.418156,0
0.096875,59.513808,101.980514,-194.543249,-3.502634,-2.452824,-3.425635,5.689652,2.660678,3.531313,-5.639940,-0.123164,0.474052,-0.014723,-115.571492,188.571418,1613.076663,-3.271059,0
0.097917,-4.805367,161.069660,-167.821723,-2.984706,-0.317191,-5.015918,4.966686,0.499669,5.071326,-4.916450,-0.101287,0.464682,-0.007290,-108.208548,188.722264,1613.642799,-2.951833,0
0.098958,-63.644078,183.197259,-110.891141,-1.881295,1.961551,-5.604609,3.203732,-1.866426,5.541526,-3.073455,-0.028364,0.483492,-0.018440,-76.448814,188.722230,1614.032044,-2.426109,0
0.100000,-122.742687,191.418766,-31.905275,-0.372548,4.034804,-5.551464,1.158551,-3.921093,5.507016,-1.066722,-0.028364,0.452900,0.007577,-29.670475,188.571389,1614.284633,-1.530406,0
0.101042,-162.699223,150.158546,33.689449,0.911012,5.242060,-4.521254,-1.052873,-5.193391,4.355241,1.183712,0.062790,0.457034,-0.040740,12.368109,188.571409,1614.589976,-1.402367,0
0.102083,-196.655499,75.319341,84.775077,1.913090,5.961277,-2.702035,-3.388013,-5.937781,2.556403,3.510304,0.070083,0.460066,-0.029590,43.756318,188.722166,1615.451678,-1.193514,0
0.103125,-176.699831,12.765418,144.767880,3.106575,5.572313,-0.841935,-4.605843,-5.455447,0.748937,4.702158,0.117483,0.459859,-0.007290,81.933297,188.797683,1615.929542,-1.547808,0
0.104167,-129.906840,-46.723058,188.598959,3.973542,4.519174,1.439243,-5.777280,-4.494576,-1.584808,5.749315,0.175822,0.458550,-0.011006,109.707584,188.571469,1617.283438,-1.646315,0
0.105208,-58.796410,-102.887697,194.188728,4.052357,2.677099,3.516014,-5.727020,-2.550049,-3.560511,5.669350,0.095606,0.465233,-0.011006,115.404296,188.646833,1617.500678,-1.550370,0
0.106250,5.082068,-161.601002,167.904663,3.568207,0.567152,5.036799,-5.038849,-0.419424,-5.109151,4.964899,0.121129,0.475086,0.011294,107.669827,188.722291,1618.103162,-1.650004,0
0.107292,64.191977,-182.859470,111.204962,2.442277,-1.671227,5.613226,-3.268163,1.958065,-5.579351,3.080017,0.102898,0.470470,-0.007290,77.024667,188.797639,1618.009237,-1.897974,0
0.108333,123.765184,-191.421583,33.021107,0.944790,-3.726131,5.580521,-1.203652,4.016530,-5.540527,1.046630,0.033621,0.462753,-0.018440,31.327128,188.564630,1618.449503,-1.953704,0
0.109375,163.337522,-150.043912,-33.071836,-0.327511,-4.907702,4.493078,0.980710,5.288828,-4.384439,-1.188573,-0.028364,0.462615,0.003860,-12.107489,188.646393,1618.679616,-1.907748,0
0.110417,196.920900,-75.827193,-85.020232,-1.329589,-5.729664,2.739269,3.331314,6.037016,-2.611483,-3.492318,-0.053887,0.460686,-0.055607,-43.450664,188.721934,1618.830312,-1.815583,0
0.111458,176.196837,-12.732999,-145.122400,-2.500556,-5.296666,0.895521,4.568475,5.539490,-0.726370,-4.642286,-0.097641,0.474741,-0.003573,-81.965393,188.797233,1618.572423,-1.012522,0
