1-Time,2-VGERA,3-VGERB,4-VGERC,5-VN,6-IGERAN,7-IGERBN,8-IGERCN,9-IGERAT,10-IGERBT,11-IGERCT,12-IN,13-IFD,14-IFAULT,15-VFAULT,16-Speed (rad/s),17-Active Power,18-Reactive Power,19-FAULT 
0.000000,115.742237,66.651524,-187.422369,-3.266189,-3.572014,-2.257916,5.650990,3.673965,2.394629,-6.240791,-0.108580,0.483561,-0.025873,110.608250,188.495845,1636.058549,-23.070619,0
0.001042,37.897051,124.014153,-194.251609,-3.446337,-1.634532,-4.376134,5.647124,1.813921,4.422946,-6.240791,-0.090349,0.462684,-0.037023,43.643735,188.646598,1635.213177,-22.436035,0
0.002083,-28.467410,164.264303,-156.642185,-2.770779,0.438720,-5.483101,4.510483,-0.312902,5.476788,-4.980396,-0.068472,0.470125,-0.014723,-23.939988,188.571272,1633.810584,-22.254364,0
0.003125,-80.627866,197.737582,-80.524114,-1.284552,2.820208,-6.003292,2.631546,-2.691683,6.014733,-3.087898,-0.010133,0.465991,-0.022156,-92.874710,188.571245,1633.061161,-22.856441,0
0.004167,-139.172779,177.313009,-16.594169,-0.068547,4.361387,-5.399871,0.567034,-4.184905,5.300413,-1.016432,0.011744,0.466818,-0.003573,-143.503395,188.495875,1632.140285,-23.123822,0
0.005208,-185.897970,128.747392,46.509462,1.147457,5.509932,-4.159735,-1.775839,-5.392822,4.030511,1.298736,0.081021,0.463373,-0.033307,-177.728702,188.646567,1631.532343,-24.128414,0
0.006250,-193.887017,56.186720,103.269921,2.250869,5.788812,-2.112262,-3.708902,-5.533622,1.997785,3.160770,0.106545,0.465302,0.011294,-175.679687,188.571263,1630.700808,-25.175323,0
0.007292,-166.654197,-6.637339,164.477891,3.421836,5.267747,0.018441,-5.193494,-5.092696,-0.109901,4.642021,0.132068,0.471572,-0.018440,-156.945835,188.571246,1629.822888,-25.171184,0
0.008333,-116.380829,-66.348970,187.505309,3.827171,3.825644,2.244859,-5.665162,-3.610589,-2.402780,5.030421,0.179468,0.459514,-0.048173,-110.099946,188.495825,1628.537487,-25.485968,0
0.009375,-37.970648,-124.251870,194.419610,3.996060,1.844128,4.296493,-5.641965,-1.713492,-4.453144,4.984726,0.143006,0.457723,-0.037023,-42.696357,188.722016,1627.330488,-24.938700,0
0.010417,28.811911,-164.560745,156.567153,3.331761,-0.214446,5.461721,-4.520788,0.409625,-5.471711,3.739562,0.113837,0.439120,-0.033307,25.033724,188.495959,1626.349956,-24.908417,0
0.011458,81.006266,-198.163219,80.023773,1.856793,-2.588595,5.965266,-2.634119,2.780996,-6.022884,1.858488,0.081021,0.468196,-0.025873,93.664471,188.571132,1625.666991,-24.852953,0
0.012500,139.087882,-177.538981,16.118131,0.663307,-4.111426,5.370167,-0.604402,4.307566,-5.361477,-0.232017,0.022683,0.465922,-0.025873,143.944149,188.495845,1625.558908,-24.910003,0
0.013542,185.993872,-128.444839,-46.523736,-0.563957,-5.289327,4.130032,1.734604,5.467314,-4.078346,-2.493875,0.015390,0.465164,-0.033307,178.270781,188.722099,1626.028418,-24.828383,0
0.014583,193.926420,-56.119066,-103.089768,-1.689887,-5.538851,2.140821,3.710195,5.685925,-1.997117,-4.397796,-0.046595,0.465509,-0.048173,176.356865,188.497790,1626.855974,-24.829934,0
0.015625,166.738800,6.094252,-164.613682,-2.849594,-5.050811,-0.010690,5.217984,5.226472,0.141434,-5.879046,-0.101287,0.476119,-0.014723,157.960763,188.571176,1628.423269,-25.078716,0
0.016666,117.177327,66.040783,-187.325156,-3.345004,-3.605039,-2.249593,5.708982,3.718429,2.394629,-6.305525,-0.086703,0.480942,-0.051890,111.193683,188.495676,1629.707252,-25.361393,0
0.017708,39.230442,124.225563,-194.190851,-3.423819,-1.627193,-4.401104,5.639392,1.802806,4.475858,-6.305525,-0.068472,0.476257,-0.011006,43.587443,188.721925,1631.031583,-26.105355,0
0.018750,-27.958914,164.722358,-156.472062,-2.759520,0.493762,-5.508070,4.506617,-0.253617,5.503245,-5.003243,-0.024718,0.476533,-0.029590,-24.502904,188.571109,1631.543946,-25.443132,0
0.019791,-80.786065,197.913757,-79.709952,-1.295811,2.878920,-6.044908,2.631546,-2.721325,6.050008,-3.068859,0.011744,0.465095,-0.029590,-93.268751,188.570991,1631.971161,-25.624622,0
0.020833,-139.116279,177.183814,-15.281788,-0.046029,4.401751,-5.458132,0.520640,-4.244190,5.300413,-0.951699,0.022683,0.460135,-0.022156,-143.706045,188.495665,1632.333386,-26.331630,0
0.021875,-185.988369,127.901752,47.323624,1.192494,5.590660,-4.130604,-1.845429,-5.440991,4.065786,1.291120,0.062790,0.456827,-0.025873,-177.661152,188.721951,1633.052329,-25.586344,0
0.022916,-193.762718,54.753829,103.209162,2.284646,5.803490,-2.128909,-3.770760,-5.563265,1.988966,3.206464,0.110191,0.464475,-0.007290,-175.443262,188.495716,1633.446215,-25.580832,0
0.023958,-166.631597,-7.142374,164.368526,3.489392,5.282424,0.018441,-5.212825,-5.155685,-0.114310,4.702946,0.117483,0.466956,0.011294,-157.328618,188.571093,1634.680908,-25.452005,0
0.025000,-116.256530,-66.372460,187.310882,3.894726,3.836652,2.228213,-5.699957,-3.636526,-2.460102,5.068499,0.150299,0.477291,-0.003573,-110.257563,188.571064,1635.480484,-25.839970,0
0.026041,-39.032841,-124.404555,194.237335,4.063616,1.851467,4.350593,-5.657430,-1.746840,-4.484009,4.969495,0.161237,0.475086,-0.040740,-43.563248,188.721844,1635.763786,-26.059863,0
0.027083,27.580219,-164.595980,156.615760,3.343021,-0.247471,5.482529,-4.524655,0.391099,-5.462892,3.750986,0.113837,0.478462,-0.014723,24.515841,188.646489,1635.741778,-26.169430,0
0.028125,80.644669,-197.869593,80.898693,1.890571,-2.573917,5.990235,-2.641851,2.777291,-6.049340,1.835641,0.095606,0.468954,-0.003573,93.371755,188.571091,1635.863856,-26.759687,0
0.029166,139.234781,-177.045690,16.312558,0.640789,-4.129773,5.370167,-0.573473,4.307566,-5.321792,-0.220593,0.055498,0.465647,-0.025873,143.944149,188.571042,1635.337320,-26.766126,0
0.030208,185.903473,-128.421349,-46.888286,-0.631512,-5.263641,4.105062,1.734604,5.459904,-4.034252,-2.474836,0.015390,0.459032,-0.022156,177.966806,188.721949,1634.845308,-26.767922,0
0.031250,193.598722,-54.979801,-102.943948,-1.723664,-5.428767,2.115851,3.706329,5.604409,-2.010345,-4.390180,-0.010133,0.445045,-0.033307,175.602558,188.570979,1633.597331,-26.302962,0
0.032291,166.422402,7.527143,-163.969643,-2.849594,-4.977422,-0.006529,5.132929,5.144956,0.141434,-5.806697,-0.090349,0.462202,-0.033307,157.183939,188.570951,1631.729195,-25.867168,0
0.033333,115.889136,66.557564,-187.155033,-3.311226,-3.509633,-2.253754,5.620061,3.648028,2.368173,-6.267446,-0.075764,0.445872,-0.025873,110.900966,188.495712,1630.371565,-25.660578,0
0.034375,38.213449,123.920193,-193.996424,-3.468856,-1.627193,-4.338681,5.608463,1.806511,4.352396,-6.202713,-0.057533,0.483698,-0.044457,43.778835,188.721907,1627.927104,-24.654951,0
0.035416,-28.252712,164.229068,-156.751550,-2.759520,0.391017,-5.424840,4.475688,-0.279554,5.445923,-4.991819,-0.039302,0.470470,-0.025873,-23.816146,188.571062,1627.155283,-24.821939,0
0.036458,-80.661766,197.209056,-80.888664,-1.307070,2.787183,-5.957516,2.612215,-2.680567,5.957411,-3.114553,-0.002841,0.470194,-0.029590,-92.683318,188.571046,1626.027855,-24.365079,0
0.037500,-139.116279,177.289519,-16.569865,-0.113585,4.302675,-5.379063,0.563168,-4.121916,5.260729,-1.012624,0.059144,0.469781,-0.033307,-143.537170,188.571075,1624.635163,-23.428169,0
0.038541,-185.513773,128.829607,46.752496,1.169976,5.473237,-4.147250,-1.710115,-5.329833,4.021692,1.226387,0.073729,0.463166,-0.029590,-177.717444,188.721940,1622.831227,-23.201938,0
0.039583,-194.090416,56.045780,103.233466,2.318424,5.755786,-2.120586,-3.674107,-5.492865,2.006603,3.122692,0.121129,0.462959,-0.022156,-175.612137,188.571027,1621.769866,-22.776139,0
0.040625,-166.473398,-6.766534,164.344223,3.410576,5.253069,-0.023175,-5.139369,-5.107517,-0.096673,4.573480,0.146652,0.456414,0.011294,-156.776960,188.571109,1619.884503,-22.204333,0
0.041666,-116.437329,-66.395950,187.481006,3.860949,3.810966,2.203243,-5.630367,-3.621705,-2.349868,4.992342,0.128422,0.463235,-0.007290,-110.223788,188.646558,1618.488632,-21.092719,0
0.042708,-37.936748,-124.087440,194.127970,4.041097,1.906509,4.288170,-5.603304,-1.739429,-4.373775,4.965687,0.153945,0.451453,-0.007290,-42.786423,188.721907,1617.268308,-19.999224,0
0.043750,29.026610,-164.431550,156.919551,3.376799,-0.218115,5.428429,-4.516922,0.328109,-5.432027,3.747178,0.102898,0.479771,0.000144,24.797299,188.570982,1616.876697,-18.744935,0
0.044791,81.051466,-197.423283,80.607053,1.868052,-2.526214,5.902843,-2.645717,2.729122,-5.974381,1.881335,0.059144,0.466404,-0.011006,93.349238,188.571167,1615.857114,-17.567660,0
0.045833,138.997483,-177.691666,16.239648,0.663307,-4.045376,5.395136,-0.654662,4.226050,-5.304155,-0.174899,0.081021,0.465233,0.000144,143.876599,188.646509,1615.136579,-16.649254,0
0.046875,185.248077,-128.738464,-46.633101,-0.597734,-5.226946,4.138355,1.641817,5.393209,-4.087165,-2.440565,0.022683,0.467782,-0.029590,178.124422,188.722001,1614.534865,-15.856641,0
0.047916,194.118519,-56.389202,-103.162678,-1.678627,-5.472800,2.153305,3.621274,5.604409,-2.067667,-4.302600,-0.057533,0.471710,0.000144,176.413157,188.571172,1614.566287,-14.859687,0
0.048958,166.524101,5.894587,-164.419255,-2.838335,-5.050811,0.026764,5.071071,5.185714,0.075293,-5.795274,-0.057533,0.476188,0.003860,157.780630,188.495676,1615.016386,-14.336592,0
0.050000,117.505025,66.122999,-187.276549,-3.345004,-3.575683,-2.170524,5.620061,3.707313,2.341717,-6.210329,-0.083057,0.476671,-0.048173,111.295007,188.646565,1615.006076,-13.994040,0
0.051041,39.343441,123.990663,-193.801997,-3.491375,-1.674896,-4.263773,5.600731,1.839858,4.392080,-6.172250,-0.046595,0.477360,-0.007290,43.654993,188.721933,1615.168804,-14.370037,0
0.052083,-28.241412,164.452223,-156.763702,-2.782039,0.427712,-5.445647,4.471822,-0.249912,5.437104,-5.003243,-0.035656,0.467231,-0.040740,-24.367804,188.571107,1615.219160,-13.881551,0
0.053125,-80.944264,197.138586,-80.110957,-1.295811,2.801861,-5.965839,2.604483,-2.676862,5.939774,-3.068859,-0.006487,0.467989,-0.011006,-93.054843,188.495678,1614.618699,-13.975090,0
0.054166,-138.878981,177.583144,-15.160272,-0.046029,4.313684,-5.395709,0.582499,-4.151558,5.291594,-1.012624,0.029975,0.464062,0.003860,-143.661012,188.646373,1615.220013,-13.644667,0
0.055208,-185.129575,128.301082,47.372231,1.181235,5.520940,-4.147250,-1.725579,-5.374296,4.039329,1.222579,0.073729,0.459446,-0.011006,-177.537311,188.646590,1615.661650,-13.286887,0
0.056250,-193.943517,55.223629,103.269921,2.307165,5.744778,-2.170524,-3.697304,-5.544738,2.068335,3.103653,0.084667,0.462339,-0.007290,-175.690946,188.571011,1616.242797,-12.078461,0
0.057291,-166.405599,-6.707809,164.271313,3.433095,5.238391,-0.106405,-5.112306,-5.129748,-0.083444,4.565864,0.135714,0.480253,-0.007290,-157.362393,188.495427,1616.344862,-11.775498,0
0.058333,-116.911926,-66.301990,187.225821,3.860949,3.803627,2.136659,-5.591706,-3.629115,-2.296955,4.999958,0.157591,0.470194,-0.018440,-110.651604,188.646464,1616.253084,-11.321582,0
0.059375,-39.518737,-124.263615,193.860633,4.074875,1.946874,4.275685,-5.626501,-1.787598,-4.360546,4.958072,0.132068,0.476395,0.003860,-43.585764,188.646418,1616.343093,-11.149765,0
0.060416,27.602819,-164.525510,157.162585,3.331761,-0.181421,5.374329,-4.528521,0.287352,-5.396752,3.731946,0.117483,0.479358,-0.003573,24.369483,188.571094,1615.829493,-11.180376,0
0.061458,80.893267,-197.106168,81.311850,1.879312,-2.489519,5.886197,-2.653449,2.703185,-5.934696,1.904182,0.073729,0.469023,-0.037023,93.259171,188.495752,1615.328578,-10.958332,0
0.062500,139.008783,-177.621196,16.105980,0.640789,-4.019689,5.353521,-0.631465,4.203818,-5.308564,-0.182515,0.026329,0.465302,-0.074190,143.854082,188.721791,1615.134818,-10.805352,0
0.063541,184.852580,-128.750209,-47.058410,-0.631512,-5.175573,4.071770,1.610888,5.356156,-4.051890,-2.406295,0.019036,0.459997,0.007577,177.685348,188.646404,1614.243498,-10.490296,0
0.064583,194.084619,-55.144231,-102.871038,-1.667368,-5.414089,2.178274,3.563282,5.545125,-2.067667,-4.275945,-0.039302,0.455105,0.003860,175.760174,188.571065,1613.115157,-9.975065,0
0.065625,166.230303,7.292243,-163.763065,-2.827076,-4.900363,0.064217,5.020812,5.089377,0.062065,-5.738156,-0.061180,0.465233,-0.003573,157.206455,188.495631,1611.250946,-9.586759,0
0.066666,116.431532,66.534074,-187.045668,-3.345004,-3.579352,-2.141393,5.542739,3.718429,2.240301,-6.164634,-0.064826,0.486523,0.000144,111.261232,188.646493,1610.064524,-7.923478,0
0.067708,38.767145,123.697038,-193.619722,-3.480115,-1.652879,-4.234642,5.542739,1.836153,4.303892,-6.153211,-0.093995,0.470125,-0.003573,44.049034,188.646594,1608.902873,-7.175378,0
0.068750,-28.173612,164.146853,-157.456347,-2.804557,0.346983,-5.370740,4.471822,-0.220270,5.322460,-4.934702,-0.035656,0.479427,-0.029590,-23.590980,188.570953,1607.073853,-7.061055,0
0.069791,-81.000763,196.140260,-81.739281,-1.329589,2.691777,-5.903416,2.662475,-2.547178,5.873633,-3.095514,0.022683,0.468885,0.003860,-92.525702,188.495658,1605.628236,-5.965422,0
0.070833,-139.138879,177.900260,-16.484804,-0.068547,4.192591,-5.341609,0.655955,-4.051516,5.216635,-1.115436,0.029975,0.469160,-0.014723,-143.559687,188.721838,1604.277076,-4.832377,0
0.071875,-184.417680,129.170213,47.044136,1.158716,5.403517,-4.113958,-1.617327,-5.229791,4.021692,1.169269,0.066437,0.463580,-0.014723,-177.334661,188.721869,1602.285185,-4.332167,0
0.072916,-194.316414,56.092760,103.136252,2.239609,5.638363,-2.128909,-3.596784,-5.444696,1.975738,3.035111,0.095606,0.457999,0.003860,-175.679687,188.570973,1600.442107,-5.159679,0
0.073958,-166.134401,-6.684319,163.797398,3.433095,5.139315,-0.068952,-4.988590,-4.963011,-0.061397,4.436397,0.143006,0.463855,-0.022156,-156.518019,188.495698,1597.171711,-5.142536,0
0.075000,-116.685927,-66.348970,187.165062,3.860949,3.818305,2.078398,-5.522115,-3.592063,-2.261680,4.859068,0.135714,0.449111,-0.003573,-110.415179,188.721873,1595.024204,-4.821189,0
0.076041,-37.823749,-123.782070,193.617600,4.063616,1.869815,4.109224,-5.506651,-1.743135,-4.254721,4.881915,0.153945,0.464820,-0.040740,-42.865232,188.721844,1592.743274,-4.239717,0
0.077083,29.139609,-164.278864,157.429922,3.365539,-0.122709,5.249483,-4.474395,0.265120,-5.343839,3.705292,0.117483,0.470263,-0.025873,24.538358,188.571105,1591.919104,-3.506423,0
0.078126,81.435663,-196.060862,81.469822,1.913090,-2.430807,5.773836,-2.634119,2.603143,-5.886193,1.907990,0.055498,0.471848,-0.025873,93.056522,188.495687,1590.535037,-2.325379,0
0.079166,138.918383,-178.349386,16.506985,0.629529,-3.927952,5.307744,-0.720386,4.092660,-5.220376,-0.113974,0.037267,0.467851,-0.037023,143.944149,188.721916,1588.907673,-1.386228,0
0.080208,183.993786,-129.478400,-46.730315,-0.608994,-5.050811,4.092578,1.556762,5.237588,-4.025433,-2.356793,0.004452,0.463442,-0.011006,177.899256,188.721900,1587.068398,-1.064380,0
0.081250,194.446217,-56.905982,-103.077616,-1.723664,-5.344369,2.174113,3.501424,5.463609,-2.067667,-4.203596,-0.028364,0.465578,0.003860,176.582032,188.571026,1586.001980,-1.047169,0
0.082291,166.343302,5.636197,-163.933188,-2.905891,-4.926049,0.093348,4.935757,5.078261,0.026790,-5.654384,-0.064826,0.472674,-0.022156,157.487913,188.571056,1585.102265,-0.797509,0
0.083333,117.776223,66.111254,-187.106426,-3.322485,-3.575683,-2.095616,5.504078,3.666555,2.222663,-6.107517,-0.083057,0.475293,-0.025873,111.362557,188.721837,1584.245477,-1.487293,0
0.084375,39.354741,123.697038,-193.230869,-3.446337,-1.623523,-4.184704,5.465416,1.821332,4.303892,-6.084670,-0.079410,0.478049,-0.025873,43.542410,188.646467,1583.351101,-2.015031,0
0.085416,-28.535210,164.252558,-157.395589,-2.759520,0.361661,-5.304155,4.464090,-0.235091,5.282775,-4.889007,-0.046595,0.466749,-0.007290,-24.345288,188.571105,1582.546142,-2.192848,0
0.086458,-81.362361,195.693950,-80.706389,-1.295811,2.713793,-5.828508,2.612215,-2.558293,5.829539,-3.080283,-0.017425,0.460892,-0.029590,-92.773385,188.646453,1581.739627,-2.027953,0
0.087500,-138.698182,178.041200,-15.196727,-0.057288,4.174244,-5.283348,0.667553,-4.036695,5.225453,-1.092589,0.033621,0.459032,-0.003573,-143.683529,188.721911,1581.557606,-1.818401,0
0.088541,-183.841384,128.782627,47.578809,1.181235,5.319119,-4.080666,-1.636658,-5.174212,3.977598,1.138806,0.059144,0.457241,-0.014723,-177.244594,188.646400,1580.251990,-1.442822,0
0.089583,-194.259915,55.846115,103.391438,2.295906,5.682397,-2.187170,-3.569721,-5.429875,2.050697,2.981802,0.139360,0.451040,-0.011006,-175.983662,188.571046,1580.024917,-0.010829,0
0.090625,-166.179600,-6.038343,164.028279,3.455614,5.139315,-0.123051,-5.000188,-4.974127,-0.017304,4.447821,0.117483,0.474121,0.000144,-157.339876,188.646498,1580.333279,0.291559,0
0.091666,-117.759420,-66.125815,187.019242,3.928504,3.788949,2.065913,-5.506651,-3.595768,-2.195539,4.862875,0.150299,0.473088,-0.018440,-111.135712,188.721962,1580.269092,0.667065,0
0.092708,-40.027234,-123.946500,193.216595,4.041097,1.895501,4.117547,-5.479588,-1.776482,-4.267949,4.832413,0.143006,0.474672,-0.025873,-43.619539,188.646585,1580.073828,0.149910,0
0.093750,27.975717,-164.243629,157.745865,3.354280,-0.108031,5.245321,-4.455064,0.268825,-5.286517,3.667213,0.113837,0.476877,0.022444,24.437033,188.571040,1579.158044,-0.396964,0
0.094791,81.333964,-195.732001,82.053102,1.913090,-2.383104,5.761351,-2.614788,2.614259,-5.833281,1.904182,0.062790,0.467507,-0.018440,92.988972,188.646409,1578.548875,-0.766189,0
0.095833,138.726285,-178.255426,15.802188,0.629529,-3.942630,5.249483,-0.685591,4.066724,-5.158645,-0.136821,0.022683,0.462615,-0.044457,143.899116,188.721949,1577.519400,-0.907202,0
0.096875,183.496589,-129.102559,-47.556628,-0.631512,-5.028794,4.071770,1.564495,5.233883,-4.034252,-2.299675,0.000805,0.458894,-0.022156,177.381373,188.646400,1577.205078,0.146345,0
0.097916,194.423617,-55.379131,-102.919644,-1.689887,-5.333361,2.178274,3.482093,5.456199,-2.107351,-4.157902,-0.039302,0.465509,-0.048173,176.064149,188.571018,1576.714614,1.456746,0
0.098958,166.004304,6.916403,-163.362060,-2.872113,-4.848990,0.168256,4.897096,5.048619,-0.056988,-5.612497,-0.057533,0.466542,0.026161,157.161422,188.571035,1575.696845,2.918430,0
0.100000,117.256427,66.428369,-186.972758,-3.345004,-3.575683,-2.045678,5.469282,3.685081,2.130066,-6.042783,-0.104934,0.477084,0.003860,111.801632,188.721898,1574.533976,4.403163,0
0.101041,39.524240,123.438648,-193.024290,-3.480115,-1.693243,-4.080666,5.449952,1.876911,4.149564,-6.065631,-0.068472,0.464820,-0.037023,44.285459,188.646313,1573.107485,6.118145,0
0.102083,-28.026713,164.052893,-158.088234,-2.815817,0.302950,-5.245894,4.464090,-0.116523,5.203407,-4.934702,-0.032010,0.478600,-0.011006,-23.388330,188.571056,1572.631777,7.812030,0
0.103126,-81.294561,194.907034,-82.687111,-1.329589,2.589031,-5.753601,2.658608,-2.447135,5.789855,-3.118361,-0.013779,0.470125,0.015011,-92.289277,188.646502,1571.788907,8.700865,0
0.104166,-139.003280,178.569725,-16.266074,-0.068547,4.166905,-5.279186,0.710081,-3.918126,5.154903,-1.161130,0.004452,0.467369,0.007577,-143.661012,188.721963,1570.338373,9.670558,0
0.105208,-183.005189,129.581288,47.554506,1.169976,5.286094,-4.088989,-1.505210,-5.122338,4.021692,1.032187,0.051852,0.459583,0.000144,-177.008169,188.646527,1569.707909,11.109137,0
0.106250,-194.723212,56.280680,103.172707,2.250869,5.601669,-2.207978,-3.500131,-5.348359,2.081563,2.917068,0.066437,0.445666,-0.025873,-175.871079,188.570982,1568.593052,11.723089,0
0.107291,-165.705004,-6.637339,163.347786,3.399317,5.102620,-0.202120,-4.861008,-4.963011,0.026790,4.314546,0.139360,0.467782,-0.014723,-156.292852,188.721837,1566.753539,13.128852,0
0.108333,-117.092725,-66.442930,187.310882,3.860949,3.818305,2.011813,-5.425462,-3.547600,-2.142627,4.824797,0.150299,0.460203,-0.029590,-110.842996,188.721799,1565.711741,13.588463,0
0.109375,-38.320945,-123.476699,192.973561,4.029838,1.888162,3.996863,-5.417730,-1.776482,-4.135668,4.790526,0.128422,0.500648,-0.014723,-43.157948,188.646540,1563.751049,14.985121,0
0.110416,29.060509,-164.184904,158.134719,3.421836,-0.038311,5.174575,-4.489859,0.209541,-5.215967,3.682445,0.095606,0.450489,-0.025873,24.279416,188.571096,1563.161467,16.364140,0
