1-Time,2-VGERA,3-VGERB,4-VGERC,5-VN,6-IGERAN,7-IGERBN,8-IGERCN,9-IGERAT,10-IGERBT,11-IGERCT,12-IN,13-IFD,14-IFAULT,15-VFAULT,16-Speed (rad/s),17-Active Power,18-Reactive Power,19-FAULT 
0.000000,129.034737,-187.577304,24.559280,3.369138,-3.119679,4.229017,-0.602420,3.345062,-4.178673,0.727904,-0.168623,0.391514,-0.031958,-9.927841,188.496147,1168.751632,23.588759,0
0.001042,162.801361,-145.052522,-42.619697,2.068488,-3.882989,3.284494,1.009532,4.120645,-3.330942,-0.823317,-0.132093,0.394389,-0.061832,-6.274711,188.420770,1169.140534,24.060986,0
0.002083,192.042328,-68.109245,-95.235228,1.118448,-4.383578,2.026453,2.617752,4.620547,-1.975410,-2.495505,-0.055380,0.390469,-0.091706,3.678088,188.420587,1168.389618,23.699743,0
0.003125,169.277929,-4.213343,-150.078978,0.123168,-3.833285,0.593794,3.360295,4.205188,-0.603091,-3.171496,-0.106522,0.374530,-0.050629,7.602658,188.496264,1168.637836,23.494595,0
0.004167,122.603540,57.036840,-187.835607,-0.645912,-3.009621,-1.271441,4.128957,3.286250,1.218273,-3.932875,-0.059033,0.381650,-0.039427,13.687438,188.496120,1168.847100,24.083629,0
0.005208,49.988851,113.068073,-190.507008,-0.713772,-1.479451,-2.672351,3.946120,1.760814,2.682919,-3.779887,-0.018850,0.406147,-0.073035,17.713798,188.420869,1168.462242,23.120954,0
0.006250,-15.117101,165.873704,-161.946402,-0.204822,0.146577,-3.759743,3.352832,0.161863,3.795043,-3.221306,-0.059033,0.392037,-0.054364,21.061558,188.420699,1169.130358,23.952874,0
0.007292,-72.385386,181.615122,-100.331818,1.016658,1.893314,-4.192318,1.901329,-1.587795,4.185335,-1.894229,-0.073645,0.391514,-0.039427,20.507368,188.496179,1169.285956,24.212420,0
0.008333,-129.438164,187.691817,-24.227652,2.430408,3.324076,-4.108978,0.516991,-2.995607,4.189532,-0.495995,-0.088257,0.390208,-0.046895,14.841058,188.496243,1169.639468,24.071553,0
0.009375,-163.669830,144.732122,42.582008,3.651888,4.044782,-3.100958,-1.113618,-3.793245,3.270456,0.987627,-0.154011,0.398896,-0.061832,10.260508,188.420757,1169.886806,23.277866,0
0.010417,-192.933482,69.105663,95.751515,4.692408,4.580874,-1.854822,-2.762883,-4.300498,2.003055,2.624237,-0.194194,0.395761,-0.039427,1.517878,188.420723,1170.504330,22.880822,0
0.011458,-169.250341,5.258085,151.038447,5.732928,3.998629,-0.370572,-3.505426,-3.778542,0.580376,3.353595,-0.227071,0.405951,-0.020755,-2.655511,188.496047,1170.883360,21.753592,0
0.012500,-123.392611,-56.463253,187.760985,6.456768,3.132361,1.447039,-4.221849,-2.925768,-1.257775,4.154111,-0.238030,0.404841,-0.061832,-8.163481,188.496196,1171.710488,20.718745,0
0.013542,-50.732553,-113.183097,190.112311,6.513318,1.584439,2.871761,-4.027818,-1.448116,-2.714028,3.954871,-0.183235,0.402554,-0.043161,-12.811891,188.420770,1171.686750,20.224591,0
0.014583,15.201402,-165.698787,162.019508,5.993058,-0.027387,4.006776,-3.412142,0.250081,-3.872315,3.410521,-0.190541,0.402750,-0.031958,-16.408471,188.420569,1172.397851,19.093063,0
0.015625,72.628482,-181.500610,99.407765,4.760268,-1.788325,4.332200,-2.005415,2.010765,-4.275197,2.047866,-0.168623,0.371460,-0.039427,-15.356641,188.496123,1172.815957,17.906838,0
0.016667,129.306957,-187.673952,22.786553,3.380448,-3.190685,4.260765,-0.587495,3.436956,-4.195460,0.646074,-0.161317,0.389816,-0.050629,-10.380241,188.496161,1173.610010,16.811292,0
0.017708,163.016869,-143.675299,-43.309091,2.147658,-3.914942,3.292431,1.035651,4.197836,-3.280581,-0.890916,-0.124787,0.395434,-0.031958,-5.946721,188.420712,1173.972011,15.778048,0
0.018750,192.598110,-67.227339,-95.813826,1.152378,-4.451034,2.022484,2.651334,4.686711,-2.025770,-2.481273,-0.055380,0.399876,-0.031958,3.745948,188.496078,1175.009298,16.799637,0
0.019792,168.495297,-4.201262,-151.199243,0.032688,-3.918492,0.605700,3.401340,4.216215,-0.603091,-3.189285,-0.048074,0.405363,-0.054364,7.908028,188.496223,1175.340999,16.972184,0
0.020833,122.943815,56.758979,-188.044887,-0.645912,-3.009621,-1.251598,4.121494,3.278899,1.235060,-3.964896,-0.059033,0.410524,-0.039427,13.540408,188.496225,1175.814739,16.526082,0
0.021875,51.315924,113.805008,-189.965341,-0.679842,-1.486551,-2.708068,3.983433,1.808599,2.666132,-3.819024,-0.000585,0.416077,-0.058098,17.826898,188.420765,1176.444863,17.125400,0
0.022917,-14.788169,166.175727,-162.020266,-0.170892,0.203381,-3.843083,3.311787,0.117754,3.849600,-3.189285,-0.048074,0.401052,-0.050629,20.767498,188.543399,1176.811140,16.072788,0
0.023958,-72.612236,181.470151,-99.519318,0.982728,1.964319,-4.216130,1.871478,-1.639255,4.290253,-1.858650,-0.062686,0.392821,-0.054364,20.077588,188.486376,1177.926065,15.348884,0
0.025000,-129.925891,187.679736,-22.910417,2.430408,3.419933,-4.120884,0.416244,-3.054419,4.185335,-0.453301,-0.088257,0.388444,-0.031958,14.320798,188.364077,1178.331918,14.814237,0
0.026042,-163.556405,143.656922,43.837690,3.697128,4.080285,-3.100958,-1.221828,-3.841029,3.270456,1.058784,-0.128440,0.391057,-0.054364,8.597938,188.514365,1178.841654,14.290773,0
0.027083,-193.387182,66.689482,96.231629,4.737648,4.609277,-1.815137,-2.792734,-4.296822,1.944301,2.645584,-0.212459,0.391580,-0.024490,1.529188,188.496116,1178.531942,14.138648,0
0.028125,-168.615161,3.131846,151.112311,5.778168,3.998629,-0.382478,-3.527814,-3.815299,0.538409,3.406963,-0.164970,0.419212,-0.039427,-2.587651,188.495980,1179.202289,14.144074,0
0.029167,-121.895401,-57.441806,188.241099,6.479388,3.157213,1.454977,-4.259163,-2.855928,-1.266169,4.189689,-0.245336,0.375836,-0.058098,-8.265271,188.495904,1179.023194,13.956760,0
0.030208,-49.541590,-113.714657,189.804546,6.490698,1.605741,2.931290,-4.106177,-1.389304,-2.751798,3.983334,-0.216112,0.380997,-0.046895,-12.857131,188.495875,1179.314328,13.510483,0
0.031250,15.927322,-166.097457,161.760985,5.993058,-0.041588,4.054399,-3.471844,0.239053,-3.905888,3.403405,-0.197847,0.396936,-0.043161,-16.408471,188.495919,1179.635163,13.710531,0
0.032292,72.832647,-181.391882,99.580114,4.805508,-1.809627,4.403634,-2.031535,2.029144,-4.287787,2.058539,-0.124787,0.386680,-0.028224,-14.859001,188.495921,1179.954019,13.630722,0
0.033333,130.214357,-187.420253,23.796023,3.380448,-3.247489,4.276640,-0.572569,3.462686,-4.266804,0.667421,-0.157664,0.394650,-0.028224,-9.837361,188.495959,1181.145154,13.894672,0
0.034375,163.799501,-143.397438,-42.816667,2.102418,-3.985947,3.292431,1.128935,4.183133,-3.330942,-0.890916,-0.124787,0.398896,-0.065566,-6.014581,188.495986,1181.533651,14.342507,0
0.035417,193.233290,-67.130691,-95.850758,1.095828,-4.514939,1.958987,2.740887,4.763902,-1.979606,-2.573777,-0.077298,0.398765,-0.043161,3.825118,188.495987,1182.963279,13.040308,0
0.036458,167.916829,-3.391842,-151.654735,0.010068,-3.893640,0.466799,3.494624,4.183133,-0.569518,-3.306694,-0.022503,0.408238,-0.061832,7.704448,188.495834,1183.692181,12.080590,0
0.037500,121.798222,57.930827,-188.241857,-0.702462,-3.038023,-1.366687,4.203584,3.264196,1.331584,-4.064515,-0.037115,0.405233,-0.031958,13.755298,188.496053,1185.023908,11.232397,0
0.038542,48.831916,114.614428,-190.199243,-0.702462,-1.426196,-2.835063,4.009553,1.757138,2.817213,-3.865276,-0.069992,0.373615,-0.028224,17.860828,188.495986,1186.476522,10.290946,0
0.039583,-17.238149,165.897866,-162.069508,-0.148272,0.214032,-3.958172,3.371489,0.114078,3.983894,-3.249768,-0.080951,0.355455,-0.046895,21.084178,188.571395,1188.423486,10.615962,0
0.040625,-73.338156,182.666161,-97.315720,1.061898,2.053076,-4.327250,1.826702,-1.753203,4.315433,-1.823072,-0.099216,0.386942,-0.061832,20.405578,188.508596,1189.174719,9.785054,0
0.041667,-130.164084,187.691817,-22.245644,2.498268,3.505140,-4.180412,0.405050,-3.197773,4.277663,-0.442627,-0.121134,0.393605,-0.046895,14.558308,188.495517,1191.403631,9.146754,0
0.042708,-164.781395,142.231375,43.209849,3.742368,4.232947,-3.120801,-1.262873,-3.918220,3.316620,1.126383,-0.194194,0.395042,-0.050629,9.921208,188.495432,1192.772378,8.653030,0
0.043750,-194.090417,66.906939,96.354735,4.737648,4.690933,-1.787356,-2.841242,-4.458555,1.952695,2.791455,-0.179582,0.399157,-0.058098,1.427398,188.570915,1195.866051,7.403797,0
0.044792,-167.877898,4.158723,152.675758,5.766858,4.087386,-0.275326,-3.691994,-3.885138,0.496442,3.513698,-0.205153,0.393017,-0.080503,-2.779921,188.495390,1197.793810,6.588674,0
0.045833,-122.848171,-57.127703,188.278031,6.468078,3.143012,1.562128,-4.371104,-2.933119,-1.392069,4.271520,-0.219765,0.400137,-0.039427,-8.400991,188.570875,1199.971727,5.423488,0
0.046875,-50.086030,-114.741534,189.989205,6.502008,1.520534,3.074159,-4.180804,-1.363574,-2.907076,4.079396,-0.223418,0.398178,-0.024490,-13.026781,188.495465,1202.458535,4.109913,0
0.047917,16.732640,-165.698787,162.191857,5.993058,-0.109043,4.153614,-3.486769,0.319920,-4.048576,3.495909,-0.212459,0.398765,-0.065566,-16.453711,188.570841,1204.891964,3.205027,0
0.048958,73.309032,-182.829509,96.736364,4.748958,-2.008442,4.562378,-1.964370,2.161471,-4.447262,2.022961,-0.183235,0.390992,-0.069301,-15.356641,188.495408,1207.248617,2.191750,0
0.050000,130.259727,-187.335686,21.777083,3.346518,-3.346897,4.304420,-0.509136,3.624419,-4.317164,0.564243,-0.146705,0.390273,-0.028224,-10.097491,188.570834,1208.878849,0.503212,0
0.051042,164.706901,-141.150390,-43.653788,2.102418,-4.127958,3.280525,1.211026,4.377948,-3.305761,-1.011883,-0.113828,0.390469,-0.024490,-5.234191,188.495568,1210.879911,-1.106061,0
0.052083,193.902498,-64.629944,-96.109281,1.118448,-4.568193,1.955018,2.826709,4.892553,-1.962820,-2.676955,-0.077298,0.358068,-0.054364,4.062628,188.570832,1212.862246,-1.528236,0
0.053125,167.020772,-1.954214,-152.479546,0.066618,-3.957545,0.450925,3.591640,4.304433,-0.502371,-3.395640,-0.077298,0.375052,-0.020755,7.930648,188.495459,1214.865151,-1.654352,0
0.054167,121.287810,58.160364,-188.328031,-0.645912,-3.023822,-1.438121,4.259555,3.286250,1.360961,-4.153461,-0.040768,0.401444,-0.046895,13.698748,188.570857,1216.117982,-1.800182,0
0.055208,48.933999,115.206393,-190.137690,-0.691152,-1.397794,-2.958089,4.069255,1.735084,2.875967,-3.922201,-0.051727,0.398765,-0.054364,18.087028,188.570834,1217.245775,-2.294828,0
0.056257,-17.793931,166.030756,-161.983334,-0.182202,0.281487,-4.021669,3.360295,0.000130,4.076221,-3.264000,-0.051727,0.404449,-0.058098,20.677018,188.570888,1218.445592,-3.760730,0
0.057292,-73.202046,183.125235,-96.884849,1.061898,2.184437,-4.430433,1.834164,-1.837746,4.437137,-1.858650,-0.055380,0.398765,-0.031958,20.224618,188.495568,1220.551883,-4.271106,0
0.058333,-131.162224,187.353551,-22.331818,2.396478,3.526442,-4.228035,0.319228,-3.252909,4.336416,-0.375028,-0.161317,0.394389,-0.020755,13.936258,188.571049,1221.643982,-5.043089,0
0.059375,-165.666110,141.132013,43.677652,3.685818,4.321704,-3.156518,-1.386008,-4.006438,3.316620,1.247350,-0.146705,0.394519,-0.046895,8.236018,188.570946,1222.935659,-6.357037,0
0.060417,-194.668884,65.058560,96.637879,4.669788,4.754838,-1.735765,-2.949452,-4.487961,1.935908,2.851939,-0.186888,0.397328,-0.058098,1.348228,188.570866,1223.570264,-6.584502,0
0.061458,-167.254061,2.044565,152.995834,5.755548,4.158391,-0.219766,-3.792741,-3.870435,0.420902,3.584855,-0.164970,0.404775,-0.043161,-2.712061,188.495448,1223.947831,-7.272964,0
0.062500,-120.919946,-58.420360,188.622728,6.434148,3.107509,1.625626,-4.438268,-2.863280,-1.492790,4.310656,-0.212459,0.375118,-0.050629,-8.355751,188.646194,1224.098809,-8.279931,0
0.063542,-47.477255,-115.152285,190.136932,6.569868,1.545386,3.137656,-4.191998,-1.348871,-2.991009,4.107859,-0.223418,0.396283,-0.065566,-13.151191,188.570933,1224.883614,-8.302904,0
0.064583,18.796975,-165.747111,162.007197,6.004368,-0.169398,4.185362,-3.509157,0.349326,-4.094740,3.467446,-0.201500,0.413921,-0.031958,-16.295371,188.570803,1225.115426,-8.428249,0
0.065625,73.637965,-183.481878,95.825379,4.748958,-2.072347,4.641749,-2.005415,2.227634,-4.459852,2.015845,-0.168623,0.377143,-0.046895,-14.926861,188.495627,1225.656068,-8.872449,0
0.066667,131.019675,-186.949097,22.195644,3.380448,-3.425003,4.340137,-0.490479,3.679555,-4.363328,0.564243,-0.161317,0.397328,-0.050629,-9.724261,188.721715,1226.699372,-9.033887,0
0.067708,165.965919,-140.594669,-42.964394,2.113728,-4.191863,3.355928,1.281922,4.363245,-3.293171,-1.086597,-0.110175,0.401640,-0.035692,-5.403841,188.570982,1226.794010,-9.887180,0
0.068750,194.242773,-65.378960,-96.490909,1.118448,-4.600145,1.899458,2.878948,4.892553,-1.979606,-2.730323,-0.088257,0.402620,-0.031958,4.051318,188.570846,1227.490667,-10.342041,0
0.069792,166.555729,-2.352884,-153.846023,0.043998,-4.053402,0.351710,3.740894,4.293406,-0.418437,-3.470355,-0.051727,0.409871,-0.017021,7.715758,188.495343,1228.276826,-11.721423,0
0.070833,121.242440,58.643600,-188.364963,-0.657222,-2.995419,-1.541304,4.341645,3.330359,1.444895,-4.213945,-0.044421,0.402620,-0.024490,13.777918,188.721672,1229.681100,-12.239979,0
0.071875,47.652296,116.136622,-190.420834,-0.679842,-1.344540,-3.065240,4.136420,1.698326,3.018655,-3.964896,-0.059033,0.408695,-0.020755,18.041788,188.570836,1231.268227,-13.223170,0
0.072917,-19.132347,165.535439,-162.377273,-0.193512,0.370244,-4.093104,3.341638,-0.095440,4.155958,-3.317367,-0.029809,0.404971,-0.046895,21.072868,188.570837,1232.665986,-14.083230,0
0.073958,-73.723801,184.828643,-93.930303,1.129758,2.315797,-4.505836,1.804313,-1.918612,4.554644,-1.815956,-0.091910,0.367213,0.005384,20.484748,188.495434,1234.333460,-14.543252,0
0.075000,-130.878661,187.111933,-20.842235,2.486958,3.618749,-4.247878,0.285646,-3.433021,4.378383,-0.293198,-0.132093,0.390208,-0.046895,14.207698,188.721817,1236.001259,-16.315201,0
0.076042,-167.027211,139.078259,43.628409,3.731058,4.435313,-3.164455,-1.475561,-4.153468,3.283046,1.371875,-0.139399,0.390992,0.009119,9.276538,188.646277,1237.550195,-18.039374,0
0.077083,-194.873049,63.874632,96.687122,4.748958,4.843595,-1.735765,-3.042736,-4.594558,1.902334,2.976464,-0.201500,0.396087,-0.035692,1.133338,188.570930,1239.358539,-19.198374,0
0.078125,-166.539483,1.815028,154.571591,5.857338,4.218746,-0.148331,-3.934534,-3.954978,0.328575,3.748516,-0.212459,0.412092,-0.050629,-2.926951,188.495470,1241.978422,-20.514576,0
0.079167,-121.543784,-58.613654,188.290341,6.434148,3.160763,1.736746,-4.501702,-2.958849,-1.547347,4.399602,-0.267254,0.398112,-0.046895,-8.638501,188.721679,1243.990351,-20.557973,0
0.080208,-48.384655,-116.372456,190.457008,6.558558,1.495683,3.304337,-4.266625,-1.319465,-3.116910,4.146995,-0.208806,0.406082,-0.043161,-13.264291,188.646183,1245.713213,-21.862543,0
0.081257,19.307388,-165.239713,161.773296,6.015678,-0.322060,4.284577,-3.441993,0.500032,-4.178673,3.410521,-0.212459,0.401378,-0.043161,-16.306681,188.570888,1245.990255,-24.245180,0
0.082299,74.307173,-186.320890,91.849053,4.658478,-2.274713,4.736995,-1.897206,2.389367,-4.556376,1.912667,-0.161317,0.387464,-0.061832,-15.401881,188.570903,1247.675738,-25.812955,0
0.083333,131.291895,-186.332971,21.161553,3.323898,-3.527961,4.379823,-0.404658,3.767773,-4.413688,0.471739,-0.139399,0.394585,-0.035692,-9.871291,188.721806,1248.665810,-26.961686,0
0.084375,167.327019,-138.685886,-43.469129,2.102418,-4.291271,3.288462,1.371475,4.491896,-3.326745,-1.161312,-0.110175,0.393539,-0.054364,-4.476421,188.646116,1250.547264,-27.404057,0
0.085417,194.163375,-62.926537,-96.540152,1.095828,-4.642749,1.867709,2.946113,4.907256,-1.883082,-2.812153,-0.051727,0.408630,-0.020755,4.232278,188.570718,1250.482249,-28.544573,0
0.086458,165.863837,-0.226645,-154.166099,0.010068,-4.071154,0.268370,3.856567,4.300757,-0.342896,-3.584206,-0.055380,0.390208,-0.020755,8.032438,188.571017,1251.516719,-29.355078,0
0.087500,119.620462,59.622153,-188.044887,-0.611982,-2.949266,-1.557179,4.371496,3.308305,1.579189,-4.256639,-0.062686,0.370218,-0.002084,13.766608,188.721808,1252.078643,-30.468287,0
0.088542,46.143744,116.571535,-190.777841,-0.679842,-1.316138,-3.120801,4.170002,1.683623,3.094195,-4.032495,-0.051727,0.389555,-0.039427,18.358468,188.646368,1253.427161,-30.608835,0
0.089583,-19.722157,165.511277,-162.044887,-0.170892,0.405747,-4.128821,3.378952,-0.124846,4.202122,-3.267558,-0.080951,0.397720,-0.009553,20.688328,188.570745,1253.394755,-31.277370,0
0.090625,-73.746486,185.396445,-93.647159,1.129758,2.340649,-4.517742,1.808045,-1.944342,4.542054,-1.798167,-0.069992,0.393866,-0.039427,20.394268,188.570937,1253.400223,-31.629621,0
0.091667,-131.559211,186.507888,-21.950189,2.453028,3.664903,-4.220098,0.218481,-3.385236,4.378383,-0.325218,-0.128440,0.395369,-0.013287,13.642198,188.721699,1253.064380,-31.008625,0
0.092708,-167.968638,138.933288,43.160606,3.708438,4.453064,-3.116832,-1.550188,-4.149792,3.257866,1.386106,-0.139399,0.395826,-0.065566,7.930648,188.721795,1253.040826,-31.359997,0
0.093750,-194.827679,64.140412,97.167235,4.737648,4.786790,-1.735765,-3.012885,-4.594558,1.877154,2.976464,-0.190541,0.400464,-0.058098,1.314298,188.570910,1253.021482,-31.593855,0
0.094792,-166.289948,1.198902,154.694697,5.823408,4.151291,-0.068960,-3.934534,-3.932923,0.315985,3.727169,-0.190541,0.406931,-0.028224,-2.813851,188.646303,1252.534599,-31.493732,0
0.095833,-120.375506,-59.060648,188.425758,6.434148,3.075556,1.697060,-4.468119,-2.951498,-1.576724,4.339119,-0.227071,0.414247,-0.043161,-8.457541,188.721654,1251.751676,-31.373336,0
0.096875,-46.467773,-116.360375,190.543182,6.513318,1.421127,3.288462,-4.266625,-1.260653,-3.087533,4.118532,-0.234377,0.397067,-0.017021,-13.456561,188.721741,1250.826764,-31.311560,0
0.097917,20.362240,-165.372603,161.650190,5.970438,-0.293658,4.292514,-3.400948,0.503707,-4.182870,3.424752,-0.205153,0.398831,-0.050629,-16.159651,188.571053,1251.042163,-30.931530,0
0.098958,74.227775,-185.414823,92.279925,4.703718,-2.168205,4.689372,-1.882280,2.356285,-4.552179,1.934014,-0.194194,0.392102,-0.039427,-15.062581,188.646346,1250.740991,-30.515856,0
0.100000,131.416663,-186.175920,20.349053,3.380448,-3.456956,4.375854,-0.397195,3.749395,-4.317164,0.493086,-0.135746,0.390143,-0.039427,-9.509371,188.721806,1249.547260,-30.262411,0
0.101042,167.644609,-138.106002,-43.518371,2.147658,-4.255768,3.280525,1.386400,4.466166,-3.230221,-1.193333,-0.095563,0.395238,-0.039427,-4.827031,188.721831,1248.505427,-31.141035,0
0.102083,194.344855,-63.216479,-97.278788,1.095828,-4.607246,1.875646,2.949844,4.907256,-1.899869,-2.794364,-0.084604,0.400268,-0.017021,4.175728,188.570881,1248.680704,-30.722214,0
0.103125,165.705042,-1.265603,-155.274054,-0.023862,-4.035651,0.216778,3.849104,4.286054,-0.317716,-3.577090,-0.077298,0.405559,-0.020755,7.840168,188.721684,1248.683470,-31.182939,0
0.104167,120.732027,59.259726,-187.958713,-0.668532,-2.967017,-1.569084,4.371496,3.264196,1.554009,-4.256639,-0.051727,0.406931,-0.043161,13.845778,188.721697,1248.409156,-31.635532,0
0.105208,47.141884,117.151418,-190.433145,-0.702462,-1.301937,-3.188267,4.143882,1.613784,3.106785,-3.989800,-0.044421,0.406017,-0.031958,18.222748,188.646174,1247.883979,-32.736308,0
0.106250,-19.994377,165.197174,-161.774054,-0.159582,0.444800,-4.144695,3.281936,-0.117494,4.185335,-3.271115,-0.051727,0.397263,-0.039427,21.061558,188.571051,1247.605443,-32.459353,0
0.107292,-74.302269,186.230027,-91.751326,1.174998,2.383252,-4.529648,1.748343,-1.999479,4.567234,-1.780378,-0.073645,0.383022,-0.043161,20.518678,188.721717,1248.145927,-32.604210,0
0.108333,-131.457129,186.169623,-20.128220,2.486958,3.672003,-4.168507,0.199824,-3.418318,4.319629,-0.243388,-0.146705,0.387399,-0.028224,13.992808,188.797141,1247.482871,-33.535870,0
0.109375,-168.603818,137.386933,43.923864,3.719748,4.477916,-3.089052,-1.598696,-4.197577,3.220096,1.453705,-0.132093,0.391972,-0.039427,8.812828,188.646216,1247.774244,-34.227176,0
0.110417,-194.646199,62.026253,97.327273,4.726338,4.776140,-1.676236,-3.098707,-4.561476,1.835187,3.019158,-0.194194,0.402620,-0.013287,0.952378,188.570846,1247.209908,-34.520909,0
0.111458,-165.711480,-0.262888,155.544129,5.812098,4.140640,-0.021337,-3.994235,-3.925572,0.206871,3.809000,-0.248989,0.393605,-0.043161,-3.073981,188.721744,1247.941521,-35.730134,0
