1-Time,2-VGERA,3-VGERB,4-VGERC,5-VN,6-IGERAN,7-IGERBN,8-IGERCN,9-IGERAT,10-IGERBT,11-IGERCT,12-IN,13-IFD,14-IFAULT,15-VFAULT,16-Speed (rad/s),17-Active Power,18-Reactive Power,19-FAULT 
0.000000,-114.990939,-65.867425,185.621800,3.793393,3.928389,2.105608,-5.742484,-3.837539,-2.236186,5.703620,0.121129,0.482803,-0.003573,-55.395747,188.570988,1615.005351,-8.477589,0
0.001042,-38.750342,-123.570659,193.544690,3.962282,2.042280,4.084264,-5.699957,-1.957576,-4.207575,5.593193,0.102898,0.474052,-0.018440,-13.199546,188.570980,1614.771140,-8.652240,0
0.002083,27.071723,-162.986913,155.898811,3.252946,-0.133718,5.241206,-4.509190,0.309774,-5.311898,4.355644,0.099252,0.474190,-0.003573,26.395981,188.571049,1615.642143,-9.482314,0
0.003125,79.356477,-197.000463,80.254655,1.823015,-2.551900,5.797192,-2.637985,2.786009,-5.868373,2.489802,0.008098,0.462270,-0.018440,56.545775,188.495696,1615.512793,-9.440340,0
0.004167,137.257294,-175.589309,16.750018,0.629529,-4.052714,5.257558,-0.554143,4.346948,-5.156603,0.414528,-0.006487,0.460686,-0.007290,88.868425,188.496241,1615.239069,-9.040058,0
0.005208,183.993786,-127.775373,-44.700985,-0.552697,-5.322352,4.022942,1.800328,5.653427,-3.953063,-1.950142,-0.032010,0.453313,-0.018440,114.785088,188.571549,1615.238939,-9.436217,0
0.006250,191.847234,-54.310335,-101.838146,-1.667368,-5.535182,2.130137,3.683132,5.877504,-2.029126,-3.808368,-0.072118,0.459652,-0.011006,113.715547,188.571473,1615.813133,-9.344641,0
0.007292,164.987311,7.362713,-161.818797,-2.838335,-5.142548,0.090159,5.159992,5.421755,0.011284,-5.221078,-0.123164,0.483009,-0.011006,91.007506,188.496036,1615.565992,-9.698588,0
0.008333,114.431445,66.381389,-185.526709,-3.277448,-3.649072,-2.027494,5.658723,3.921582,2.133654,-5.620901,-0.152334,0.444219,-0.014723,53.438477,188.571386,1614.965932,-9.145459,0
0.009375,37.388554,123.098042,-193.486054,-3.435078,-1.792319,-4.075648,5.596865,1.996044,4.135240,-5.601862,-0.108580,0.487901,-0.018440,12.120426,188.571500,1615.149007,-9.526351,0
0.010417,-28.128413,162.537786,-155.852326,-2.714483,0.409364,-5.232589,4.475688,-0.214337,5.209366,-4.307196,-0.086703,0.457930,-0.018440,-26.180395,188.571440,1614.428567,-9.445137,0
0.011458,-79.237975,196.574826,-78.956548,-1.250774,2.787183,-5.796752,2.608349,-2.739944,5.830548,-2.452777,-0.035656,0.458825,-0.051890,-55.981180,188.496074,1613.880995,-9.607789,0
0.012500,-136.698095,175.797903,-15.536973,-0.079807,4.328361,-5.273471,0.539971,-4.262904,5.114464,-0.339425,-0.021072,0.456001,0.003860,-88.348863,188.586733,1613.287508,-9.169148,0
0.013542,-183.400687,127.103091,45.209233,1.079901,5.583321,-4.042943,-1.845429,-5.569384,3.910924,1.949088,0.026329,0.453245,-0.003573,-114.580759,188.520521,1612.721387,-8.708401,0
0.014583,-192.248528,54.119598,101.860327,2.205831,5.869540,-2.150138,-3.705036,-5.747885,1.991300,3.795892,0.077375,0.455036,-0.051890,-111.878762,188.517860,1611.416025,-8.319557,0
0.015625,-164.857509,-7.083649,162.108315,3.388058,5.363153,-0.093807,-5.197361,-5.349105,-0.044795,5.288566,0.117483,0.480322,0.029877,-91.062119,188.511274,1610.739560,-7.759839,0
0.016667,-114.923139,-65.702995,185.561042,3.838430,3.972423,2.052463,-5.684493,-3.867922,-2.214617,5.676966,0.117483,0.470401,0.018727,-54.416273,188.573403,1610.487717,-7.251143,0
0.017708,-38.230546,-123.159584,193.350263,3.996060,2.053288,4.047471,-5.641965,-1.927192,-4.224830,5.638887,0.146652,0.483974,0.007577,-13.627363,188.503899,1610.817120,-7.487351,0
0.018750,27.218622,-162.822483,156.482091,3.275465,-0.130048,5.228941,-4.540119,0.271795,-5.234250,4.408954,0.084667,0.475155,-0.033307,26.092007,188.571156,1610.541381,-6.448744,0
0.019792,79.424277,-196.460192,80.837935,1.800497,-2.515205,5.817632,-2.657315,2.770817,-5.885628,2.569767,0.048206,0.467782,0.011294,57.885515,188.495638,1611.033569,-5.645166,0
0.020833,137.234695,-176.106090,17.357602,0.629529,-4.045376,5.237118,-0.616001,4.365937,-5.173858,0.422144,0.000805,0.460272,-0.040740,89.352533,188.571208,1611.576050,-5.913263,0
0.021875,183.745187,-128.174703,-44.227070,-0.552697,-5.300335,4.035207,1.769399,5.645832,-3.948749,-1.923487,-0.046595,0.459859,-0.003573,115.809596,188.495709,1611.332695,-5.917763,0
0.022917,192.400930,-55.473091,-101.753084,-1.667368,-5.575546,2.215988,3.686998,5.866110,-2.063636,-3.743635,-0.068472,0.462270,-0.003573,114.706280,188.571073,1611.222487,-5.383107,0
0.023958,164.987311,6.293917,-162.086134,-2.793298,-5.127870,0.106512,5.171591,5.421755,0.019911,-5.209654,-0.093995,0.473294,-0.033307,91.030023,188.495676,1611.188551,-5.752414,0
0.025000,115.617937,65.676688,-185.708984,-3.266189,-3.707784,-2.072463,5.662589,3.955764,2.176792,-5.624709,-0.108580,0.478255,-0.048173,56.737166,188.646313,1611.929546,-6.453299,0
0.026042,38.428148,123.027572,-193.340234,-3.468856,-1.799658,-4.075648,5.639392,2.011236,4.152495,-5.598054,-0.101287,0.476877,-0.044457,13.133675,188.495642,1612.133760,-6.795761,0
0.027083,-27.416517,162.749197,-156.034601,-2.759520,0.332306,-5.240766,4.452491,-0.183954,5.235249,-4.333851,-0.093995,0.465715,0.015011,-26.304236,188.570957,1612.720443,-6.644350,0
0.028125,-79.102376,196.351670,-79.503373,-1.284552,2.809200,-5.829457,2.581286,-2.709561,5.817607,-2.426122,-0.046595,0.456827,-0.025873,-56.431513,188.495584,1612.228996,-6.830546,0
0.029167,-136.698095,175.856628,-15.694945,-0.068547,4.365056,-5.236678,0.524507,-4.281894,5.136032,-0.312770,-0.002841,0.455449,-0.029590,-88.889263,188.571069,1612.610470,-7.245240,0
0.030208,-183.457186,127.291011,45.282144,1.113679,5.616346,-4.030678,-1.826098,-5.531405,3.902297,1.968128,0.055498,0.451798,-0.025873,-114.321818,188.571049,1612.249180,-7.428636,0
0.031250,-192.282428,53.673288,101.811720,2.239609,5.862201,-2.133785,-3.763028,-5.766875,1.995614,3.845394,0.088314,0.456207,0.015011,-113.646319,188.571138,1612.781533,-7.684295,0
0.032292,-164.891409,-7.659155,161.865282,3.376799,5.403517,-0.101983,-5.201227,-5.318722,-0.036168,5.284758,0.095606,0.448077,-0.022156,-91.782652,188.495738,1612.369746,-7.574560,0
0.033333,-114.358143,-65.914405,185.670407,3.815911,3.943067,2.064727,-5.723154,-3.818549,-2.201676,5.699813,0.091960,0.472399,-0.025873,-55.350714,188.570975,1612.153353,-7.697333,0
0.034375,-37.529951,-122.901194,193.544690,4.007319,2.067966,4.067912,-5.641965,-1.919596,-4.160124,5.635079,0.117483,0.457379,-0.048173,-13.120738,188.571136,1611.471445,-7.119364,0
0.035417,27.783618,-162.575838,156.311968,3.320502,-0.093353,5.220765,-4.528521,0.283189,-5.268760,4.401339,0.059144,0.481011,0.018727,26.170815,188.571094,1611.666871,-7.235141,0
0.036458,79.141778,-196.460192,80.692115,1.856793,-2.526214,5.805368,-2.630253,2.744232,-5.842491,2.516457,0.033621,0.465371,-0.018440,56.421933,188.495678,1610.639589,-7.559380,0
0.037500,136.703598,-176.129580,17.223934,0.607011,-4.049045,5.249382,-0.554143,4.324160,-5.169544,0.418336,0.015390,0.461099,-0.025873,88.654517,188.495685,1610.066159,-7.408833,0
0.038542,183.259290,-128.315644,-44.105553,-0.530179,-5.285657,3.994325,1.769399,5.634438,-3.940122,-1.919679,-0.050241,0.459170,-0.029590,114.728796,188.571094,1609.710140,-7.537434,0
0.039583,192.321831,-55.978126,-101.424989,-1.656109,-5.582885,2.162842,3.679266,5.816737,-2.093832,-3.743635,-0.068472,0.462684,-0.007290,113.929455,188.571049,1609.228278,-7.538917,0
0.040625,165.269809,5.436531,-161.782342,-2.815817,-5.098514,0.110600,5.125197,5.414159,-0.040481,-5.217270,-0.104934,0.470056,-0.025873,91.379031,188.495611,1609.210687,-7.333788,0
0.041667,116.442832,65.171653,-185.587467,-3.254929,-3.726131,-2.043846,5.654857,3.906391,2.129341,-5.586631,-0.123164,0.477428,-0.033307,54.721926,188.571029,1608.287359,-7.618560,0
0.042708,39.456441,122.710457,-193.243020,-3.446337,-1.847361,-4.030678,5.592998,2.018832,4.048964,-5.537129,-0.115872,0.477360,-0.029590,13.043608,188.495696,1606.784272,-7.311779,0
0.043750,-26.625523,162.385101,-156.739398,-2.759520,0.295611,-5.208061,4.525948,-0.180156,5.200739,-4.288157,-0.097641,0.472330,-0.022156,-25.639995,188.571031,1606.040808,-7.953302,0
0.044792,-78.819878,195.811400,-80.463355,-1.307070,2.717463,-5.731342,2.619947,-2.663986,5.787410,-2.448969,-0.050241,0.460135,-0.025873,-55.801047,188.495595,1605.487017,-7.667156,0
0.045833,-136.438197,176.396898,-16.509107,-0.091066,4.287997,-5.236678,0.536105,-4.224925,5.097208,-0.328001,-0.010133,0.455174,-0.033307,-88.022372,188.571093,1604.706342,-7.687718,0
0.046875,-182.666191,127.666851,44.868987,1.102420,5.553965,-4.030678,-1.806768,-5.489628,3.876414,1.975743,0.066437,0.448697,-0.007290,-114.389368,188.495723,1603.826138,-8.186577,0
0.047917,-192.598826,54.636379,101.277047,2.183313,5.836515,-2.162402,-3.701170,-5.736492,2.047379,3.799700,0.088314,0.449111,0.011294,-111.991345,188.571069,1603.487306,-7.718984,0
0.048958,-164.834909,-6.895729,161.452125,3.331761,5.315450,-0.081543,-5.120038,-5.292137,-0.040481,5.200985,0.113837,0.464820,0.018727,-90.600528,188.495626,1602.213828,-7.750514,0
0.050000,-114.945739,-65.562055,185.828378,3.770874,3.946736,2.023846,-5.649697,-3.826145,-2.197362,5.657926,0.106545,0.475775,0.003860,-53.988456,188.571122,1601.913678,-7.841158,0
0.051042,-37.688149,-122.525354,193.435325,3.996060,2.034941,4.076088,-5.591706,-1.915799,-4.129927,5.600809,0.088314,0.477497,0.000144,-12.895571,188.495539,1601.153046,-7.878502,0
0.052083,27.953117,-162.493623,156.749428,3.241687,-0.019964,5.163531,-4.524655,0.260401,-5.186799,4.401339,0.081021,0.458205,0.011294,26.305915,188.571000,1600.347034,-7.317824,0
0.053125,79.062679,-196.096097,80.558446,1.845534,-2.478511,5.723605,-2.637985,2.755625,-5.829549,2.524072,0.000805,0.465302,-0.011006,57.615316,188.495624,1600.146023,-7.338837,0
0.054167,136.229001,-176.740320,16.810777,0.663307,-4.045376,5.224853,-0.608268,4.278586,-5.186799,0.433567,0.000805,0.455174,-0.040740,88.879683,188.571000,1599.997488,-6.808954,0
0.055208,182.694294,-128.068998,-44.251374,-0.518919,-5.270979,4.010678,1.699809,5.596459,-3.978946,-1.873985,-0.032010,0.454278,0.015011,115.550654,188.495702,1599.509896,-5.810157,0
0.056250,192.672128,-55.332151,-101.072590,-1.633590,-5.560868,2.195547,3.644471,5.843323,-2.063636,-3.743635,-0.053887,0.448284,-0.014723,114.965221,188.495604,1599.645289,-5.984903,0
0.057292,164.953411,5.694922,-161.587915,-2.804557,-5.113192,0.126952,5.117465,5.406564,-0.001658,-5.175384,-0.097641,0.470056,-0.007290,91.153865,188.495700,1598.981737,-6.113911,0
0.058333,116.182934,65.042458,-185.672529,-3.254929,-3.748148,-2.060199,5.639392,3.932976,2.159537,-5.617093,-0.072118,0.470607,-0.025873,57.727899,188.646440,1599.611128,-6.207797,0
0.059375,39.580740,122.628242,-193.048593,-3.435078,-1.832683,-4.030678,5.612329,2.053013,4.126612,-5.575207,-0.093995,0.475844,-0.022156,14.113149,188.495729,1600.713220,-6.376016,0
0.060417,-26.173526,162.596511,-156.945977,-2.725742,0.324967,-5.224413,4.487286,-0.149772,5.235249,-4.356698,-0.017425,0.479289,0.011294,-25.662512,188.495611,1601.795550,-5.874178,0
0.061458,-78.684279,195.693950,-81.362579,-1.295811,2.783513,-5.809016,2.596750,-2.675380,5.774469,-2.464200,-0.035656,0.464337,-0.011006,-56.251380,188.495544,1601.882075,-6.172015,0
0.062500,-136.630296,176.396898,-17.420482,-0.113585,4.339370,-5.236678,0.524507,-4.251511,5.110150,-0.339425,0.000805,0.456483,-0.018440,-88.832971,188.420178,1602.351726,-6.453669,0
0.063542,-183.050389,128.395042,44.322161,1.068642,5.594330,-4.055207,-1.787437,-5.542798,3.919552,1.994782,0.077375,0.452004,-0.003573,-114.231751,188.495604,1603.596608,-6.810788,0
0.064583,-192.576226,55.505509,101.313502,2.183313,5.840184,-2.137873,-3.751429,-5.785864,2.008555,3.822547,0.070083,0.458550,0.026161,-113.871485,188.495671,1604.275275,-7.646281,0
0.065625,-165.399906,-6.061833,161.707310,3.331761,5.341136,-0.089719,-5.201227,-5.352903,-0.062050,5.265719,0.117483,0.477980,-0.018440,-91.816427,188.495604,1605.814337,-8.278253,0
0.066667,-115.567235,-65.186214,185.621800,3.827171,3.950406,2.064727,-5.703823,-3.833741,-2.205990,5.688389,0.110191,0.487557,-0.007290,-55.497072,188.495381,1606.287259,-8.645779,0
0.067708,-38.332245,-122.443138,193.508235,3.984801,2.064297,4.096529,-5.641965,-1.927192,-4.194634,5.604617,0.146652,0.454898,-0.003573,-12.715438,188.495569,1606.977534,-9.279206,0
0.068750,27.422020,-162.376173,156.737276,3.230428,-0.108031,5.241206,-4.528521,0.286987,-5.221309,4.382299,0.055498,0.487488,-0.014723,26.339690,188.420325,1607.148698,-10.076477,0
0.069792,78.734981,-196.213547,80.509840,1.811756,-2.489519,5.789016,-2.618654,2.774615,-5.846804,2.485994,0.011744,0.455794,-0.022156,56.095442,188.495597,1607.209678,-10.746764,0
0.070833,136.183802,-176.552400,16.409772,0.607011,-4.082070,5.216677,-0.569607,4.346948,-5.156603,0.395489,-0.006487,0.456483,-0.018440,88.271734,188.495770,1607.368982,-11.657010,0
0.071875,182.660394,-128.010273,-44.336435,-0.552697,-5.252632,4.047471,1.777132,5.630640,-3.940122,-1.889216,-0.032010,0.453245,-0.029590,114.559922,188.495700,1607.467383,-12.215457,0
0.072917,192.638228,-54.768390,-100.756647,-1.644849,-5.557198,2.183283,3.663801,5.866110,-2.020498,-3.747443,-0.086703,0.459997,-0.011006,114.087072,188.495747,1607.409881,-12.577202,0
0.073958,165.100310,6.223447,-161.186910,-2.793298,-5.116862,0.090159,5.129063,5.459734,-0.062050,-5.190615,-0.072118,0.471916,-0.011006,91.345256,188.495597,1608.019313,-11.576103,0
0.075000,115.719637,65.054203,-185.648225,-3.277448,-3.744479,-2.056111,5.670321,3.982349,2.107772,-5.636133,-0.097641,0.484939,-0.003573,55.003384,188.495600,1608.243966,-10.482072,0
0.076042,38.993144,122.123207,-193.340234,-3.480115,-1.806997,-4.034767,5.654857,2.060609,4.126612,-5.571399,-0.134103,0.469712,-0.029590,13.550233,188.495653,1608.123809,-10.363372,0
0.077083,-26.478624,162.232416,-157.213314,-2.782039,0.324967,-5.220325,4.510483,-0.187751,5.157601,-4.352890,-0.093995,0.461926,-0.018440,-25.122112,188.495531,1607.273903,-10.493787,0
0.078125,-78.322681,195.470795,-81.702826,-1.307070,2.765166,-5.829457,2.631546,-2.675380,5.787410,-2.490855,-0.061180,0.463166,-0.048173,-55.654688,188.495721,1607.497331,-10.452701,0
0.079167,-136.257398,176.913679,-17.785033,-0.102325,4.328361,-5.306176,0.582499,-4.221127,5.153287,-0.385119,-0.021072,0.459032,0.011294,-87.999855,188.495580,1607.823134,-9.806356,0
0.080208,-182.587092,128.829607,43.872550,1.113679,5.575982,-4.018414,-1.768106,-5.516213,3.932493,1.922433,0.040913,0.454209,0.007577,-114.411885,188.495769,1607.310130,-9.116167,0
0.081250,-192.994323,56.550815,101.021862,2.160794,5.851193,-2.191019,-3.705036,-5.778269,2.038752,3.776852,0.081021,0.463442,-0.051890,-112.239028,188.420262,1607.250901,-8.810131,0
0.082292,-165.286906,-4.934313,161.622248,3.320502,5.300772,-0.155129,-5.170298,-5.356701,-0.040481,5.227640,0.110191,0.471641,-0.044457,-90.949536,188.495598,1606.832286,-8.711363,0
0.083333,-116.957126,-64.375809,185.949895,3.827171,4.016456,2.007493,-5.645831,-3.867922,-2.154225,5.676966,0.110191,0.480184,0.003860,-55.114289,188.495626,1607.064207,-8.473931,0
0.084375,-39.541337,-122.173003,193.423173,3.984801,2.067966,4.047471,-5.649697,-1.915799,-4.134241,5.593193,0.081021,0.477153,-0.011006,-13.514779,188.495589,1606.458172,-8.626331,0
0.085417,26.506726,-162.493623,157.563590,3.297983,-0.038311,5.159443,-4.571048,0.222422,-5.182485,4.378491,0.099252,0.459446,-0.014723,25.979423,188.495749,1606.172021,-8.259646,0
0.086458,78.655882,-195.696766,81.688552,1.823015,-2.452824,5.789016,-2.672780,2.736636,-5.851118,2.527880,0.044560,0.461995,-0.051890,57.311341,188.495750,1606.249931,-7.856068,0
0.087500,136.048202,-177.351061,17.078114,0.618270,-4.030698,5.241206,-0.608268,4.305171,-5.204054,0.467838,0.011744,0.455518,0.007577,88.643258,188.420254,1606.728379,-6.887287,0
0.088542,182.163198,-128.456584,-44.154160,-0.575216,-5.270979,4.051559,1.742336,5.619246,-3.944436,-1.877793,-0.039302,0.450902,-0.018440,115.348004,188.495747,1606.519684,-6.922667,0
0.089583,193.033726,-55.073761,-100.416400,-1.667368,-5.593893,2.187371,3.686998,5.877504,-2.080891,-3.739827,-0.079410,0.462684,-0.055607,115.201646,188.420236,1606.963834,-6.396500,0
0.090625,164.919512,6.176467,-160.919573,-2.793298,-5.102184,0.139217,5.121331,5.429351,-0.018913,-5.190615,-0.083057,0.466956,-0.014723,90.906182,188.495689,1606.510987,-7.091952,0
0.091667,115.742237,65.007223,-185.818349,-3.288707,-3.733470,-2.035670,5.674187,3.959561,2.163851,-5.678019,-0.108580,0.460892,-0.011006,57.288824,188.420421,1607.142175,-7.976419,0
0.092708,38.405548,122.029247,-193.352385,-3.435078,-1.832683,-4.047031,5.623927,2.094790,4.092102,-5.575207,-0.104934,0.478255,-0.003573,13.730366,188.495651,1606.921967,-7.127152,0
0.093750,-27.077520,162.455571,-157.492802,-2.748261,0.299280,-5.244854,4.553010,-0.134581,5.256818,-4.413815,-0.050241,0.467989,-0.011006,-25.696287,188.420273,1608.635705,-6.330188,0
0.094792,-78.288781,195.529520,-81.666371,-1.318330,2.702785,-5.837633,2.635412,-2.656390,5.834862,-2.506087,-0.021072,0.478875,-0.003573,-55.992438,188.495698,1609.172734,-5.980515,0
0.095833,-135.873201,177.266029,-17.505544,-0.113585,4.328361,-5.347057,0.613428,-4.247713,5.200739,-0.427005,-0.017425,0.461306,-0.014723,-88.652838,188.344831,1609.987032,-5.518460,0
0.096875,-182.270694,128.911822,43.921156,1.068642,5.605338,-4.051119,-1.795169,-5.576980,3.971317,1.926241,0.051852,0.456483,-0.029590,-114.119168,188.495667,1610.904670,-5.483887,0
0.097917,-193.163822,56.492090,100.839586,2.205831,5.858532,-2.227812,-3.747563,-5.808652,2.025810,3.814931,0.077375,0.463442,0.018727,-114.164201,188.420263,1611.479051,-5.971871,0
0.098958,-165.479005,-4.675922,161.622248,3.320502,5.403517,-0.187834,-5.147101,-5.406074,0.019911,5.231448,0.117483,0.468471,0.007577,-92.142918,188.495604,1612.078502,-5.147882,0
0.100000,-117.183124,-64.281848,185.706862,3.782133,4.045812,2.007493,-5.696091,-3.890709,-2.171480,5.657926,0.128422,0.451729,-0.007290,-56.758004,188.420157,1612.053457,-5.190946,0
0.101042,-40.275832,-122.126023,193.338111,3.962282,2.089983,4.010678,-5.661296,-2.022140,-4.134241,5.612232,0.117483,0.478324,-0.014723,-13.649879,188.420218,1612.661679,-4.207035,0
0.102083,25.919130,-162.282213,157.879533,3.275465,-0.008955,5.204413,-4.578780,0.203433,-5.199740,4.412762,0.091960,0.477153,-0.018440,25.776774,188.420251,1613.147850,-4.141207,0
0.103125,78.305584,-195.262201,82.539169,1.890571,-2.430807,5.817632,-2.719174,2.721444,-5.825236,2.584998,0.044560,0.466198,0.007577,55.937825,188.495559,1613.034926,-3.802205,0
0.104167,136.183802,-177.268846,17.637090,0.629529,-3.990333,5.327057,-0.677859,4.293777,-5.221309,0.464030,0.019036,0.460066,-0.003573,88.057825,188.420256,1613.131890,-3.844553,0
0.105208,181.948499,-129.137794,-43.801762,-0.530179,-5.278318,4.088352,1.695943,5.558480,-3.966004,-1.877793,-0.042949,0.455449,-0.025873,114.413563,188.420283,1612.683765,-3.795180,0
0.106250,193.022426,-56.224772,-100.185518,-1.644849,-5.590224,2.236428,3.617408,5.824333,-2.115401,-3.701749,-0.079410,0.462202,-0.018440,114.368530,188.420233,1612.047103,-3.584049,0
0.107292,165.292409,5.460021,-160.798057,-2.782039,-5.138878,0.233244,5.059473,5.376180,-0.100874,-5.133497,-0.119518,0.478324,-0.003573,91.243931,188.495151,1611.010213,-2.935386,0
0.108333,116.521931,64.572657,-185.599619,-3.299967,-3.748148,-2.019317,5.643258,3.974753,2.056007,-5.598054,-0.112226,0.468471,-0.022156,54.868284,188.495636,1609.769671,-1.886350,0
0.109375,39.015744,121.488976,-193.243020,-3.423819,-1.873048,-4.022502,5.612329,2.068204,4.070533,-5.598054,-0.112226,0.475844,-0.003573,12.818442,188.495615,1609.671203,-2.276090,0
0.110417,-26.908021,161.880066,-157.796594,-2.770779,0.262586,-5.191708,4.533680,-0.107995,5.140346,-4.413815,-0.068472,0.467438,-0.011006,-25.583703,188.420349,1608.295053,-1.674029,0
0.111458,-78.130582,194.766094,-81.812191,-1.340848,2.699116,-5.755870,2.681805,-2.546251,5.739959,-2.502279,-0.064826,0.454760,-0.029590,-55.452039,188.495723,1606.298023,-0.694673,0
