1-Time,2-VGERA,3-VGERB,4-VGERC,5-VN,6-IGERAN,7-IGERBN,8-IGERCN,9-IGERAT,10-IGERBT,11-IGERCT,12-IN,13-IFD,14-IFAULT,15-VFAULT,16-Speed (rad/s),17-Active Power,18-Reactive Power,19-FAULT 
0.000000,-99.074290,-107.505073,178.023296,6.309738,4.882648,-0.632499,-4.214386,-4.892294,0.802801,4.018913,-0.219765,0.544375,-0.024490,-130.096589,188.567483,1064.243264,966.103422,0
0.001042,-15.275896,-151.334592,180.596213,6.366288,3.934724,1.304170,-5.039019,-3.940275,-1.106694,4.798081,-0.248989,0.547706,-0.046895,-61.433580,188.521082,1064.232153,966.221234,0
0.002083,60.991077,-169.757971,146.138826,5.665068,2.390353,3.010661,-4.979317,-2.436893,-2.890289,4.869238,-0.227071,0.560837,-0.028224,11.414128,188.517962,1064.449957,966.522796,0
0.003125,117.714922,-189.957242,63.350000,4.104288,0.316990,4.677467,-4.423343,-0.315985,-4.560573,4.303540,-0.245336,0.560053,-0.054364,79.285437,188.509271,1065.556074,965.458287,0
0.004167,157.617839,-167.003525,-12.840341,2.645298,-1.330339,5.141791,-3.240499,1.349130,-5.089356,3.232628,-0.208806,0.556003,-0.043161,133.177586,188.493876,1065.897881,965.005160,0
0.005208,179.497522,-116.167081,-83.380114,1.355958,-3.325595,5.094168,-1.206902,3.267871,-4.992832,1.243792,-0.179582,0.541697,-0.046895,174.787075,188.647166,1066.479012,964.624075,0
0.006250,184.011837,-34.415603,-135.663258,0.326748,-4.429732,4.316325,0.550573,4.502923,-4.312968,-0.435512,-0.117481,0.546792,-0.054364,192.769974,188.495948,1065.988735,964.261446,0
0.007292,152.547741,36.209361,-175.475758,-0.397092,-5.086533,2.899541,2.483423,5.024880,-2.991009,-2.207319,-0.099216,0.562666,-0.020755,183.835074,188.494252,1065.014725,964.383389,0
0.008333,100.281499,106.870569,-177.765531,-0.521502,-4.820262,0.820003,4.020747,4.855795,-0.917843,-3.829697,-0.033462,0.558354,-0.046895,135.733645,188.483206,1064.924813,964.915775,0
0.009375,16.244913,151.437024,-180.326137,-0.589362,-3.872338,-1.132540,4.864037,3.911128,1.058799,-4.644444,-0.066339,0.563319,-0.043161,64.525887,188.701183,1064.774140,964.370751,0
0.010417,-61.757463,169.969131,-145.917993,0.100548,-2.320867,-2.854905,4.819260,2.470234,2.813017,-4.708485,-0.015197,0.555741,-0.046895,-3.752581,188.485511,1064.018485,964.581454,0
0.011458,-118.322513,189.769732,-62.205871,1.717878,-0.290107,-4.525679,4.289406,0.323596,4.474907,-4.203271,-0.033462,0.554762,-0.031958,-73.851960,188.561057,1063.426015,964.518146,0
0.012500,-157.612935,167.625435,13.467424,3.154248,1.350121,-5.065407,3.166263,-1.297410,5.075034,-3.150149,-0.051727,0.560902,-0.028224,-128.739389,188.481226,1062.740219,965.040370,0
0.013542,-179.515304,117.078933,82.948485,4.443588,3.356028,-4.918569,1.136398,-3.234531,5.003690,-1.211122,-0.102869,0.552410,-0.031958,-169.421458,188.704371,1061.851911,966.756989,0
0.014583,-184.789566,36.704679,135.625569,5.450178,4.481467,-4.172475,-0.583763,-4.465907,4.340613,0.517991,-0.143052,0.556133,-0.035692,-187.121607,188.478161,1060.991327,968.386625,0
0.015625,-152.610892,-35.237105,175.401137,6.207948,5.131167,-2.815220,-2.542733,-5.098136,2.947311,2.346725,-0.168623,0.564299,-0.031958,-176.965228,188.480873,1060.353473,969.866956,0
0.016667,-99.924978,-106.973513,178.023296,6.241878,4.907500,-0.707902,-4.091251,-4.903321,0.899325,3.940640,-0.208806,0.561229,-0.058098,-130.401959,188.480133,1059.167827,970.669153,0
0.017708,-14.754141,-151.129217,180.313069,6.343668,4.012830,1.200987,-5.001705,-3.951302,-1.060531,4.737598,-0.252642,0.556591,-0.031958,-60.178170,188.633060,1057.856143,970.833498,0
0.018750,61.830422,-169.818375,146.372728,5.665068,2.486210,2.963038,-4.979317,-2.488353,-2.806355,4.851449,-0.219765,0.530722,-0.035692,10.034308,188.488802,1056.533358,971.725704,0
0.019792,118.452184,-188.869961,63.830114,4.138218,0.455451,4.594126,-4.483045,-0.481394,-4.485032,4.381813,-0.270907,0.562078,0.020321,78.505047,188.484032,1054.581839,973.939991,0
0.020833,157.572469,-167.535085,-11.830871,2.701848,-1.277085,5.149728,-3.300201,1.231506,-5.101946,3.300228,-0.186888,0.562601,-0.054364,132.781736,188.490577,1053.831558,975.274447,0
0.021875,178.953082,-117.012744,-82.924621,1.355958,-3.247489,5.058451,-1.270335,3.172302,-5.022209,1.346970,-0.175929,0.550973,-0.009553,174.131095,188.494127,1052.612024,976.482668,0
0.022917,184.510907,-35.128377,-135.367803,0.326748,-4.355176,4.336168,0.479677,4.480869,-4.392705,-0.392817,-0.139399,0.512692,-0.028224,191.243124,188.492095,1052.524505,977.534753,0
0.023958,151.935246,36.946297,-175.266478,-0.408402,-5.047480,2.998756,2.334168,5.002825,-3.053960,-2.175299,-0.073645,0.559857,-0.028224,181.980234,188.486555,1051.484401,978.365113,0
0.025000,99.476181,107.281320,-178.011743,-0.442332,-4.798961,0.883500,3.931194,4.866823,-0.964007,-3.769214,-0.059033,0.562666,-0.050629,135.846745,188.501063,1050.324667,979.170710,0
0.026042,15.927322,151.400781,-179.870644,-0.532812,-3.907841,-1.076980,4.841649,3.940534,0.970669,-4.633771,-0.018850,0.560184,-0.005818,65.012217,188.363359,1049.184046,980.076512,0
0.027083,-60.838721,170.138263,-146.311932,0.134478,-2.367020,-2.815220,4.808066,2.473909,2.750066,-4.733390,-0.011544,0.563319,-0.031958,-4.204981,188.514213,1048.940771,980.277068,0
0.028125,-118.526678,188.718694,-63.461553,1.672638,-0.325610,-4.450276,4.308063,0.430192,4.403563,-4.238850,-0.062686,0.559334,-0.035692,-74.677590,188.509120,1047.526283,981.205164,0
0.029167,-157.703675,167.710002,13.553599,3.120318,1.303967,-5.021752,3.199846,-1.227571,5.062444,-3.153706,-0.040768,0.557897,-0.058098,-130.605539,188.509024,1046.698365,981.620123,0
0.030208,-179.016234,116.752748,83.576326,4.454898,3.309875,-4.962224,1.155055,-3.186746,4.907166,-1.193333,-0.091910,0.550123,-0.035692,-168.550588,188.286888,1045.309075,980.640451,0
0.031250,-184.778224,35.532831,135.687122,5.438868,4.453064,-4.188350,-0.598689,-4.440177,4.319629,0.478855,-0.146705,0.554500,-0.031958,-187.336497,188.513714,1044.306742,980.863201,0
0.032292,-152.315987,-34.959244,175.475001,6.241878,5.095665,-2.803314,-2.475568,-5.024621,2.989278,2.300473,-0.205153,0.554043,-0.028224,-177.994438,188.438071,1042.999862,980.943681,0
0.033333,-100.798350,-106.731895,177.875569,6.253188,4.889749,-0.775368,-4.046475,-4.899645,0.991652,3.929966,-0.201500,0.562927,-0.050629,-130.820429,188.515006,1042.517071,981.643299,0
0.034375,-16.308064,-151.346673,180.005304,6.332358,4.005729,1.177176,-4.942003,-4.017465,-0.955613,4.726924,-0.241683,0.551103,-0.031958,-60.924630,188.350792,1041.787350,982.817328,0
0.035417,61.830422,-169.673405,146.274243,5.698998,2.468459,2.895572,-4.953198,-2.517759,-2.718224,4.812312,-0.256295,0.542154,-0.031958,12.454648,188.512235,1040.301747,983.005500,0
0.036458,118.474869,-188.785395,63.153030,4.138218,0.416398,4.554441,-4.442000,-0.455664,-4.422082,4.328445,-0.256295,0.559530,-0.050629,80.144997,188.433994,1039.325611,982.138322,0
0.037500,157.243536,-167.402195,-12.581818,2.701848,-1.167026,5.129885,-3.337514,1.202100,-5.089356,3.310901,-0.208806,0.560510,-0.002084,132.872216,188.494905,1038.678078,982.422141,0
0.038551,179.361412,-116.179162,-83.737121,1.333338,-3.180034,5.078294,-1.288992,3.142896,-5.038995,1.343412,-0.139399,0.555545,-0.035692,174.719215,188.420216,1038.209210,982.973251,0
0.039594,183.456055,-34.596817,-136.869697,0.349368,-4.319673,4.316325,0.446095,4.403678,-4.333951,-0.375028,-0.124787,0.556852,-0.054364,192.430674,188.486160,1036.638445,982.579556,0
0.040625,152.094041,35.484507,-175.352652,-0.397092,-4.926771,2.967007,2.255809,4.995474,-3.074943,-2.050774,-0.088257,0.551299,-0.058098,183.337434,188.471630,1035.469904,982.934276,0
0.041666,99.521551,107.257158,-177.802463,-0.408402,-4.795411,0.998589,3.860298,4.837417,-1.039547,-3.648247,-0.055380,0.546988,-0.024490,134.941945,188.469521,1033.352589,983.290373,0
0.042708,14.838442,151.449105,-179.735228,-0.566742,-3.911391,-0.973797,4.763290,3.991994,0.861555,-4.530593,-0.015197,0.539998,-0.031958,64.277067,188.478127,1030.943363,984.347195,0
0.043750,-61.610011,170.017454,-146.496591,0.111858,-2.480629,-2.704099,4.819260,2.569479,2.640952,-4.680023,-0.040768,0.551626,-0.028224,-2.904331,188.494234,1028.857263,985.424744,0
0.044791,-118.900981,187.667655,-64.803409,1.650018,-0.467621,-4.362967,4.356570,0.529438,4.311236,-4.231734,-0.033462,0.561555,-0.039427,-74.146020,188.442687,1027.092188,985.810781,0
0.045833,-157.896498,167.927458,12.396402,3.097698,1.169057,-4.958255,3.259548,-1.154056,5.033067,-3.246210,-0.059033,0.563254,-0.028224,-128.479259,188.512105,1026.318824,986.951839,0
0.046875,-178.131518,117.223904,83.650190,4.432278,3.231769,-4.934443,1.263265,-3.021337,4.936543,-1.321415,-0.110175,0.544179,-0.046895,-168.969058,188.289251,1023.932722,988.620471,0
0.047916,-185.005074,35.303294,135.416288,5.438868,4.339455,-4.192318,-0.471822,-4.322553,4.378383,0.372120,-0.139399,0.537450,-0.024490,-187.325187,188.429400,1021.824280,989.781594,0
0.048958,-151.692150,-35.611613,174.970266,6.207948,5.024659,-2.906497,-2.315119,-4.940079,3.102589,2.122580,-0.168623,0.519094,-0.039427,-176.478898,188.477696,1018.455525,991.246280,0
0.050000,-100.219883,-106.647328,177.863258,6.275808,4.907500,-0.938080,-3.945728,-4.918024,1.088176,3.819673,-0.216112,0.558158,-0.024490,-131.668679,188.479019,1016.467391,992.379177,0
0.051041,-16.988614,-151.201702,178.897349,6.287118,4.066084,0.998589,-4.878570,-4.105683,-0.829713,4.662883,-0.234377,0.561555,-0.024490,-61.716330,188.335241,1014.520196,993.675849,0
0.052083,60.514692,-169.927104,146.926705,5.676378,2.610470,2.728892,-4.956929,-2.690520,-2.609110,4.815870,-0.245336,0.564691,-0.013287,9.966448,188.480307,1013.182102,995.638975,0
0.053125,119.212132,-186.912855,64.888826,4.104288,0.629415,4.423477,-4.483045,-0.639451,-4.312968,4.371139,-0.227071,0.554108,-0.043161,79.432467,188.476551,1010.693144,997.231259,0
0.054166,156.835206,-168.332424,-13.283523,2.701848,-1.003713,5.042576,-3.441993,1.058746,-4.997029,3.406963,-0.208806,0.558420,-0.024490,132.295406,188.489044,1008.389170,998.715582,0
0.055208,177.047542,-117.000663,-83.675568,1.389888,-3.020271,5.046545,-1.453173,3.006893,-4.959258,1.499957,-0.157664,0.552345,-0.065566,173.158435,188.333242,1005.327429,999.186705,0
0.056250,184.658360,-36.251901,-135.749432,0.394608,-4.220265,4.423477,0.266989,4.304433,-4.459852,-0.157999,-0.139399,0.541566,-0.058098,191.130024,188.474532,1003.411538,1001.664508,0
0.057291,151.572286,34.119365,-175.525001,-0.419712,-4.912570,3.105907,2.147599,4.947689,-3.209237,-1.951154,-0.077298,0.554566,-0.043161,181.901064,188.477854,1001.717210,1002.965984,0
0.058333,101.041446,106.556465,-177.937879,-0.498882,-4.809612,1.097804,3.733432,4.863147,-1.161251,-3.566417,-0.069992,0.559792,-0.024490,136.027705,188.481637,1000.673278,1004.110682,0
0.059375,16.188200,151.521590,-178.959660,-0.544122,-3.957545,-0.826959,4.662543,4.014049,0.760834,-4.470110,-0.069992,0.554370,-0.031958,64.062177,188.330660,999.201320,1004.457947,0
0.060416,-62.120423,170.053697,-146.459660,0.089238,-2.555185,-2.585042,4.804335,2.676076,2.527642,-4.655118,-0.051727,0.528305,-0.061832,-5.053231,188.477434,997.265142,1005.894761,0
0.061458,-119.740326,186.604535,-64.766477,1.706568,-0.542177,-4.239941,4.401347,0.661765,4.206319,-4.263755,-0.051727,0.559661,-0.046895,-75.503220,188.478273,994.889936,1007.328232,0
0.062500,-157.715018,168.265723,12.581061,3.142938,1.062549,-4.942381,3.341638,-1.025405,4.957527,-3.299578,-0.062686,0.561751,-0.069301,-130.334099,188.484005,992.851624,1008.237839,0
0.063541,-177.473653,118.033324,83.403978,4.432278,3.103959,-4.914600,1.356549,-2.900037,4.965920,-1.467287,-0.099216,0.550842,-0.054364,-167.871988,188.332227,991.087389,1009.991593,0
0.064583,-185.061786,36.861730,135.736364,5.427558,4.282651,-4.275658,-0.389732,-4.241686,4.411957,0.258269,-0.143052,0.549666,-0.028224,-187.359117,188.480289,989.726685,1010.894406,0
0.065625,-151.624095,-34.971325,175.105682,6.151398,5.014008,-2.930309,-2.255417,-4.914348,3.127769,2.008729,-0.190541,0.533008,-0.046895,-177.112258,188.488373,988.293222,1011.350860,0
0.066666,-99.550675,-107.190969,177.703220,6.230568,4.889749,-0.997608,-3.878563,-4.929051,1.138536,3.716496,-0.186888,0.564038,-0.035692,-130.345409,188.421036,986.532659,1012.119542,0
0.067708,-16.047186,-151.346673,178.725001,6.287118,4.080285,0.939061,-4.807674,-4.046871,-0.775156,4.613073,-0.230724,0.540063,-0.035692,-61.591920,188.344891,985.108627,1011.766387,0
0.068750,60.888994,-169.504272,146.766667,5.698998,2.642422,2.677300,-4.912152,-2.708898,-2.546160,4.812312,-0.256295,0.562993,-0.024490,11.346268,188.418391,984.117697,1012.096251,0
0.069791,119.302872,-186.018868,66.046023,4.126908,0.664917,4.344106,-4.479314,-0.723993,-4.220640,4.399602,-0.219765,0.557048,-0.017021,80.800977,188.495215,982.626591,1012.719513,0
0.070833,157.073399,-167.994159,-12.384849,2.679228,-0.950459,5.010828,-3.471844,0.959500,-4.971848,3.460331,-0.194194,0.559530,-0.050629,132.510296,188.418637,981.431538,1013.608956,0
0.071875,176.605185,-117.556385,-83.724811,1.333338,-2.927964,5.034639,-1.520337,2.896621,-4.925685,1.563998,-0.197847,0.536667,-0.031958,173.282845,188.268055,979.694889,1014.005712,0
0.072916,184.431510,-35.357914,-135.564773,0.349368,-4.145710,4.427446,0.151317,4.234594,-4.480835,-0.101074,-0.135746,0.524647,-0.031958,192.668184,188.412128,978.162253,1014.540699,0
0.073958,151.141271,34.977109,-175.106440,-0.397092,-4.898369,3.161468,2.046852,4.852120,-3.267991,-1.833745,-0.084604,0.560837,-0.050629,182.896344,188.491835,975.515290,1015.109257,0
0.075000,100.553719,106.580627,-177.777841,-0.453642,-4.827363,1.200987,3.714775,4.903580,-1.266169,-3.505933,-0.048074,0.556264,-0.024490,136.502725,188.423595,974.185034,1016.562347,0
0.076041,17.832863,151.400781,-178.282576,-0.510192,-3.996598,-0.692027,4.606572,4.050806,0.605556,-4.413184,-0.022503,0.562013,-0.039427,65.294967,188.270524,972.347189,1017.372175,0
0.077083,-60.861406,169.944969,-146.779735,0.100548,-2.583587,-2.489796,4.767021,2.738563,2.397544,-4.633771,-0.029809,0.554566,-0.028224,-3.515071,188.423424,970.764773,1017.871202,0
0.078125,-120.205368,185.396445,-65.123485,1.627398,-0.645135,-4.144695,4.371496,0.749983,4.113992,-4.263755,-0.048074,0.552279,-0.061832,-75.333570,188.497046,968.813991,1018.366957,0
0.079166,-157.147893,168.579827,13.713636,3.142938,0.966691,-4.859040,3.431191,-0.944538,4.890380,-3.374293,-0.084604,0.555415,-0.031958,-128.241749,188.488974,967.118808,1019.400204,0
0.080208,-176.214636,118.093729,84.056440,4.432278,2.951297,-4.863009,1.498341,-2.804468,4.915560,-1.559791,-0.095563,0.551430,-0.061832,-167.973778,188.340741,964.938413,1019.910710,0
0.081250,-185.152526,37.574504,135.687122,5.472798,4.208095,-4.331219,-0.180775,-4.182874,4.458120,0.140860,-0.157664,0.556721,-0.039427,-187.370427,188.417427,963.602349,1021.098035,0
0.082292,-151.363217,-33.509536,175.081061,6.207948,4.935902,-3.069209,-2.053923,-4.870239,3.232686,1.887762,-0.186888,0.561751,-0.043161,-176.015188,188.489812,961.849689,1022.117838,0
0.083333,-100.684925,-106.309063,177.850948,6.207948,4.886198,-1.108729,-3.751696,-4.873915,1.256044,3.627549,-0.201500,0.549993,-0.028224,-131.261519,188.468329,960.194912,1022.380463,0
0.084375,-16.308064,-151.044651,177.863258,6.264498,4.098036,0.812066,-4.733047,-4.068926,-0.632468,4.502780,-0.201500,0.548752,-0.073035,-60.596640,188.270237,957.474637,1022.845907,0
0.085416,61.626257,-169.709647,146.754357,5.653758,2.780883,2.574117,-4.923347,-2.786089,-2.449636,4.844333,-0.248989,0.548882,-0.069301,10.260508,188.403895,956.287482,1024.500664,0
0.086458,120.278327,-184.291298,66.969318,4.206078,0.824680,4.284577,-4.565135,-0.878375,-4.111526,4.435181,-0.227071,0.561817,0.001650,80.246787,188.493603,953.810537,1025.952358,0
0.087500,157.243536,-168.574042,-11.818561,2.701848,-0.808448,5.042576,-3.602442,0.786740,-4.934078,3.563508,-0.208806,0.565410,-0.028224,132.001346,188.488815,951.933706,1027.908004,0
0.088541,175.436907,-118.510776,-83.638637,1.344648,-2.842757,5.046545,-1.606159,2.756942,-4.967652,1.724101,-0.143052,0.552214,-0.043161,171.982195,188.267909,949.924268,1029.875919,0
0.089584,184.805812,-36.276063,-135.687879,0.326748,-4.117307,4.479037,0.091615,4.212539,-4.476639,0.009219,-0.099216,0.538430,-0.061832,191.175264,188.412679,949.064300,1030.616662,0
0.090625,150.528776,35.194566,-174.810985,-0.442332,-4.877067,3.240839,1.953568,4.874174,-3.326745,-1.727010,-0.069992,0.527521,-0.009553,181.064124,188.494008,947.704485,1031.851704,0
0.091666,99.805114,106.870569,-177.802463,-0.476262,-4.838014,1.264485,3.640147,4.888877,-1.354299,-3.431219,-0.048074,0.577103,-0.076769,136.152115,188.481823,945.938091,1032.699130,0
0.092708,17.152313,151.449105,-177.630114,-0.476262,-4.056953,-0.644404,4.606572,4.076536,0.542606,-4.349143,-0.011544,0.545355,-0.028224,65.713437,188.261321,944.320559,1033.182251,0
0.093750,-60.316966,170.138263,-146.964394,0.111858,-2.682995,-2.422330,4.770753,2.775321,2.363971,-4.669349,-0.037115,0.561817,-0.054364,-3.922231,188.417308,944.286475,1033.905275,0
0.094793,-120.579671,184.393730,-66.650000,1.627398,-0.726792,-4.136758,4.371496,0.783064,4.059435,-4.331354,-0.048074,0.557897,-0.031958,-76.193130,188.418362,943.847066,1034.589909,0
0.095833,-157.363400,168.688555,13.430492,3.120318,0.899236,-4.835229,3.449848,-0.852645,4.852609,-3.413429,-0.048074,0.556199,-0.039427,-130.028729,188.421607,942.621391,1035.357717,0
0.096875,-175.828991,117.670897,84.635038,4.466208,2.915794,-4.894758,1.516998,-2.756683,4.894576,-1.584696,-0.095563,0.544048,-0.035692,-167.182078,188.266239,941.536208,1035.568749,0
0.097916,-185.061786,36.088552,135.933334,5.450178,4.172592,-4.331219,-0.158387,-4.157144,4.466514,0.137302,-0.102869,0.535360,-0.050629,-187.223397,188.408219,940.802697,1035.898884,0
0.098958,-151.193080,-33.726992,175.191857,6.219258,4.918151,-3.116832,-2.087505,-4.818779,3.262063,1.848626,-0.164970,0.558681,-0.031958,-177.214048,188.436731,939.757545,1036.105664,0
0.100000,-101.252050,-106.091607,177.518561,6.253188,4.900399,-1.132540,-3.744234,-4.903321,1.298011,3.584855,-0.208806,0.559530,-0.017021,-131.453789,188.491969,939.275904,1036.642053,0
0.101041,-17.759904,-151.322511,177.555493,6.321048,4.115788,0.752537,-4.688270,-4.083629,-0.582108,4.460086,-0.241683,0.552932,-0.046895,-61.490130,188.345015,938.648053,1036.754452,0
0.102083,61.195242,-169.455948,146.458902,5.687688,2.748931,2.550306,-4.889764,-2.767710,-2.369899,4.730482,-0.238030,0.545159,-0.024490,12.432028,188.422787,936.808531,1035.596011,0
0.103125,120.266985,-184.557078,65.578220,4.194768,0.835331,4.272671,-4.553941,-0.856320,-4.077953,4.428065,-0.212459,0.556917,-0.035692,81.909357,188.431893,936.234634,1035.461875,0
0.104167,156.687754,-168.308262,-12.877273,2.701848,-0.790697,4.959236,-3.561397,0.801443,-4.887915,3.577740,-0.197847,0.561621,-0.046895,132.329336,188.426255,935.584323,1035.293423,0
0.105208,175.402879,-118.087945,-83.712500,1.378578,-2.785953,5.014796,-1.650935,2.727536,-4.946668,1.731217,-0.161317,0.553716,-0.054364,172.332805,188.401906,934.916648,1035.236067,0
0.106250,184.397482,-37.459991,-135.921781,0.315438,-4.039201,4.479037,0.024450,4.153727,-4.451458,0.087492,-0.135746,0.552802,-0.002084,192.362814,188.480095,933.735097,1035.217539,0
0.107292,150.925763,34.252255,-174.983334,-0.340542,-4.788310,3.256714,1.927449,4.830065,-3.309958,-1.680758,-0.110175,0.556003,-0.058098,182.262984,188.476870,933.175286,1034.736221,0
0.108337,99.850484,107.112187,-177.568561,-0.442332,-4.809612,1.320045,3.565520,4.859471,-1.383676,-3.431219,-0.059033,0.558616,-0.054364,135.383035,188.491912,932.767902,1034.750236,0
0.109375,16.063432,151.388700,-177.667046,-0.521502,-4.003698,-0.600750,4.569259,4.102267,0.530016,-4.324238,-0.048074,0.542807,-0.005818,64.412787,188.398699,932.140618,1035.187029,0
0.110417,-61.553298,170.005373,-146.619697,0.077928,-2.675894,-2.386613,4.774484,2.782672,2.363971,-4.612424,-0.040768,0.562405,-0.028224,-3.288871,188.482569,931.317009,1035.059347,0
