1-Time,2-VGERA,3-VGERB,4-VGERC,5-VN,6-IGERAN,7-IGERBN,8-IGERCN,9-IGERAT,10-IGERBT,11-IGERCT,12-IN,13-IFD,14-IFAULT,15-VFAULT,16-Speed (rad/s),17-Active Power,18-Reactive Power,19-FAULT 
0.000000,116.295933,80.933456,-180.824012,-3.299967,-5.080223,1.288528,3.856824,4.844329,-1.425984,-3.750693,-0.058040,0.583603,-0.033973,-108.557556,188.344901,1065.306495,965.376314,0
0.001042,38.134349,132.024250,-183.728261,-3.311226,-4.353667,-0.541810,4.765209,4.238620,0.493295,-4.776427,-0.017932,0.580365,-0.045123,-31.787040,188.420332,1063.263133,965.610836,0
0.002083,-34.038274,171.510974,-151.890881,-2.725742,-3.028988,-2.440535,5.238326,2.943781,2.323796,-5.223056,-0.003348,0.575404,-0.037689,40.131138,188.420347,1060.286115,965.895102,0
0.003125,-104.199510,173.495881,-94.219048,-1.498478,-1.109853,-4.126056,4.768994,1.126654,3.951379,-4.867267,-0.010640,0.586015,-0.037689,106.318828,188.269552,1057.858218,967.626408,0
0.004167,-147.410424,175.339847,-8.173060,0.167898,0.834967,-5.075419,3.871964,-0.715862,4.974430,-3.947513,-0.021578,0.587048,-0.052556,146.769988,188.344834,1055.423304,970.075332,0
0.005208,-167.140094,141.314553,68.066528,1.631607,2.618331,-5.067373,2.130892,-2.438687,5.118165,-2.270760,-0.072625,0.587600,-0.082290,164.040258,188.420260,1053.655269,972.564615,0
0.006250,-185.717171,61.448485,123.150056,2.701241,4.379678,-4.592692,0.018897,-4.096226,4.632004,-0.075463,-0.127317,0.580365,-0.052556,184.113851,188.420206,1052.941637,973.662071,0
0.007292,-166.066601,-10.818563,161.938192,3.433095,4.996150,-3.494489,-1.601057,-4.770848,3.587815,1.552085,-0.174718,0.587600,-0.089723,158.118380,188.269584,1051.746681,974.898250,0
0.008333,-117.126625,-80.172847,180.688221,3.804652,5.128251,-1.326241,-3.599504,-4.843388,1.469844,3.588412,-0.200241,0.587324,-0.067423,109.730100,188.344778,1051.930091,976.706715,0
0.009375,-38.919841,-132.203242,183.434499,3.894726,4.449398,0.560415,-4.553308,-4.244933,-0.394477,4.636855,-0.222118,0.586428,-0.093440,32.824485,188.420263,1051.184358,977.958260,0
0.010417,33.331881,-171.689966,151.791546,3.286724,3.124718,2.503390,-4.992361,-3.029888,-2.271481,5.091055,-0.240349,0.599450,-0.059989,-39.296343,188.420292,1049.347932,978.850774,0
0.011458,104.329312,-173.099367,94.666537,2.127016,1.183567,4.072252,-4.576018,-1.147475,-3.932883,4.727695,-0.203887,0.583397,-0.033973,-106.170791,188.269425,1047.516616,979.579136,0
0.012500,147.370728,-175.460114,7.976511,0.483158,-0.775931,5.090001,-3.660063,0.662398,-4.977073,3.758737,-0.207533,0.587186,-0.056273,-146.453076,188.269438,1045.859460,981.180905,0
0.013542,166.671000,-141.270390,-68.396745,-1.014329,-2.511592,5.122183,-1.998475,2.377969,-5.065850,2.191749,-0.182010,0.580089,-0.030256,-163.036589,188.420358,1044.144510,982.953340,0
0.014583,184.976879,-61.040226,-123.152178,-2.050184,-4.287617,4.715888,0.113520,4.075405,-4.660011,0.007807,-0.116379,0.564174,-0.045123,-183.098923,188.495734,1041.691775,984.249150,0
0.015625,166.354602,11.344271,-161.429944,-2.849594,-4.955461,3.621707,1.718334,4.779043,-3.636959,-1.585676,-0.068979,0.584568,-0.074856,-157.925309,188.269389,1039.009163,985.876143,0
0.016667,117.279026,80.310971,-180.240731,-3.232411,-5.076553,1.457483,3.720566,4.858837,-1.569719,-3.640928,-0.065333,0.566792,-0.078573,-109.649613,188.269563,1037.366230,987.262664,0
0.017708,40.349135,132.012505,-183.278649,-3.277448,-4.474760,-0.409061,4.716005,4.303906,0.307285,-4.761287,-0.025225,0.593801,-0.071140,-33.667180,188.420486,1036.262947,989.011779,0
0.018750,-31.653989,171.546209,-151.307601,-2.725742,-3.142741,-2.348013,5.204262,3.099742,2.222337,-5.234411,0.011237,0.592905,-0.048839,38.667555,188.495613,1035.247302,990.722521,0
0.019792,-103.724913,173.143530,-95.191181,-1.554775,-1.238285,-3.973193,4.791703,1.235464,3.875284,-4.867267,-0.010640,0.583672,-0.048839,106.532736,188.269572,1033.954819,991.452908,0
0.020833,-147.240926,174.611657,-8.379639,0.100342,0.684519,-4.926578,3.856824,-0.574409,4.868743,-3.943728,0.011237,0.580089,-0.067423,146.634888,188.344889,1031.325776,991.706383,0
0.021875,-166.721997,141.666903,69.062965,1.620348,2.475222,-5.039214,2.248225,-2.315369,5.071662,-2.346460,-0.112733,0.578160,-0.041406,163.072042,188.420490,1029.201159,992.681670,0
0.022917,-184.044782,60.790764,123.964218,2.701241,4.199874,-4.669124,0.177864,-3.980162,4.686961,-0.245788,-0.123671,0.584017,-0.086006,182.830402,188.495765,1026.174125,994.650335,0
0.023958,-166.608998,-12.392394,161.063271,3.455614,4.930099,-3.591034,-1.423165,-4.680173,3.655455,1.343910,-0.120025,0.579332,-0.045123,158.670037,188.269537,1022.783946,996.169991,0
0.025000,-116.945826,-81.077213,179.594571,3.782133,5.087886,-1.495196,-3.455676,-4.763594,1.685446,3.399162,-0.171072,0.578711,-0.011672,110.112883,188.269640,1018.591550,997.901864,0
0.026042,-39.236239,-132.132772,183.495257,3.883467,4.482423,0.343188,-4.428405,-4.317473,-0.242288,4.583865,-0.196595,0.586773,-0.041406,34.558267,188.420309,1017.011620,999.672775,0
0.027083,31.331794,-171.666476,151.001687,3.230428,3.231133,2.253982,-4.977221,-3.138698,-2.051652,5.075915,-0.203887,0.581674,-0.063706,-37.078453,188.495731,1014.422555,1001.200066,0
0.028125,103.459218,-173.228562,96.221951,2.127016,1.374380,3.947548,-4.625222,-1.332452,-3.844106,4.792040,-0.196595,0.594214,-0.030256,-105.821783,188.269463,1013.204892,1003.288350,0
0.029167,147.585426,-174.027223,9.677745,0.438121,-0.544754,5.009546,-3.728192,0.462913,-4.807973,3.857146,-0.222118,0.587806,-0.033973,-146.453076,188.420231,1009.630843,1004.562385,0
0.030208,167.009998,-142.080795,-68.178015,-1.036847,-2.324449,5.085978,-2.096884,2.254651,-5.053167,2.259879,-0.152841,0.584292,-0.056273,-162.529964,188.420292,1008.236133,1005.581506,0
0.031250,183.247991,-61.733181,-123.966340,-2.140259,-4.133499,4.711865,-0.053017,3.937579,-4.727651,0.200841,-0.138256,0.566998,-0.033973,-181.860507,188.495680,1005.224056,1007.652236,0
0.032292,166.783999,12.730183,-160.688692,-2.770779,-4.860054,3.678025,1.544227,4.731892,-3.687689,-1.426706,-0.090856,0.555768,-0.059989,-158.195509,188.269556,1002.811768,1008.956828,0
0.033333,116.499332,82.096212,-179.062019,-3.142336,-5.091231,1.630460,3.557814,4.844329,-1.696543,-3.485744,-0.025225,0.543366,-0.033973,-109.075439,188.344959,999.592986,1010.592795,0
0.034375,38.394248,132.141700,-183.521683,-3.311226,-4.493107,-0.252174,4.628951,4.369192,0.163551,-4.628812,-0.054394,0.567825,-0.056273,-33.396981,188.420307,996.612413,1012.354622,0
0.035417,-31.981687,171.463994,-150.651411,-2.669446,-3.230809,-2.175036,5.139918,3.165028,2.044782,-5.147356,-0.003348,0.579263,-0.048839,37.350331,188.495785,993.503202,1013.202090,0
0.036458,-103.815312,172.979100,-95.968888,-1.577294,-1.388733,-3.880670,4.840908,1.387798,3.769597,-4.969462,-0.050748,0.597177,-0.071140,106.408895,188.269568,992.105018,1015.660104,0
0.037500,-147.794622,173.460646,-9.947204,0.111601,0.559757,-4.902442,3.955232,-0.407567,4.801103,-4.053493,-0.043455,0.589804,-0.026539,147.197805,188.344919,989.990052,1017.484873,0
0.038542,-167.264393,142.265899,68.090831,1.575311,2.328443,-5.035191,2.346634,-2.148527,5.075890,-2.494075,-0.058040,0.589391,-0.052556,163.274692,188.420329,988.024838,1019.504359,0
0.039583,-182.892190,62.669966,124.571801,2.701241,4.137493,-4.661078,0.310337,-3.860471,4.712326,-0.404758,-0.094502,0.575060,-0.048839,181.974769,188.495747,985.804965,1020.724615,0
0.040625,-166.823696,-12.087024,160.929603,3.365539,4.856710,-3.651375,-1.324756,-4.611260,3.718867,1.271995,-0.152841,0.581536,-0.048839,158.625004,188.269485,984.460802,1021.340526,0
0.041667,-116.776327,-81.828894,178.841167,3.748356,5.043853,-1.571627,-3.338343,-4.687427,1.753086,3.323462,-0.182010,0.536407,-0.078573,109.200959,188.344907,982.431335,1021.463451,0
0.042708,-37.631650,-132.297202,183.628926,3.838430,4.511779,0.250666,-4.360276,-4.277576,-0.145056,4.489241,-0.211179,0.545846,-0.011672,32.756935,188.420338,980.042479,1021.747938,0
0.043750,32.778185,-171.349360,150.467014,3.219168,3.326539,2.113186,-4.965866,-3.160460,-1.945965,5.026710,-0.207533,0.571408,-0.015389,-37.483752,188.495749,977.920828,1022.287235,0
0.044792,104.363212,-172.840977,95.820946,2.183313,1.418414,3.838934,-4.685781,-1.415873,-3.725737,4.829890,-0.207533,0.588495,-0.041406,-106.272116,188.344827,975.957065,1023.684473,0
0.045833,147.709725,-173.545677,10.370391,0.505677,-0.460357,4.913001,-3.800106,0.357730,-4.786836,3.944201,-0.222118,0.591665,-0.033973,-146.970959,188.344948,974.863142,1025.166115,0
0.046875,167.179497,-142.421401,-67.533977,-1.003069,-2.232712,5.110115,-2.191507,2.091436,-5.082760,2.380998,-0.141902,0.593318,-0.033973,-162.676322,188.420396,973.051891,1027.083010,0
0.047917,182.298797,-64.082183,-124.561772,-2.128999,-4.034423,4.776229,-0.170350,3.799753,-4.748788,0.325746,-0.130964,0.585464,-0.063706,-181.061166,188.495658,971.059666,1027.891679,0
0.048958,166.964798,11.121116,-160.846663,-2.894632,-4.801343,3.786639,1.453388,4.630336,-3.806059,-1.313157,-0.090856,0.585326,-0.037689,-158.319351,188.344910,969.248501,1028.955575,0
0.050000,117.550225,81.696882,-178.357222,-3.221151,-5.010503,1.698846,3.485900,4.811686,-1.793775,-3.353269,-0.054394,0.569617,-0.052556,-109.052922,188.344956,967.224885,1029.487329,0
0.051042,38.834945,132.176935,-183.351559,-3.322485,-4.482099,-0.131493,4.545682,4.383700,0.087456,-4.575822,-0.025225,0.569617,-0.082290,-32.361215,188.420247,966.097674,1029.990437,0
0.052083,-32.365885,171.099899,-149.983069,-2.624408,-3.322545,-2.042286,5.124778,3.215806,1.892593,-5.136001,0.011237,0.591871,-0.086006,38.374839,188.495725,963.922024,1031.074572,0
0.053125,-104.391609,172.990845,-94.960300,-1.520997,-1.524504,-3.751943,4.931746,1.507489,3.680819,-4.969462,-0.025225,0.585050,-0.048839,107.050619,188.345042,961.809909,1032.492743,0
0.054167,-147.365225,172.908630,-9.205952,0.122861,0.383622,-4.826010,4.091490,-0.284249,4.741919,-4.132978,-0.039809,0.587944,-0.063706,147.186546,188.344894,959.746609,1033.945049,0
0.055208,-167.094894,142.395094,68.382471,1.631607,2.200011,-5.003010,2.494246,-2.032463,5.058980,-2.603840,-0.017932,0.583879,-0.059989,163.072042,188.420345,957.881452,1035.389219,0
0.056250,-181.321500,64.126347,125.471025,2.712500,3.987045,-4.713374,0.442810,-3.690002,4.779966,-0.586438,-0.109087,0.578505,-0.082290,180.713837,188.495667,954.861619,1037.244485,0
0.057292,-167.320893,-10.677622,161.233395,3.410576,4.816345,-3.755966,-1.120370,-4.578617,3.837236,1.135735,-0.141902,0.586153,-0.041406,159.176662,188.344862,953.557252,1038.971101,0
0.058333,-118.290517,-81.253388,178.002702,3.815911,4.996150,-1.692309,-3.190731,-4.738205,1.871455,3.153137,-0.171072,0.584292,-0.059989,110.090367,188.420396,951.698307,1040.448679,0
0.059375,-39.643037,-132.261967,183.543864,3.894726,4.530127,0.097802,-4.299717,-4.357370,0.011361,4.402186,-0.225764,0.590356,-0.056273,33.556276,188.421123,950.144120,1041.984181,0
0.060417,31.862891,-171.267145,149.871582,3.196650,3.385251,2.000550,-4.909092,-3.236627,-1.823368,4.954795,-0.222118,0.580916,-0.086006,-37.877794,188.495544,948.018973,1042.561348,0
0.061458,104.351912,-173.252052,95.298424,2.138276,1.546845,3.758480,-4.655502,-1.517429,-3.607367,4.799610,-0.211179,0.586635,-0.067423,-106.711191,188.344862,945.807860,1043.350584,0
0.062500,147.461127,-172.747017,8.960797,0.483158,-0.331925,4.844615,-3.872019,0.241666,-4.719196,3.963126,-0.178364,0.586153,-0.056273,-146.768310,188.420180,943.430695,1044.155561,0
0.063542,166.863099,-142.245225,-68.603324,-0.969291,-2.126297,5.077933,-2.342904,2.000761,-5.019347,2.468053,-0.167425,0.581881,-0.037689,-162.361089,188.420244,941.322657,1045.062540,0
0.064583,180.784607,-63.400973,-125.315175,-2.117740,-3.946356,4.820478,-0.306608,3.712705,-4.744561,0.458221,-0.141902,0.576576,-0.052556,-179.890301,188.495754,938.719672,1046.071491,0
0.065625,167.168197,11.426487,-160.822360,-2.804557,-4.753640,3.826866,1.328485,4.615828,-3.839879,-1.245027,-0.098148,0.583190,-0.067423,-158.702134,188.420236,937.835305,1046.822892,0
0.066667,118.160421,81.626412,-177.652425,-3.198633,-4.977478,1.799414,3.406416,4.760908,-1.882553,-3.281354,-0.087210,0.574715,-0.067423,-110.021138,188.420361,936.276846,1047.145187,0
0.067708,40.529934,132.212170,-183.230043,-3.311226,-4.570166,-0.026902,4.492693,4.416343,-0.026686,-4.526617,-0.014286,0.587944,-0.059989,-33.914864,188.420321,935.282061,1048.010993,0
0.068750,-30.309298,171.287819,-149.582064,-2.680705,-3.311537,-1.941718,5.033939,3.291973,1.786906,-5.011097,-0.014286,0.591320,-0.033973,37.192715,188.495569,933.194146,1047.939667,0
0.069792,-104.030011,173.049570,-95.434215,-1.554775,-1.557529,-3.671488,4.856047,1.529251,3.634317,-4.961892,0.007591,0.589873,-0.056273,107.140686,188.420274,932.679403,1047.931743,0
0.070833,-147.681623,172.497555,-9.096587,0.134120,0.350597,-4.797851,4.019576,-0.182693,4.670051,-4.098913,-0.025225,0.582501,-0.078573,147.254096,188.420283,930.797950,1047.955077,0
0.071875,-166.868896,141.890059,69.391060,1.609088,2.144969,-5.003010,2.498031,-1.985312,4.991340,-2.611410,-0.076271,0.578160,-0.045123,162.587934,188.420311,929.352704,1047.817854,0
0.072917,-180.971203,62.517280,125.847727,2.735018,3.917325,-4.729464,0.518509,-3.693629,4.725009,-0.571298,-0.087210,0.578711,-0.019106,180.364829,188.495763,928.713071,1047.332584,0
0.073958,-166.846296,-12.697764,160.820238,3.354280,4.746625,-3.735852,-1.086305,-4.292084,3.799189,1.041110,-0.127317,0.559764,-0.059989,158.883946,188.420347,924.259363,1045.960926,0
0.075001,-117.137924,-82.298694,177.905488,3.669540,5.010827,-1.732536,-3.175591,-4.643903,1.871455,3.134212,-0.192949,0.581123,-0.048839,110.011558,188.420334,922.894336,1045.398999,0
0.076042,-39.134540,-132.532102,182.984887,3.860949,4.566821,0.089757,-4.318642,-4.390013,0.057864,4.375691,-0.218472,0.597039,-0.086006,34.501975,188.420213,922.002795,1046.101529,0
0.077084,30.778098,-171.525536,149.494880,3.230428,3.410937,1.956300,-4.856103,-3.298286,-1.827595,4.947225,-0.218472,0.587531,-0.011672,-36.222820,188.495709,922.003537,1046.551460,0
0.078125,104.159813,-172.629567,96.319165,2.115757,1.598218,3.682048,-4.666856,-1.608104,-3.560865,4.818535,-0.203887,0.597521,-0.041406,-106.666157,188.495740,921.218114,1047.350638,0
0.079167,147.845324,-172.347686,10.261026,0.471899,-0.262205,4.820478,-3.853095,0.230785,-4.664239,3.993406,-0.203887,0.593180,-0.037689,-146.993476,188.420245,920.780090,1047.333107,0
0.080209,166.930898,-142.127775,-68.603324,-1.059366,-2.056577,5.069887,-2.327765,1.964491,-5.010893,2.502118,-0.167425,0.584706,-0.022822,-162.012081,188.495727,920.153042,1047.762934,0
0.081250,180.829806,-63.213053,-125.521754,-2.162777,-3.858288,4.760138,-0.325533,3.694570,-4.736106,0.488501,-0.134610,0.583672,-0.074856,-179.743942,188.495807,919.625155,1048.008287,0
0.082292,166.716200,12.894613,-160.482113,-2.804557,-4.727953,3.810775,1.279281,4.554169,-3.844106,-1.214747,-0.101794,0.588564,-0.078573,-158.206767,188.495703,918.204459,1048.025716,0
0.083334,117.007828,82.918363,-177.445847,-3.142336,-4.984817,1.807459,3.364782,4.789924,-1.857188,-3.243504,-0.036163,0.541092,-0.067423,-109.109214,188.420359,917.531335,1048.404942,0
0.084375,38.326448,132.552776,-182.999161,-3.254929,-4.518793,-0.022879,4.473769,4.398208,-0.047824,-4.526617,-0.021578,0.586359,-0.056273,-33.295656,188.495732,916.639834,1048.720599,0
0.085417,-31.473191,171.217349,-149.266120,-2.624408,-3.384926,-1.897468,5.075574,3.313735,1.799588,-5.098152,0.022176,0.588702,-0.067423,36.764898,188.495685,917.177401,1049.807825,0
0.086459,-104.278609,172.814670,-95.993192,-1.498478,-1.630918,-3.695625,4.909036,1.583656,3.579360,-4.954322,-0.050748,0.590769,-0.030256,107.151944,188.495703,916.268458,1050.215354,0
0.087500,-147.975421,171.969029,-10.773518,0.066564,0.284546,-4.773714,4.076350,-0.153677,4.686961,-4.132978,-0.050748,0.597246,-0.041406,147.726946,188.420354,916.480459,1050.591130,0
0.088542,-167.445192,142.536034,68.333865,1.586570,2.064241,-4.986919,2.539665,-1.952669,5.029388,-2.668185,-0.068979,0.590080,-0.056273,162.891909,188.495723,916.655462,1051.507524,0
0.089584,-180.485306,64.055877,126.236580,2.735018,3.920994,-4.729464,0.575283,-3.642851,4.754601,-0.643213,-0.098148,0.584430,-0.026539,179.948271,188.495613,915.978096,1052.228228,0
0.090625,-167.004495,-12.192729,160.905300,3.455614,4.753964,-3.755966,-1.056026,-4.538720,3.871056,1.022185,-0.185656,0.584775,-0.059989,158.928979,188.495562,918.356849,1054.575054,0
0.091667,-117.217024,-82.850709,177.261450,3.804652,4.974133,-1.756673,-3.130172,-4.636649,1.879910,3.073652,-0.167425,0.551565,-0.045123,109.200959,188.495631,917.384466,1054.651859,0
0.092709,-37.597750,-132.813982,183.556016,3.849689,4.570491,0.005280,-4.216449,-4.350116,0.062091,4.345411,-0.214826,0.588357,-0.071140,32.576802,188.495633,916.635903,1054.504452,0
0.093750,32.789485,-171.243655,149.434122,3.151613,3.425615,1.936187,-4.840964,-3.240254,-1.717681,4.943440,-0.214826,0.552805,-0.067423,-37.427461,188.495568,915.055221,1054.623068,0
0.094792,104.860409,-173.087622,95.432093,2.138276,1.649590,3.686071,-4.697136,-1.597223,-3.573547,4.875310,-0.225764,0.588840,-0.056273,-106.981390,188.495702,915.329901,1055.491474,0
0.095834,148.116523,-172.195001,10.212419,0.505677,-0.243858,4.792319,-3.890944,0.190888,-4.668466,4.008546,-0.167425,0.595592,-0.059989,-147.545134,188.495626,914.962418,1056.032416,0
0.096875,167.450695,-142.198245,-67.874223,-1.014329,-2.067586,5.057819,-2.342904,1.935475,-5.044712,2.536183,-0.185656,0.586842,-0.078573,-162.586256,188.495761,914.986423,1056.720266,0
0.097917,180.434309,-64.563729,-125.983517,-2.128999,-3.920669,4.756115,-0.374737,3.698197,-4.791063,0.488501,-0.152841,0.586359,-0.063706,-179.575068,188.495736,915.546466,1057.230246,0
0.098959,167.032598,11.203331,-161.053242,-2.849594,-4.720615,3.810775,1.222507,4.557796,-3.844106,-1.150402,-0.105440,0.589529,-0.089723,-158.386901,188.495714,915.430712,1057.432800,0
0.100000,117.527625,82.636483,-177.457999,-3.187373,-4.999494,1.779300,3.376137,4.735519,-1.924827,-3.213224,-0.021578,0.582570,-0.052556,-108.850272,188.420227,914.577879,1057.580926,0
0.101042,38.688046,132.752441,-183.254346,-3.311226,-4.500446,0.001257,4.458629,4.394581,-0.039369,-4.496337,-0.032517,0.559213,-0.071140,-32.136048,188.495783,914.466176,1057.422180,0
0.102084,-32.557983,171.311309,-149.181059,-2.613149,-3.340893,-1.937695,5.015015,3.320989,1.761541,-5.048947,-0.028871,0.543090,-0.041406,38.768880,188.495731,913.362829,1057.549983,0
0.103125,-105.137404,172.920375,-94.364868,-1.498478,-1.528173,-3.647352,4.863617,1.569148,3.621635,-4.908902,0.003945,0.586911,-0.074856,107.748635,188.495759,913.130849,1057.340554,0
0.104167,-147.998021,172.145205,-8.683430,0.156639,0.321241,-4.749578,4.057425,-0.240725,4.619321,-4.136763,-0.010640,0.585119,-0.045123,147.659396,188.571149,912.757863,1056.901246,0
0.105209,-166.891496,141.537708,69.160178,1.665385,2.078919,-5.007032,2.505601,-1.959923,5.025160,-2.611410,-0.028871,0.582708,-0.045123,162.903168,188.495797,912.491564,1056.277945,0
0.106250,-181.039002,63.398156,126.224429,2.746278,3.932002,-4.713374,0.522293,-3.599327,4.767283,-0.601578,-0.079917,0.576162,-0.052556,180.308537,188.495640,912.293152,1056.147094,0
0.107292,-166.529898,-11.147423,161.537187,3.421836,4.746625,-3.719761,-1.074950,-4.535093,3.841464,1.067605,-0.134610,0.584499,-0.067423,158.568713,188.495702,912.902894,1055.454423,0
0.108334,-117.770720,-81.629228,178.002702,3.759615,4.966794,-1.704377,-3.145311,-4.705562,1.875683,3.126642,-0.160133,0.582294,-0.026539,109.898975,188.571192,914.480346,1055.829844,0
0.109375,-39.292739,-132.966668,182.997039,3.793393,4.508110,0.101825,-4.258083,-4.317473,0.032499,4.330271,-0.218472,0.593594,-0.063706,33.128460,188.495787,914.777665,1054.914956,0
0.110417,32.054990,-171.619496,149.434122,3.207909,3.341217,1.952277,-4.814469,-3.222119,-1.759955,4.916945,-0.214826,0.559351,-0.071140,-38.069185,188.495732,915.222184,1054.278507,0
