1-Time,2-VGERA,3-VGERB,4-VGERC,5-VN,6-IGERAN,7-IGERBN,8-IGERCN,9-IGERAT,10-IGERBT,11-IGERCT,12-IN,13-IFD,14-IFAULT,15-VFAULT,16-Speed (rad/s),17-Active Power,18-Reactive Power,19-FAULT 
0.000000,137.709291,-179.946708,17.831517,0.753382,-4.078401,5.310704,-0.639197,4.324160,-5.225623,0.435001,-0.042949,0.463993,-0.018440,-11.319406,188.495725,1615.723692,-15.615698,0
0.001042,182.219697,-130.641156,-46.268551,-0.530179,-5.248963,4.100617,1.556762,5.554682,-4.078162,-1.800202,-0.061180,0.465509,-0.003573,-4.980969,188.495691,1615.730866,-14.784515,0
0.002083,196.548003,-59.231494,-100.647282,-1.611071,-5.483809,2.179195,3.598077,5.752173,-2.050694,-3.711739,-0.072118,0.463993,-0.007290,2.652175,188.571051,1615.261738,-14.597106,0
0.003125,166.151203,4.496931,-162.511442,-2.804557,-5.043472,0.131040,5.067205,5.345797,-0.023226,-5.250107,-0.097641,0.471296,0.003860,6.164772,188.495759,1615.279547,-14.304579,0
0.004167,119.979709,65.617963,-189.719035,-3.367522,-3.740809,-1.957995,5.569802,3.891199,2.043065,-5.581389,-0.137749,0.475155,0.003860,12.435659,188.495655,1615.003091,-13.902654,0
0.005208,41.965024,121.700386,-193.692632,-3.468856,-1.678566,-4.083824,5.496345,1.855522,4.178377,-5.535695,-0.130457,0.477842,-0.037023,17.242964,188.495736,1614.331808,-14.253489,0
0.006250,-26.975820,164.252558,-159.036064,-2.815817,0.357992,-5.314352,4.556877,-0.183954,5.261131,-4.473307,-0.104934,0.462615,-0.003573,18.819129,188.571078,1614.073794,-13.645281,0
0.007292,-79.882071,195.776165,-85.530602,-1.340848,2.633065,-5.694548,2.592884,-2.595624,5.705449,-2.531308,-0.032010,0.469781,-0.007290,19.201912,188.495772,1613.896297,-13.261735,0
0.008333,-137.206592,179.826441,-17.092387,-0.012251,4.339370,-5.257118,0.559302,-4.293287,5.166229,-0.456034,-0.013779,0.459446,-0.014723,11.343601,188.495731,1614.522437,-13.757441,0
0.009375,-182.293294,130.250754,46.667434,1.203754,5.484245,-4.104265,-1.675319,-5.463042,3.992886,1.756322,0.019036,0.462133,0.000144,5.230331,188.495721,1614.241126,-13.843433,0
0.010417,-196.553800,58.688407,100.754525,2.273387,5.704414,-2.133785,-3.647044,-5.626352,2.004241,3.705937,0.059144,0.479013,-0.007290,-1.625989,188.570984,1613.944913,-13.923658,0
0.011458,-166.055301,-5.004783,162.497169,3.500651,5.260408,-0.138776,-5.092975,-5.261753,-0.027540,5.160533,0.081021,0.472881,0.003860,-6.016735,188.495656,1613.830095,-13.865227,0
0.012500,-119.465709,-65.749975,189.619700,3.984801,3.891694,1.966612,-5.607170,-3.814751,-2.145597,5.518470,0.102898,0.485972,0.022444,-11.769739,188.495767,1613.698590,-14.240649,0
0.013542,-41.191126,-121.750183,193.957847,4.119912,1.910179,4.063824,-5.545312,-1.763882,-4.250713,5.499431,0.106545,0.457379,-0.014723,-16.723402,188.495709,1614.245759,-14.220203,0
0.014583,27.399420,-164.126179,159.264824,3.478132,-0.122709,5.249382,-4.594245,0.283189,-5.281702,4.414196,0.059144,0.469574,0.003860,-18.389634,188.495669,1614.031776,-14.645850,0
0.015625,79.842374,-196.013882,85.990244,2.048201,-2.412460,5.678636,-2.649583,2.630294,-5.726019,2.434118,0.022683,0.470676,-0.011006,-18.288309,188.495644,1614.256445,-14.889488,0
0.016667,137.076496,-179.934963,17.199630,0.708344,-4.111426,5.224853,-0.608268,4.297575,-5.178171,0.442617,-0.006487,0.462959,0.022444,-11.251856,188.495694,1613.326576,-14.738388,0
0.017708,181.858100,-130.464980,-46.523736,-0.507660,-5.179243,4.072000,1.610888,5.497713,-4.052280,-1.769739,-0.050241,0.459790,0.003860,-4.564411,188.495635,1612.243918,-14.322564,0
0.018750,196.446303,-58.538539,-100.416400,-1.588553,-5.432436,2.121961,3.563282,5.695204,-2.029126,-3.715546,-0.090349,0.452211,-0.018440,2.505817,188.495560,1611.328708,-14.492877,0
0.019792,166.128604,4.943241,-161.916011,-2.804557,-4.995769,0.151481,4.982150,5.334403,-0.044795,-5.158719,-0.112226,0.446148,-0.014723,6.164772,188.495787,1610.081030,-13.689520,0
0.020833,119.459912,65.606218,-189.524609,-3.345004,-3.685767,-1.929378,5.546605,3.917784,2.021497,-5.539503,-0.115872,0.482665,-0.033307,12.446917,188.495600,1609.492815,-13.015158,0
0.021875,41.490427,121.160116,-193.704784,-3.435078,-1.623523,-4.018414,5.457684,1.901097,4.126612,-5.505232,-0.112226,0.458550,0.018727,17.119122,188.495689,1608.680281,-12.142858,0
0.022917,-27.247018,164.017658,-159.364160,-2.782039,0.284602,-5.232589,4.576207,-0.164964,5.205053,-4.499962,-0.104934,0.469092,0.022444,18.616479,188.571141,1608.328291,-11.492226,0
0.023958,-79.859471,195.106699,-86.198944,-1.363367,2.559676,-5.645491,2.612215,-2.534857,5.610546,-2.573194,-0.035656,0.468403,-0.003573,19.359529,188.495765,1607.010430,-10.655710,0
0.025000,-136.890194,180.343222,-17.250359,-0.012251,4.299006,-5.265294,0.613428,-4.202138,5.105836,-0.547422,-0.021072,0.462615,-0.022156,10.882010,188.495703,1605.773522,-9.381253,0
0.026042,-181.129402,130.708809,46.740344,1.192494,5.418195,-4.087912,-1.563202,-5.390882,3.967003,1.703012,0.015390,0.460066,0.007577,4.644898,188.495607,1604.318400,-8.971695,0
0.027083,-196.892797,58.982032,100.584401,2.273387,5.675058,-2.191019,-3.565855,-5.595969,2.038752,3.603125,0.062790,0.461513,0.011294,-1.186914,188.495716,1603.505668,-7.814007,0
0.028125,-165.953602,-4.570217,161.926040,3.489392,5.187018,-0.183746,-4.984724,-5.212381,0.063049,5.057721,0.081021,0.488659,0.000144,-5.577660,188.495767,1601.733881,-6.654285,0
0.029167,-119.748207,-65.256684,189.874885,4.007319,3.968753,1.872585,-5.541446,-3.822347,-2.020498,5.457544,0.091960,0.451384,-0.022156,-11.555831,188.495589,1600.613349,-5.374909,0
0.030208,-41.756123,-121.198167,193.532538,4.131172,1.946874,3.990237,-5.437060,-1.839840,-4.095417,5.423274,0.088314,0.473019,-0.007290,-16.757177,188.495693,1598.506929,-3.756928,0
0.031250,26.970023,-164.314099,159.787346,3.523169,-0.016294,5.216677,-4.601977,0.169252,-5.229937,4.456082,0.091960,0.461857,0.000144,-18.040626,188.495734,1598.404491,-2.149310,0
0.032292,80.068372,-194.498775,87.472748,2.059460,-2.262012,5.584609,-2.688245,2.523953,-5.648371,2.506467,0.037267,0.468678,0.003860,-18.198242,188.495754,1597.092563,-0.707198,0
0.033333,137.099095,-180.604428,18.086702,0.708344,-3.997672,5.241206,-0.681725,4.221617,-5.182485,0.511158,-0.002841,0.463580,-0.011006,-11.398214,188.495548,1596.811781,0.277444,0
0.034375,180.795907,-131.310621,-46.268551,-0.530179,-5.113192,4.096529,1.498771,5.429351,-4.060907,-1.712622,-0.032010,0.467162,0.000144,-5.307461,188.495662,1595.770517,0.804823,0
0.035417,196.875700,-59.959685,-100.404248,-1.599812,-5.417758,2.232340,3.470495,5.702800,-2.072263,-3.627966,-0.072118,0.468334,-0.003573,2.550850,188.420245,1595.769633,1.635734,0
0.036458,166.106004,3.686525,-161.891707,-2.782039,-4.977422,0.245508,4.928025,5.285031,-0.083619,-5.116832,-0.112226,0.456069,0.011294,6.097222,188.495658,1594.820995,1.618662,0
0.037500,120.680304,65.007223,-189.694732,-3.333744,-3.755487,-1.872145,5.465416,3.917784,1.939535,-5.543311,-0.145042,0.481218,0.022444,12.480692,188.495749,1594.781746,1.976218,0
0.038542,42.982017,121.042666,-193.133655,-3.401300,-1.715260,-3.928475,5.442220,1.901097,4.074847,-5.501424,-0.123164,0.477222,0.000144,17.119122,188.495653,1594.275864,1.918418,0
0.039583,-26.184826,164.170343,-159.777316,-2.770779,0.240569,-5.179444,4.568475,-0.100400,5.235249,-4.492346,-0.119518,0.481356,-0.011006,18.852904,188.420247,1594.589367,2.028686,0
0.040625,-79.859471,194.108373,-87.681448,-1.397145,2.526650,-5.641403,2.666341,-2.455101,5.614860,-2.573194,-0.064826,0.470263,0.015011,19.078070,188.495638,1594.085833,2.383606,0
0.041667,-137.048393,180.519397,-18.453375,-0.057288,4.229286,-5.236678,0.652089,-4.160361,5.144660,-0.528383,-0.028364,0.465991,-0.033307,11.512476,188.495696,1594.224687,2.226832,0
0.042708,-180.869503,131.577940,46.205671,1.203754,5.344805,-4.145146,-1.551603,-5.322520,3.979944,1.634471,0.033621,0.469505,-0.011006,5.691922,188.495627,1593.435926,2.921370,0
0.043750,-196.949297,60.602844,100.705918,2.295906,5.678727,-2.215548,-3.531060,-5.611161,2.034438,3.580278,0.051852,0.467507,0.015011,-1.412080,188.495680,1593.698892,2.618373,0
0.044792,-166.224800,-3.008131,162.156922,3.489392,5.201696,-0.240980,-4.949929,-5.212381,0.045794,4.992988,0.099252,0.476188,-0.007290,-5.892894,188.495709,1593.197911,2.261473,0
0.045833,-121.058999,-64.751649,189.680458,4.018579,3.924719,1.872585,-5.556910,-3.864124,-1.990302,5.423274,0.099252,0.482940,-0.014723,-11.780997,188.495615,1593.152670,2.509068,0
0.046875,-43.609310,-121.198167,193.228746,4.119912,1.961551,3.969797,-5.440927,-1.851234,-4.082476,5.404235,0.117483,0.480736,-0.022156,-16.577044,188.495636,1592.991206,2.097928,0
0.047917,26.054729,-164.208394,160.091138,3.478132,-0.019964,5.188060,-4.613576,0.127475,-5.208368,4.444659,0.084667,0.481287,-0.018440,-18.400892,188.495725,1592.637012,2.191832,0
0.048958,79.910173,-194.099445,88.602853,2.093238,-2.236325,5.580521,-2.692111,2.516357,-5.605234,2.495044,0.048206,0.472123,0.003860,-18.198242,188.495656,1592.048720,1.752593,0
0.050000,137.144295,-180.616173,18.961623,0.742122,-3.953639,5.277999,-0.720386,4.179840,-5.130720,0.484503,0.000805,0.467438,0.000144,-11.443248,188.495645,1591.111945,1.225408,0
0.051042,180.547308,-132.238477,-45.928304,-0.496401,-5.083836,4.141498,1.463975,5.414159,-4.078162,-1.693582,-0.028364,0.470470,0.007577,-5.037261,188.495589,1591.140043,1.261153,0
0.052083,196.887000,-60.993246,-100.428552,-1.599812,-5.421428,2.236428,3.447298,5.668619,-2.128342,-3.601311,-0.072118,0.471296,-0.014723,2.393233,188.420206,1590.955023,1.743188,0
0.053125,166.501501,2.641219,-161.515005,-2.815817,-4.995769,0.261861,4.850702,5.273637,-0.122443,-5.044483,-0.119518,0.485145,0.003860,6.130997,188.495761,1590.115549,2.082590,0
0.054167,121.459999,64.478697,-189.621822,-3.367522,-3.715123,-1.814911,5.422889,3.906391,1.905025,-5.505232,-0.086703,0.481218,-0.033307,12.446917,188.495687,1589.527070,2.036576,0
0.055208,44.270209,120.619845,-193.012138,-3.435078,-1.744616,-3.953004,5.376495,1.920086,4.005827,-5.459538,-0.101287,0.477566,0.015011,17.029055,188.495720,1588.563149,2.174446,0
0.056250,-25.427731,164.229068,-160.141867,-2.838335,0.200205,-5.159003,4.545278,-0.047229,5.123091,-4.469499,-0.123164,0.478600,0.003860,18.582704,188.495676,1587.196815,2.798182,0
0.057292,-79.814271,193.227498,-88.422700,-1.385885,2.475278,-5.526935,2.674073,-2.386739,5.563095,-2.573194,-0.086703,0.470814,0.026161,19.201912,188.495770,1586.025735,3.263437,0
0.058333,-137.093593,181.141882,-18.344009,-0.046029,4.196260,-5.191708,0.679152,-4.080605,5.127405,-0.577885,-0.006487,0.464337,-0.007290,10.983335,188.495611,1585.411736,4.331759,0
0.059375,-179.796010,132.165190,46.497311,1.169976,5.304441,-4.100177,-1.489745,-5.284541,4.048964,1.630663,0.011744,0.463648,-0.014723,4.847548,188.495740,1585.362160,4.882794,0
0.060417,-197.344794,61.002174,100.487188,2.239609,5.656711,-2.235988,-3.503997,-5.561788,2.051693,3.542200,0.048206,0.466336,-0.014723,-1.186914,188.420233,1584.740211,5.179190,0
0.061458,-166.236100,-3.078601,161.391367,3.455614,5.172340,-0.253244,-4.880338,-5.219976,0.101873,4.962525,0.135714,0.468265,0.000144,-5.566402,188.495721,1584.280687,5.952824,0
0.062500,-121.228497,-64.493259,190.057160,4.007319,3.983431,1.835791,-5.498918,-3.826145,-1.938537,5.392811,0.099252,0.474535,-0.003573,-11.522056,188.495745,1583.556604,6.100632,0
0.063542,-43.631910,-120.669642,192.997865,4.119912,1.943204,3.883946,-5.402265,-1.858830,-4.026397,5.320462,0.106545,0.475155,-0.022156,-16.655852,188.495595,1581.958871,6.291624,0
0.064583,26.088629,-164.549000,160.297716,3.478132,0.060765,5.159443,-4.598111,0.104687,-5.169544,4.402772,0.077375,0.476602,0.003860,-18.164467,188.420224,1581.284638,6.450203,0
0.065625,80.136172,-193.159844,88.687915,2.115757,-2.177614,5.523287,-2.661182,2.466985,-5.596606,2.487428,0.051852,0.469023,-0.014723,-18.141951,188.495665,1580.583470,6.926437,0
0.066667,137.008696,-181.356109,18.183916,0.719604,-3.927952,5.224853,-0.755181,4.145659,-5.204054,0.530197,-0.006487,0.462339,0.015011,-11.443248,188.495819,1581.317982,8.175901,0
0.067708,179.462516,-132.144517,-46.487281,-0.518919,-5.047142,4.084264,1.421448,5.341999,-4.047966,-1.651696,-0.035656,0.462615,0.037311,-5.487594,188.495607,1579.810157,8.734550,0
0.068750,197.203398,-60.370760,-100.112608,-1.622331,-5.410419,2.256869,3.443432,5.638236,-2.128342,-3.586080,-0.093995,0.464062,0.007577,2.618400,188.420318,1579.303293,8.954901,0
0.069792,166.117304,3.604310,-161.053242,-2.770779,-4.959074,0.286389,4.808175,5.292626,-0.109502,-4.994981,-0.119518,0.473570,0.011294,6.097222,188.495676,1578.721784,9.530270,0
0.070833,120.917602,64.889772,-189.779794,-3.333744,-3.759157,-1.835351,5.422889,3.929178,1.926594,-5.451922,-0.101287,0.483285,0.003860,12.390626,188.495566,1578.333489,9.878144,0
0.071875,43.106317,120.631590,-192.902773,-3.446337,-1.700582,-3.903946,5.341700,1.885905,4.001513,-5.478577,-0.093995,0.466129,-0.014723,16.984022,188.495678,1578.224587,9.985145,0
0.072917,-26.230025,164.252558,-160.166170,-2.827076,0.225891,-5.163091,4.576207,-0.077612,5.153287,-4.492346,-0.093995,0.466404,-0.011006,18.909196,188.420405,1578.823856,9.937803,0
0.073958,-79.904671,193.286223,-87.851572,-1.397145,2.442252,-5.543287,2.666341,-2.443707,5.571722,-2.565578,-0.064826,0.465233,0.000144,19.066812,188.495747,1579.134080,9.476872,0
0.075000,-136.652896,181.235842,-17.517696,-0.023510,4.207269,-5.257118,0.667553,-4.114786,5.123091,-0.574077,-0.006487,0.459239,0.007577,11.523735,188.495638,1579.280180,9.329381,0
0.076042,-179.649111,131.695390,46.886164,1.203754,5.344805,-4.128794,-1.536139,-5.322520,4.014454,1.634471,0.033621,0.458205,0.018727,5.624373,188.495694,1579.306381,9.105302,0
0.077083,-197.220495,59.757203,100.268458,2.262128,5.697075,-2.215548,-3.546525,-5.565586,2.030124,3.572663,0.081021,0.428096,-0.011006,-1.592214,188.420363,1579.205493,8.932237,0
0.078125,-166.055301,-3.971222,161.257698,3.478132,5.234721,-0.224627,-4.891937,-5.208583,0.067363,4.981564,0.095606,0.453382,-0.011006,-5.892894,188.495669,1579.175656,8.670680,0
0.079167,-120.437503,-65.033529,189.753368,3.984801,3.957745,1.839880,-5.471856,-3.829943,-1.990302,5.423274,0.110191,0.460961,-0.007290,-11.679672,188.495673,1579.559702,8.468854,0
0.080208,-42.501918,-120.716622,193.277353,4.142431,1.935865,3.928915,-5.417730,-1.786670,-4.091104,5.377580,0.113837,0.459583,-0.007290,-16.486977,188.495653,1580.466308,7.650788,0
0.081250,26.890924,-164.067454,160.176199,3.433095,0.009392,5.163531,-4.609709,0.135070,-5.130720,4.398964,0.081021,0.450489,-0.022156,-18.434667,188.420253,1579.877162,7.690506,0
0.082292,80.147472,-193.723605,88.043876,2.115757,-2.210639,5.551904,-2.672780,2.501166,-5.596606,2.472196,0.081021,0.463304,0.011294,-18.186984,188.495595,1580.067624,7.387736,0
0.083333,136.455000,-181.203424,17.661394,0.697085,-3.913275,5.237118,-0.751315,4.202627,-5.199740,0.526389,0.008098,0.461788,-0.018440,-11.454506,188.495765,1580.321447,6.972735,0
0.084375,179.417316,-131.839147,-46.669556,-0.518919,-5.098514,4.088352,1.398251,5.353393,-4.069535,-1.666928,-0.039302,0.461513,-0.014723,-5.014744,188.495691,1580.598695,7.064099,0
0.085417,197.146899,-59.654315,-99.942485,-1.611071,-5.395742,2.199635,3.439566,5.638236,-2.102459,-3.601311,-0.068472,0.475017,-0.003573,2.517075,188.420238,1580.434353,6.829013,0
0.086458,166.230303,4.085855,-160.798057,-2.804557,-4.937057,0.237332,4.819773,5.269839,-0.152639,-5.017828,-0.101287,0.452556,-0.011006,6.187289,188.495665,1580.392434,7.170264,0
0.087500,120.250907,64.983733,-189.658277,-3.333744,-3.689437,-1.843528,5.422889,3.910189,1.939535,-5.470962,-0.119518,0.474259,-0.018440,12.424401,188.495627,1580.341786,7.026893,0
0.088542,42.530020,120.220515,-193.012138,-3.446337,-1.726269,-3.887594,5.333968,1.923884,3.971317,-5.463346,-0.090349,0.478875,0.011294,16.984022,188.495644,1579.913863,7.735385,0
0.089583,-26.602923,164.064638,-160.178322,-2.782039,0.178188,-5.163091,4.556877,-0.081410,5.136032,-4.461883,-0.090349,0.478669,-0.003573,18.605221,188.420242,1579.392907,7.656530,0
0.090625,-79.859471,193.027833,-88.082453,-1.419663,2.456930,-5.510582,2.623813,-2.401930,5.558781,-2.599849,-0.039302,0.467851,0.007577,19.201912,188.495707,1579.160233,8.350195,0
0.091667,-136.449497,181.470743,-17.687819,-0.034769,4.188921,-5.183532,0.648223,-4.118584,5.101522,-0.600732,-0.032010,0.457172,0.015011,11.017110,188.495731,1579.038808,8.403136,0
0.092708,-178.903316,131.953780,46.801102,1.215013,5.319119,-4.059295,-1.509076,-5.276945,3.971317,1.600201,0.029975,0.460961,0.003860,4.903840,188.495622,1577.880630,8.417407,0
0.093750,-197.378694,59.945123,100.207700,2.250869,5.656711,-2.211460,-3.496265,-5.595969,2.081889,3.526969,0.059144,0.456827,0.000144,-1.164397,188.344934,1578.211286,9.361329,0
0.094792,-166.089201,-3.748066,160.966058,3.523169,5.172340,-0.285949,-4.884204,-5.197189,0.101873,4.966333,0.099252,0.451522,0.007577,-5.498852,188.495779,1577.863473,9.658041,0
0.095833,-120.494002,-64.587219,190.093615,4.052357,3.935728,1.848056,-5.475722,-3.875518,-1.934223,5.389003,0.106545,0.473088,-0.003573,-11.454506,188.495689,1577.627936,10.583832,0
0.096875,-42.852215,-120.340782,193.022168,4.131172,1.950543,3.892122,-5.413864,-1.866426,-4.013456,5.404235,0.095606,0.457861,0.003860,-16.599560,188.495647,1577.438993,12.010260,0
0.097917,26.359827,-164.466785,160.552901,3.500651,-0.001616,5.159443,-4.629040,0.138868,-5.173858,4.395157,0.081021,0.488452,0.015011,-18.130692,188.420271,1578.088327,11.527245,0
0.098958,80.045773,-192.842729,89.101072,2.115757,-2.188622,5.519199,-2.715307,2.463187,-5.583665,2.544545,0.037267,0.471090,-0.014723,-18.108176,188.495783,1578.021609,12.293861,0
0.100000,136.669698,-181.591009,18.560617,0.742122,-3.916944,5.265735,-0.759047,4.149457,-5.173858,0.545429,0.008098,0.463993,0.007577,-11.488281,188.495662,1577.507297,12.486257,0
0.101042,179.067018,-132.367672,-46.244248,-0.541438,-5.036133,4.108793,1.429180,5.349595,-4.039338,-1.647888,-0.061180,0.467162,-0.007290,-5.645210,188.495682,1577.133422,12.159657,0
0.102083,197.406797,-60.805326,-99.978940,-1.588553,-5.406750,2.252781,3.424102,5.645832,-2.128342,-3.601311,-0.064826,0.465922,0.000144,2.472042,188.420251,1577.596898,12.082119,0
0.103125,166.207703,2.864374,-161.114000,-2.804557,-4.966413,0.229155,4.819773,5.250849,-0.169894,-5.010213,-0.097641,0.467369,-0.040740,6.052189,188.495606,1577.421600,11.852521,0
0.104167,121.267900,64.396482,-189.877007,-3.299967,-3.744479,-1.823087,5.461550,3.925380,1.887770,-5.448115,-0.104934,0.467369,0.015011,12.446917,188.495553,1577.288563,12.138536,0
0.105208,43.908611,120.408435,-192.708347,-3.435078,-1.696913,-3.899858,5.368763,1.923884,3.954062,-5.455730,-0.101287,0.467851,0.007577,16.972764,188.495645,1577.176104,11.878252,0
0.106250,-25.574630,164.334773,-160.482113,-2.793298,0.225891,-5.171267,4.572341,-0.054825,5.123091,-4.534232,-0.112226,0.476119,0.003860,18.864162,188.344800,1577.854200,12.364212,0
0.107292,-79.576973,192.969108,-88.981677,-1.419663,2.442252,-5.543287,2.658608,-2.409526,5.571722,-2.546539,-0.061180,0.470745,-0.007290,19.010521,188.495568,1577.806585,11.371372,0
0.108333,-136.777195,181.318057,-18.817925,-0.079807,4.203599,-5.265294,0.690750,-4.110988,5.148974,-0.589308,-0.042949,0.464062,-0.003573,11.602543,188.495636,1578.300831,11.202300,0
0.109375,-179.592612,132.411835,46.047699,1.215013,5.275085,-4.108353,-1.489745,-5.303530,3.962689,1.604009,-0.010133,0.467576,-0.022156,5.894572,188.495767,1578.806091,10.720995,0
0.110417,-197.254395,61.331034,100.268458,2.250869,5.689736,-2.195107,-3.500131,-5.599767,2.073262,3.538392,0.081021,0.464544,0.011294,-1.367047,188.344834,1579.052623,10.099469,0
0.111458,-166.462099,-2.350410,161.549338,3.511910,5.183349,-0.269597,-4.907401,-5.197189,0.119128,4.943486,0.077375,0.474466,-0.011006,-5.791569,188.495586,1579.129963,9.993927,0
0.112500,-121.623995,-64.093928,189.838430,4.052357,3.954075,1.868497,-5.522115,-3.841337,-1.934223,5.408043,0.102898,0.480116,0.018727,-11.747222,188.495618,1579.221838,9.187940,0
