1-Time,2-VGERA,3-VGERB,4-VGERC,5-VN,6-IGERAN,7-IGERBN,8-IGERCN,9-IGERAT,10-IGERBT,11-IGERCT,12-IN,13-IFD,14-IFAULT,15-VFAULT,16-Speed (rad/s),17-Active Power,18-Reactive Power,19-FAULT 
0.000000,125.177674,-191.539033,32.693012,0.899753,-4.096804,5.464114,-0.840284,4.050016,-5.450551,1.050842,-0.171072,0.464958,-0.093440,109.527450,188.476238,1595.054712,-6.076161,0
0.001042,164.625714,-149.832502,-33.618661,-0.372548,-5.241680,4.313615,1.354980,5.119981,-4.402134,-1.083895,-0.112733,0.464337,-0.067423,135.365305,188.484023,1593.716382,-4.721879,0
0.002083,197.790994,-75.486588,-85.664271,-1.408404,-5.975574,2.503390,3.546459,5.809111,-2.584315,-3.415452,-0.087210,0.460066,-0.134323,156.778639,188.709559,1592.142882,-4.046872,0
0.003125,176.321136,-11.746418,-145.924411,-2.590631,-5.450840,0.673052,4.689510,5.446411,-0.855273,-4.562305,-0.043455,0.455312,-0.130607,129.150710,188.496339,1591.220133,-3.065471,0
0.004167,129.708944,47.976958,-189.974221,-3.311226,-4.416048,-1.575650,5.654669,4.376446,1.419114,-5.603179,-0.039809,0.449731,-0.126890,86.380335,188.495779,1589.407698,-2.605545,0
0.005208,58.123917,103.683541,-194.932103,-3.536412,-2.408847,-3.542761,5.541121,2.515795,3.435625,-5.519909,-0.021578,0.446837,-0.100873,30.313878,188.514536,1588.049473,-1.380113,0
0.006250,-5.551162,162.537786,-168.259183,-2.973447,-0.298900,-5.043237,4.840908,0.466540,4.919473,-4.827255,-0.028871,0.467507,-0.108307,-17.691618,188.438375,1586.948964,-0.522939,0
0.007292,-64.242974,183.960685,-111.705303,-1.915073,2.023877,-5.457577,2.937084,-1.709660,5.418316,-3.044523,-0.109087,0.466129,-0.100873,-62.128225,188.511042,1586.591730,0.459027,0
0.008333,-124.855773,191.042926,-32.415645,-0.361289,4.023739,-5.445509,1.002981,-3.657359,5.401406,-0.996840,-0.105440,0.462477,-0.152907,-108.793981,188.498561,1584.964027,1.501546,0
0.009375,-164.303813,150.463916,34.224122,0.899753,5.172284,-4.307079,-1.146864,-4.850642,4.412175,1.092477,-0.156487,0.460272,-0.093440,-134.564286,188.551439,1584.687667,3.858070,0
0.010417,-197.378694,75.859612,86.087457,1.946867,5.898840,-2.516967,-3.398902,-5.412827,2.573218,3.446744,-0.225764,0.428096,-0.089723,-155.820003,188.478308,1582.402679,4.931284,0
0.011458,-176.835430,11.825817,145.849378,3.140353,5.399792,-0.718810,-4.462470,-5.053754,0.890678,4.574672,-0.240349,0.453038,-0.097156,-128.653665,188.544550,1580.498097,6.112117,0
0.012501,-129.793841,-48.026755,189.826278,3.973542,4.350322,1.558051,-5.476833,-4.023686,-1.366799,5.611761,-0.262226,0.442772,-0.104590,-86.727664,188.478711,1577.542882,7.197451,0
0.013542,-58.344413,-103.416222,195.148711,4.108653,2.379815,3.509071,-5.333005,-2.206559,-3.438268,5.532276,-0.269518,0.439809,-0.089723,-30.312200,188.488892,1575.972558,7.691255,0
0.014583,5.206367,-162.646308,168.232758,3.556947,0.302894,4.993456,-4.632792,-0.222590,-4.879840,4.888827,-0.262226,0.473501,-0.134323,16.578722,188.571279,1574.828075,9.330673,0
0.015625,64.112878,-183.986991,112.638860,2.498573,-1.990527,5.395728,-2.800882,1.939102,-5.366001,3.090954,-0.196595,0.470883,-0.093440,62.659045,188.514215,1573.191326,9.993960,0
0.016667,124.736977,-191.233663,33.033258,0.877234,-3.968373,5.423887,-0.874349,3.955714,-5.349091,1.111402,-0.123671,0.460892,-0.112023,109.752617,188.515576,1571.278014,10.927724,0
0.017708,164.298016,-150.924788,-33.849543,-0.417586,-5.168290,4.257297,1.256571,5.090965,-4.397907,-1.008195,-0.116379,0.460686,-0.104590,134.475898,188.522916,1571.005857,11.716096,0
0.018750,196.920900,-76.132564,-85.883001,-1.397145,-5.876498,2.519481,3.474545,5.743825,-2.618135,-3.354892,-0.076271,0.457241,-0.074856,156.981289,188.499822,1569.918994,12.528390,0
0.019792,177.236430,-11.875613,-145.559860,-2.545593,-5.384789,0.753506,4.545682,5.352109,-0.889093,-4.486606,-0.072625,0.457241,-0.071140,130.186476,188.563374,1568.429182,12.810567,0
0.020833,130.160941,48.176623,-189.390940,-3.299967,-4.405040,-1.495196,5.590325,4.347430,1.355702,-5.557759,-0.006994,0.466060,-0.097156,86.796893,188.487897,1567.394382,13.330745,0
0.021875,58.813213,103.260720,-195.272349,-3.536412,-2.430863,-3.482421,5.514627,2.555692,3.393350,-5.478274,-0.032517,0.453658,-0.141757,32.554285,188.542989,1566.905936,13.708876,0
0.022917,-4.613268,162.349866,-167.943240,-3.052262,-0.335594,-4.970828,4.799273,0.535453,4.864516,-4.793190,-0.068979,0.460410,-0.123173,-16.498235,188.561680,1565.867626,14.306964,0
0.023958,-64.062175,183.972430,-112.507313,-1.881295,1.932140,-5.421373,2.956009,-1.629866,5.392951,-3.018028,-0.050748,0.466749,-0.104590,-62.499750,188.490582,1565.173525,14.640527,0
0.025000,-124.448976,190.925476,-32.804499,-0.383808,3.961358,-5.389191,1.052185,-3.584819,5.354904,-1.038475,-0.112733,0.457792,-0.119457,-108.625106,188.495841,1564.073312,15.333205,0
0.026042,-164.100414,150.921971,34.139061,0.933530,5.109903,-4.286965,-1.131724,-4.767221,4.365672,1.126542,-0.156487,0.457930,-0.093440,-134.519252,188.510594,1562.877811,14.806031,0
0.027083,-196.576400,76.411627,86.038850,1.924349,5.818111,-2.537081,-3.342128,-5.412827,2.615493,3.431604,-0.207533,0.464889,-0.093440,-155.470994,188.430507,1562.829186,15.194444,0
0.028125,-177.264827,12.013737,145.630648,3.072797,5.366766,-0.795242,-4.409481,-5.031992,0.890678,4.559532,-0.211179,0.433126,-0.100873,-130.083472,188.516306,1562.536578,15.049239,0
0.029167,-130.415337,-48.238165,189.218695,3.984801,4.376009,1.429324,-5.412489,-4.038194,-1.341434,5.596621,-0.233057,0.442289,-0.115740,-87.954822,188.500578,1562.366848,15.380350,0
0.030208,-58.999809,-103.345752,195.306682,4.097394,2.427519,3.432639,-5.314081,-2.195678,-3.319898,5.524706,-0.243995,0.457241,-0.089723,-30.638691,188.491339,1561.511816,16.088841,0
0.031250,4.404072,-162.282213,168.184151,3.635763,0.335919,4.921047,-4.629007,-0.258860,-4.850248,4.835837,-0.251287,0.473088,-0.093440,16.702564,188.485639,1560.565104,16.016279,0
0.032292,64.338876,-183.693366,113.088472,2.476055,-1.917137,5.391705,-2.800882,1.877443,-5.340636,3.079599,-0.182010,0.470607,-0.082290,62.523945,188.474597,1559.932631,16.525973,0
0.033333,124.341480,-190.998762,33.118320,0.922271,-3.953695,5.307228,-0.885703,3.843277,-5.302589,1.122757,-0.156487,0.460341,-0.112023,109.054601,188.479652,1558.365016,17.314047,0
0.034375,163.879919,-151.441568,-33.885998,-0.406326,-5.091231,4.265343,1.192227,5.043814,-4.372542,-0.913570,-0.127317,0.459583,-0.104590,134.048082,188.479357,1557.476841,18.294597,0
0.035417,195.903907,-76.778539,-85.822242,-1.453441,-5.828795,2.547640,3.417771,5.664031,-2.639273,-3.233772,-0.058040,0.458825,-0.100873,155.934265,188.495669,1555.677602,19.512210,0
0.036458,177.643228,-12.075279,-145.037339,-2.556853,-5.392128,0.817870,4.504048,5.333974,-0.952506,-4.384411,-0.058040,0.487970,-0.119457,130.107668,188.509955,1554.575612,20.669757,0
0.037500,130.669438,48.188368,-188.516020,-3.390041,-4.394031,-1.438878,5.522196,4.380073,1.283835,-5.493414,-0.076271,0.479564,-0.097156,87.472393,188.518121,1553.698454,21.749454,0
0.038542,59.796306,102.967095,-195.248046,-3.457597,-2.500583,-3.401966,5.457852,2.602843,3.266526,-5.444209,-0.010640,0.455312,-0.100873,31.743686,188.520641,1552.669864,22.959131,0
0.039583,-3.596275,162.150201,-167.931088,-2.950928,-0.405314,-4.886351,4.791703,0.560842,4.741919,-4.755340,-0.061686,0.490864,-0.071140,-16.813468,188.497084,1551.000607,23.325007,0
0.040625,-64.039575,183.631824,-113.054139,-1.982628,1.888106,-5.361032,2.959793,-1.579088,5.283037,-3.036953,-0.065333,0.462684,-0.089723,-62.026900,188.492900,1549.632890,24.007802,0
0.041667,-123.782281,190.596615,-33.120442,-0.395067,3.854944,-5.320805,1.048400,-3.446993,5.283037,-1.000625,-0.098148,0.456069,-0.108307,-108.321131,188.487691,1547.361965,24.212819,0
0.042708,-163.648417,151.955532,34.211971,0.922271,5.043853,-4.262829,-1.003036,-4.683800,4.336080,0.982712,-0.160133,0.457241,-0.086006,-133.449712,188.470977,1546.096202,25.806793,0
0.043750,-195.322108,77.163308,86.184670,1.969386,5.755730,-2.569263,-3.236150,-5.336660,2.611265,3.249924,-0.207533,0.454967,-0.089723,-154.919337,188.480557,1543.805691,27.410038,0
0.044792,-178.293120,12.319107,144.877245,3.106575,5.322733,-0.839492,-4.322427,-4.984841,0.924498,4.430842,-0.262226,0.454898,-0.078573,-129.779498,188.480345,1542.245816,28.139910,0
0.045833,-130.957733,-48.073735,188.331623,3.962282,4.331975,1.381051,-5.321651,-3.991043,-1.231520,5.460361,-0.262226,0.456138,-0.093440,-87.774689,188.495873,1539.758756,29.133660,0
0.046875,-59.813403,-102.887697,195.549716,4.108653,2.475222,3.344139,-5.249737,-2.293607,-3.231121,5.520921,-0.273164,0.463855,-0.126890,-31.516840,188.496114,1539.623536,30.586435,0
0.047917,3.319280,-162.000332,167.856056,3.523169,0.405639,4.848638,-4.594943,-0.306011,-4.685376,4.832052,-0.247641,0.474810,-0.115740,15.801898,188.290977,1537.763566,31.677967,0
0.048958,63.999879,-184.010481,113.878330,2.464795,-1.829070,5.323319,-2.812237,1.826665,-5.243404,3.121234,-0.189302,0.465095,-0.112023,62.501429,188.443982,1536.938992,32.424876,0
0.050000,123.460086,-190.564197,33.251989,0.944790,-3.854619,5.246887,-0.904628,3.777991,-5.218039,1.096262,-0.149195,0.454967,-0.119457,109.009568,188.519587,1535.059334,32.144941,0
0.051042,163.766919,-152.510364,-33.752329,-0.372548,-5.054537,4.257297,1.124099,4.985782,-4.342950,-0.887075,-0.152841,0.456758,-0.119457,133.642782,188.427476,1534.372314,32.224566,0
0.052083,194.728715,-77.541965,-85.919456,-1.385885,-5.740728,2.543618,3.326932,5.573356,-2.618135,-3.184567,-0.076271,0.460892,-0.093440,155.787906,188.490421,1532.655722,32.293756,0
0.053125,178.603721,-12.345414,-144.514817,-2.523075,-5.340755,0.842006,4.447274,5.279569,-0.994780,-4.289786,-0.043455,0.484043,-0.100873,131.424892,188.480872,1531.400690,32.918081,0
0.054167,131.596032,47.976958,-187.774768,-3.266189,-4.361006,-1.354400,5.465422,4.300279,1.224650,-5.357154,-0.032517,0.462891,-0.108307,88.024050,188.473895,1528.956214,32.994189,0
0.055208,60.316103,102.556020,-195.563990,-3.480115,-2.522600,-3.349671,5.397293,2.606470,3.253843,-5.436639,0.007591,0.452556,-0.078573,33.747667,188.489803,1528.897129,32.845207,0
0.056250,-2.714881,161.645166,-167.493628,-2.962187,-0.419992,-4.805896,4.738714,0.611620,4.640459,-4.740200,-0.036163,0.455863,-0.112023,-15.507503,188.495054,1527.467499,33.606929,0
0.057292,-63.892676,183.878470,-113.698177,-1.937591,1.796369,-5.288623,2.990073,-1.524683,5.232307,-3.044523,-0.072625,0.469229,-0.115740,-62.285842,188.495698,1526.891671,34.109560,0
0.058333,-123.262484,190.244265,-33.278414,-0.440104,3.788893,-5.256441,1.116529,-3.407096,5.253444,-1.068755,-0.109087,0.454898,-0.115740,-107.983381,188.431730,1526.215223,34.969510,0
0.059375,-163.535418,152.460568,34.163364,0.922271,4.992480,-4.258806,-0.927338,-4.636649,4.340307,0.956217,-0.160133,0.454347,-0.112023,-133.663620,188.514324,1525.804811,35.388669,0
0.060417,-194.452014,77.691833,86.160367,1.958127,5.667663,-2.533058,-3.145311,-5.220596,2.615493,3.219644,-0.207533,0.444770,-0.126890,-154.311387,188.288756,1524.096908,35.566961,0
0.061458,-178.677318,12.507027,144.464088,3.117835,5.256682,-0.835469,-4.224019,-4.952198,0.975228,4.336218,-0.218472,0.442841,-0.100873,-131.231822,188.423901,1522.927616,36.495563,0
0.062500,-131.726128,-47.838834,187.638977,3.883467,4.317297,1.377028,-5.283801,-3.969281,-1.206155,5.411156,-0.254934,0.442427,-0.100873,-89.159462,188.497775,1522.046080,36.448009,0
0.063542,-60.694797,-102.605816,195.634777,4.018579,2.445866,3.311958,-5.208102,-2.253710,-3.142344,5.452791,-0.265872,0.440911,-0.104590,-31.798299,188.483730,1520.535021,36.364868,0
0.064583,2.392686,-161.483552,167.734539,3.613244,0.431325,4.784274,-4.526814,-0.353162,-4.655784,4.779062,-0.243995,0.474535,-0.097156,16.083356,188.397064,1519.540699,36.372245,0
0.065625,63.909479,-183.716856,114.498065,2.464795,-1.785036,5.238842,-2.842516,1.815784,-5.196902,3.136374,-0.225764,0.465784,-0.082290,62.265004,188.489575,1519.079502,36.475775,0
0.066667,122.940289,-190.481982,33.677297,0.944790,-3.770221,5.238842,-0.942477,3.698197,-5.243404,1.153037,-0.185656,0.456621,-0.130607,108.356585,188.467576,1518.770292,37.596608,0
0.067708,163.495721,-152.850970,-33.971059,-0.361289,-4.955461,4.233161,1.040830,4.895107,-4.313357,-0.837870,-0.120025,0.454554,-0.074856,133.214965,188.488024,1517.475680,38.336007,0
0.068750,193.915120,-78.258411,-85.919456,-1.397145,-5.682016,2.547640,3.266373,5.558848,-2.668865,-3.139147,-0.072625,0.427131,-0.097156,154.988565,188.340264,1517.168966,39.087753,0
0.069792,179.044418,-12.674274,-144.065205,-2.478038,-5.304061,0.894301,4.337511,5.283196,-1.041283,-4.286001,-0.058040,0.471021,-0.112023,131.278534,188.436418,1517.266106,39.423412,0
0.070833,132.262727,47.918233,-186.911999,-3.356263,-4.349998,-1.290037,5.401078,4.336549,1.127418,-5.315519,-0.006994,0.474052,-0.108307,88.902200,188.445421,1516.654399,40.694558,0
0.071875,61.174897,102.415080,-195.442473,-3.513893,-2.529939,-3.273239,5.363229,2.617351,3.160839,-5.345799,-0.006994,0.471296,-0.126890,32.655610,188.426956,1515.031252,41.210162,0
0.072917,-1.720487,161.210600,-167.602993,-2.950928,-0.478704,-4.697283,4.723575,0.658771,4.572819,-4.694780,-0.043455,0.474810,-0.100873,-16.115452,188.346805,1513.824478,41.428827,0
0.073958,-63.553679,183.678805,-114.609553,-1.948850,1.748666,-5.184032,2.959793,-1.441262,5.185805,-3.052092,-0.050748,0.469023,-0.100873,-61.745442,188.430446,1513.060517,42.080705,0
0.075000,-122.629688,189.833190,-33.472841,-0.395067,3.682478,-5.236327,1.127884,-3.320048,5.164667,-1.133100,-0.127317,0.454554,-0.112023,-107.656890,188.420680,1511.296391,43.062784,0
0.076042,-163.298119,153.482384,34.236274,0.899753,4.878726,-4.258806,-0.855424,-4.564109,4.382582,0.888087,-0.145548,0.455174,-0.093440,-132.909312,188.495921,1511.002890,44.284978,0
0.077083,-193.163822,78.572709,86.427704,1.991905,5.645646,-2.617535,-3.077182,-5.148056,2.683133,3.155299,-0.222118,0.443461,-0.097156,-153.917346,188.345133,1509.929954,45.425289,0
0.078125,-179.536112,12.859378,144.306116,3.084057,5.256682,-0.919946,-4.152105,-4.941317,1.055550,4.332433,-0.233057,0.459032,-0.100873,-130.905330,188.420432,1510.137514,46.097120,0
0.079167,-132.449323,-47.862324,186.606085,3.939764,4.335644,1.312665,-5.234597,-4.020059,-1.117378,5.343026,-0.280457,0.485765,-0.093440,-89.091913,188.420736,1509.334728,47.470375,0
0.080208,-61.338893,-102.335681,196.011479,4.052357,2.544942,3.219435,-5.185393,-2.351639,-3.112751,5.441436,-0.280457,0.479702,-0.104590,-32.383731,188.439448,1509.608165,48.471569,0
0.081250,1.624291,-161.037242,167.625174,3.545688,0.482698,4.703820,-4.564663,-0.396686,-4.571234,4.782847,-0.192949,0.437949,-0.119457,15.238982,188.288935,1508.663014,49.160393,0
0.082292,63.525282,-184.092696,115.081346,2.509832,-1.715316,5.182524,-2.865226,1.714228,-5.175764,3.155299,-0.214826,0.462408,-0.089723,62.084871,188.366824,1508.317645,50.191846,0
0.083333,122.296193,-189.871241,34.029696,0.944790,-3.726187,5.254933,-0.972757,3.629284,-5.192674,1.228737,-0.174718,0.456965,-0.097156,108.289035,188.504283,1507.105740,51.234181,0
0.084375,163.495721,-153.849295,-33.800936,-0.361289,-4.929774,4.281434,1.037045,4.891480,-4.368315,-0.815161,-0.109087,0.457241,-0.089723,133.181191,188.492745,1507.789810,51.662920,0
0.085417,192.706028,-78.986601,-85.992366,-1.363367,-5.685686,2.603958,3.183105,5.515324,-2.702685,-3.025598,-0.058040,0.450489,-0.115740,154.617041,188.276070,1506.526624,52.947858,0
0.086458,179.824113,-13.108840,-143.810020,-2.489297,-5.322408,0.994870,4.341296,5.239672,-1.045510,-4.233011,-0.036163,0.487763,-0.119457,132.640791,188.419998,1505.764816,52.916327,0
0.087500,132.974623,47.812528,-186.377326,-3.322485,-4.349998,-1.209582,5.423788,4.322041,1.064005,-5.239820,-0.028871,0.476602,-0.112023,89.284983,188.419999,1504.572982,53.501080,0
0.088542,62.011092,102.097964,-196.171573,-3.468856,-2.559295,-3.228989,5.355659,2.653621,3.122791,-5.387434,-0.003348,0.467989,-0.119457,34.490717,188.495305,1505.270482,53.928901,0
0.089583,-1.053792,160.893485,-167.359959,-3.041003,-0.489712,-4.669124,4.708435,0.676906,4.534772,-4.698565,-0.068979,0.472537,-0.089723,-14.888295,188.344516,1504.789092,54.142897,0
0.090625,-63.508479,183.960685,-114.791828,-1.982628,1.693624,-5.240350,3.031707,-1.430381,5.177350,-3.101297,-0.065333,0.467645,-0.082290,-62.026900,188.360358,1505.117874,54.691073,0
0.091667,-122.335890,189.786210,-33.630812,-0.350030,3.682478,-5.248396,1.146808,-3.298286,5.232307,-1.152025,-0.120025,0.455380,-0.126890,-107.476757,188.440639,1505.688103,55.175293,0
0.092708,-163.298119,153.752519,34.053999,0.911012,4.860379,-4.266851,-0.828929,-4.538720,4.369900,0.865377,-0.145548,0.455725,-0.112023,-133.292095,188.442812,1505.327359,55.354297,0
0.093750,-192.892624,79.183450,86.123912,1.969386,5.619960,-2.625581,-3.046903,-5.151683,2.645085,3.125019,-0.211179,0.452969,-0.100873,-153.512046,188.278309,1504.931273,55.009849,0
0.094792,-179.976809,13.282198,143.978021,3.106575,5.304385,-0.968219,-4.155890,-4.984841,1.106280,4.336218,-0.222118,0.451729,-0.108307,-132.267587,188.491478,1505.579005,55.506557,0
0.095833,-133.229018,-47.533464,186.338749,3.928504,4.328306,1.216119,-5.242167,-4.020059,-1.075103,5.369521,-0.243995,0.451591,-0.108307,-90.352845,188.432883,1505.841362,55.608725,0
0.096875,-61.982989,-102.089036,195.889963,4.108653,2.508247,3.239549,-5.211887,-2.377028,-3.142344,5.486856,-0.287749,0.471503,-0.141757,-32.406248,188.495385,1506.716399,55.434141,0
0.097917,1.160994,-160.990262,167.843904,3.568207,0.519393,4.687729,-4.579803,-0.382178,-4.575461,4.790417,-0.240349,0.475637,-0.152907,15.790640,188.344596,1506.898945,55.085847,0
0.098958,63.615681,-183.928266,115.300076,2.532351,-1.715316,5.238842,-2.876581,1.688839,-5.234949,3.227214,-0.200241,0.472881,-0.115740,61.961029,188.269263,1507.981825,55.918560,0
0.100000,122.126694,-190.176612,33.956785,0.911012,-3.755543,5.230796,-0.991682,3.647419,-5.196902,1.236307,-0.174718,0.457585,-0.108307,107.894993,188.419914,1508.254191,55.826978,0
0.101042,163.394022,-153.966746,-33.898149,-0.383808,-4.918766,4.345797,0.991626,4.866091,-4.427499,-0.750816,-0.130964,0.457654,-0.093440,132.910991,188.510590,1508.423299,57.117299,0
0.102083,192.694728,-79.538617,-85.846546,-1.307070,-5.671008,2.664299,3.183105,5.504443,-2.753415,-2.995318,-0.054394,0.460755,-0.119457,154.493199,188.284526,1508.472151,57.743172,0
0.103125,180.016212,-13.531660,-143.579138,-2.489297,-5.329747,1.010960,4.299661,5.312212,-1.121605,-4.157311,-0.043455,0.468334,-0.089723,132.190458,188.211935,1508.659515,59.262129,0
0.104167,133.618718,47.248767,-186.073534,-3.299967,-4.394031,-1.217628,5.374584,4.365565,1.080915,-5.292809,-0.025225,0.471779,-0.108307,89.926707,188.428740,1509.708518,58.923326,0
0.105208,62.609988,101.804339,-195.892085,-3.480115,-2.592320,-3.257148,5.385939,2.733415,3.135474,-5.447994,-0.036163,0.435399,-0.104590,33.117201,188.487528,1510.821191,59.513887,0
0.106250,-0.895593,160.517645,-167.554386,-3.029743,-0.515399,-4.673146,4.727359,0.709549,4.555909,-4.713705,-0.025225,0.477773,-0.056273,-15.833994,188.276456,1511.151620,59.706283,0
0.107292,-63.293780,183.948940,-115.290046,-2.027666,1.708302,-5.252418,3.061987,-1.401365,5.270354,-3.116437,-0.068979,0.471021,-0.097156,-61.486501,188.269816,1512.282632,59.821570,0
0.108333,-121.770894,189.809700,-33.776633,-0.372548,3.653123,-5.232305,1.169518,-3.305540,5.206942,-1.148240,-0.145548,0.454760,-0.112023,-107.139007,188.419688,1511.944956,59.441722,0
0.109375,-163.252920,154.269299,33.835269,0.967308,4.900743,-4.323169,-0.787295,-4.607633,4.386810,0.816172,-0.189302,0.455174,-0.115740,-132.594079,188.420481,1512.861684,59.643873,0
0.110417,-192.180729,79.664995,86.002395,1.958127,5.652985,-2.649717,-3.065828,-5.169818,2.700043,3.109879,-0.203887,0.451109,-0.089723,-153.523304,188.345098,1513.119981,60.155159,0
