1-Time,2-VGERA,3-VGERB,4-VGERC,5-VN,6-IGERAN,7-IGERBN,8-IGERCN,9-IGERAT,10-IGERBT,11-IGERCT,12-IN,13-IFD,14-IFAULT,15-VFAULT,16-Speed (rad/s),17-Active Power,18-Reactive Power,19-FAULT 
0.000000,-126.307634,-70.126756,188.598107,6.502008,6.174949,-0.569001,-5.479321,-6.142049,0.869948,5.239254,-0.256295,0.605388,0.012853,-116.999609,188.495743,1609.252084,895.274038,0
0.001042,-48.135120,-126.121746,193.214584,6.603798,4.818743,1.835961,-6.348730,-4.980512,-1.610297,6.171410,-0.259948,0.611594,-0.050629,-39.311221,188.721822,1608.254351,896.140947,0
0.002083,25.046693,-174.312472,163.730682,6.072228,2.908693,4.129802,-6.490522,-3.017661,-3.868118,6.292377,-0.296478,0.615579,-0.058098,33.638278,188.495671,1607.000652,896.960577,0
0.003125,91.252868,-183.361069,105.636932,4.918608,0.345392,5.764859,-5.393499,-0.426258,-5.597156,5.292622,-0.278213,0.604735,-0.028224,95.809346,188.571125,1606.644526,897.645038,0
0.004167,139.810113,-191.080767,18.108523,3.256038,-2.054596,6.590324,-3.770353,1.999738,-6.470068,3.712938,-0.212459,0.603690,-0.028224,142.417855,188.495732,1606.019041,898.331548,0
0.005208,167.066142,-153.074243,-56.456818,1.842288,-4.099556,6.205371,-1.378545,4.083888,-6.176299,1.556883,-0.175929,0.596439,-0.039427,167.492125,188.721857,1605.621961,898.735389,0
0.006250,193.505510,-69.824733,-110.561932,0.801768,-5.860494,5.078294,1.349086,5.822518,-5.080962,-1.157754,-0.095563,0.585922,-0.028224,193.912284,188.495747,1604.861880,899.069651,0
0.007292,172.555912,3.747972,-158.794887,-0.080412,-6.325580,3.427363,3.296861,6.392259,-3.414875,-3.050529,-0.077298,0.578605,-0.009553,167.175445,188.495638,1604.296034,899.419175,0
0.008333,124.996807,71.678896,-188.672728,-0.679842,-6.016706,0.700946,5.386429,6.002629,-0.762566,-5.050039,-0.037115,0.589972,-0.028224,121.245536,188.495752,1603.566606,899.351931,0
0.009375,47.062486,126.876546,-193.079925,-0.759012,-4.713754,-1.704016,6.225987,4.767577,1.658926,-5.989310,0.010374,0.612444,-0.061832,44.416707,188.721846,1603.631130,898.753372,0
0.010417,-24.610774,174.632360,-164.125379,-0.272682,-2.793054,-4.005795,6.375242,2.885593,3.916747,-6.163645,-0.011544,0.612901,-0.039427,-28.374451,188.571080,1603.811042,898.933398,0
0.011458,-91.644952,183.765523,-104.812879,0.914868,-0.201350,-5.601165,5.233442,0.301541,5.603817,-5.106964,-0.022503,0.599901,-0.043161,-91.303290,188.495770,1603.333088,899.455260,0
0.012500,-140.326964,191.376493,-16.250379,2.566128,2.248342,-6.430600,3.636416,-2.179590,6.430566,-3.537954,-0.048074,0.593891,-0.039427,-137.549879,188.495767,1603.466836,899.557729,0
0.013542,-167.322116,152.101474,57.674811,4.002498,4.279101,-6.049615,1.222220,-4.193901,6.153584,-1.275163,-0.124787,0.595263,0.001650,-163.314058,188.721949,1603.132154,898.879576,0
0.014583,-194.385322,69.492252,110.881250,5.020398,6.043589,-4.902695,-1.486755,-5.943558,5.075034,1.361201,-0.146705,0.592911,-0.028224,-189.564567,188.571111,1603.794848,898.175633,0
0.015625,-172.392213,-2.268318,159.803599,5.981748,6.480273,-3.204141,-3.441993,-6.476542,3.446717,3.221955,-0.197847,0.604735,-0.028224,-162.092578,188.495667,1603.936772,897.454417,0
0.016667,-125.388891,-71.177794,188.795076,6.456768,6.167849,-0.445975,-5.550217,-6.101616,0.773424,5.253485,-0.256295,0.602579,-0.024490,-115.936469,188.495682,1603.877824,896.556740,0
0.017708,-45.855278,-127.112380,192.734470,6.581178,4.822293,1.919301,-6.330073,-4.936403,-1.669051,6.146505,-0.270907,0.627599,-0.009553,-37.671271,188.721922,1603.149708,896.422159,0
0.018750,26.487190,-174.312472,163.989205,6.026988,2.944196,4.193299,-6.494253,-2.951498,-3.931069,6.342187,-0.263601,0.594479,-0.069301,34.475218,188.571181,1604.250349,896.205291,0
0.019792,92.035501,-183.010723,104.738258,4.862058,0.348943,5.804544,-5.285289,-0.426258,-5.626532,5.274833,-0.248989,0.605258,-0.046895,96.420086,188.495703,1604.054856,896.441402,0
0.020834,140.751540,-191.104928,17.197538,3.222108,-2.090098,6.586355,-3.714383,2.058550,-6.470068,3.695149,-0.197847,0.603821,-0.035692,142.892875,188.495772,1604.486649,896.441582,0
0.021875,167.032114,-151.539968,-57.687879,1.830978,-4.127958,6.181560,-1.311380,4.094915,-6.138529,1.464379,-0.161317,0.593107,-0.039427,167.887975,188.721936,1603.844972,895.617441,0
0.022917,194.163375,-67.553523,-110.918940,0.824388,-5.906648,5.078294,1.352818,5.907060,-5.043192,-1.218238,-0.110175,0.572399,-0.050629,194.172414,188.571055,1604.624058,895.524059,0
0.023959,171.546429,4.376179,-159.693561,-0.148272,-6.322030,3.383708,3.300593,6.392259,-3.393892,-3.054087,-0.033462,0.586836,-0.009553,166.632565,188.494764,1604.309943,895.737876,0
0.025000,124.781300,71.799705,-188.882008,-0.702462,-6.034458,0.681103,5.393891,6.024684,-0.762566,-5.099849,-0.022503,0.605911,-0.054364,120.962786,188.495407,1605.051991,895.976112,0
0.026042,47.175911,127.589319,-192.402841,-0.747702,-4.685352,-1.696079,6.207330,4.763902,1.650533,-5.957290,-0.011544,0.611660,-0.043161,43.511907,188.721614,1604.442684,896.102208,0
0.027084,-26.561684,174.704845,-163.842235,-0.227442,-2.775302,-3.966109,6.334197,2.848836,3.954517,-6.060467,-0.018850,0.619891,-0.035692,-30.579901,188.570788,1603.461345,895.485105,0
0.028125,-92.972025,183.378934,-103.200190,0.982728,-0.144546,-5.589260,5.199860,0.319920,5.582834,-5.064270,-0.026156,0.598660,-0.043161,-92.343810,188.495336,1602.142786,896.028619,0
0.029167,-141.075569,191.014065,-15.794886,2.554818,2.244791,-6.402819,3.617759,-2.153860,6.485123,-3.545070,-0.066339,0.597027,-0.046895,-138.409439,188.495399,1602.384634,896.955079,0
0.030209,-167.571651,151.702804,58.019508,3.979878,4.261349,-6.013898,1.259533,-4.219632,6.191354,-1.353436,-0.102869,0.601077,-0.031958,-163.517638,188.721599,1602.648958,898.353792,0
0.031250,-194.566802,68.731155,111.742993,4.941228,6.029388,-4.886820,-1.441978,-5.950910,5.117001,1.329180,-0.161317,0.595198,-0.017021,-189.575877,188.570852,1602.584439,899.687010,0
0.032292,-171.791061,-4.128777,160.049811,5.936508,6.441220,-3.204141,-3.352440,-6.458163,3.463504,3.182819,-0.205153,0.603559,-0.035692,-161.425288,188.570812,1601.420320,900.745122,0
0.033333,-123.664831,-72.699988,188.844319,6.502008,6.128796,-0.509472,-5.505440,-6.083237,0.790211,5.200118,-0.245336,0.570636,-0.013287,-114.850709,188.495450,1599.843258,901.703058,0
0.034375,-45.446948,-127.764749,192.315910,6.524628,4.875547,1.835961,-6.318879,-4.936403,-1.610297,6.118042,-0.259948,0.601273,-0.028224,-37.954021,188.721726,1598.802077,902.456240,0
0.035417,26.464505,-174.686980,163.742993,6.060918,2.979699,4.141708,-6.475596,-3.002958,-3.893298,6.281703,-0.263601,0.610157,-0.054364,34.690108,188.570890,1597.734696,902.926718,0
0.036459,92.750078,-182.974480,103.962690,4.850748,0.387996,5.752953,-5.337529,-0.433609,-5.555189,5.278390,-0.252642,0.607218,-0.028224,97.347506,188.495495,1596.569029,903.498574,0
0.037500,141.193898,-190.802906,15.486364,3.188178,-2.075897,6.590324,-3.729308,2.003413,-6.436494,3.712938,-0.223418,0.599575,-0.020755,143.277415,188.495604,1595.271920,904.668168,0
0.038542,167.020772,-150.488929,-58.820455,1.819668,-4.092455,6.177591,-1.337500,4.080212,-6.109152,1.496399,-0.150358,0.592781,-0.061832,168.125485,188.721710,1594.243164,905.381560,0
0.039583,194.344855,-66.671617,-111.829925,0.801768,-5.906648,5.082262,1.349086,5.840896,-5.055782,-1.132850,-0.110175,0.592258,-0.061832,194.195034,188.570861,1592.745939,906.862519,0
0.040625,170.933934,4.291613,-160.542993,-0.159582,-6.311379,3.344022,3.311787,6.362853,-3.410679,-3.039855,-0.044421,0.603559,-0.050629,165.908725,188.477857,1592.243335,907.219785,0
0.041667,124.044037,72.633287,-188.783523,-0.691152,-5.991854,0.653323,5.382697,5.995278,-0.733189,-5.082059,0.006721,0.608328,-0.039427,119.854406,188.705208,1591.583535,907.057079,0
0.042709,45.100234,128.362497,-192.279735,-0.770322,-4.642749,-1.707985,6.188673,4.782280,1.684106,-5.950174,-0.015197,0.609700,-0.017021,41.396938,188.640703,1591.245738,907.792741,0
0.043750,-28.626019,174.535712,-163.866857,-0.317922,-2.739799,-4.009763,6.360316,2.852512,3.933534,-6.110277,0.032292,0.619107,-0.020755,-31.575181,188.571071,1591.091372,908.992119,0
0.044792,-93.584520,183.608471,-102.498485,0.982728,-0.140996,-5.636883,5.173740,0.312568,5.603817,-5.067828,-0.033462,0.598137,-0.069301,-92.796210,188.495709,1591.241155,909.387219,0
0.045834,-141.778804,190.881175,-15.721023,2.566128,2.248342,-6.386945,3.572983,-2.164887,6.506106,-3.527280,-0.029809,0.600424,-0.035692,-138.884459,188.571011,1591.569489,909.469052,0
0.046875,-168.150118,150.494713,58.314962,3.968568,4.268450,-5.958338,1.110279,-4.215956,6.099027,-1.250258,-0.121134,0.595851,-0.031958,-164.264098,188.646437,1590.701838,907.905140,0
0.047917,-195.179297,66.314974,112.026137,4.986468,6.011636,-4.914600,-1.464367,-5.939883,5.016280,1.407453,-0.150358,0.559269,-0.069301,-189.688977,188.571141,1590.131671,906.826628,0
0.048958,-170.452646,-5.856346,160.813069,5.970438,6.451871,-3.160486,-3.460650,-6.425082,3.371177,3.246860,-0.197847,0.576058,-0.073035,-160.475248,188.495593,1589.719803,905.949189,0
0.050000,-123.494694,-73.146982,188.856629,6.468078,6.125245,-0.477724,-5.531560,-6.090588,0.723064,5.281948,-0.248989,0.589972,-0.031958,-115.009049,188.646554,1590.975072,905.332518,0
0.051042,-45.515003,-128.670816,191.663448,6.524628,4.815193,1.891521,-6.337536,-4.895970,-1.669051,6.132274,-0.263601,0.610157,-0.043161,-37.433761,188.646502,1591.371684,904.691175,0
0.052084,27.768893,-174.397038,163.866099,6.049608,2.894492,4.165519,-6.438283,-3.039716,-3.968839,6.253240,-0.270907,0.614599,-0.046895,36.805078,188.571098,1591.627635,904.920786,0
0.053125,93.941041,-183.119451,101.746781,4.828128,0.274387,5.800576,-5.300215,-0.371121,-5.597156,5.217907,-0.248989,0.600228,-0.046895,98.218376,188.495698,1591.411613,904.605601,0
0.054167,141.488803,-190.682097,14.169129,3.199488,-2.129152,6.558575,-3.721845,2.047522,-6.457478,3.691591,-0.197847,0.597092,-0.020755,143.718505,188.571190,1591.714883,904.644070,0
0.055208,167.417759,-149.546619,-58.820455,1.853598,-4.131508,6.153780,-1.307649,4.087564,-6.104955,1.446589,-0.146705,0.596570,-0.046895,169.086835,188.646456,1591.655677,904.219191,0
0.056250,194.866610,-66.417918,-112.248485,0.779148,-5.874695,5.078294,1.356549,5.862951,-5.034799,-1.204006,-0.088257,0.595459,-0.054364,194.228964,188.570993,1592.474825,903.643303,0
0.057292,170.139959,5.064791,-160.986175,-0.170892,-6.258125,3.332117,3.319250,6.300365,-3.368712,-3.071876,-0.033462,0.608001,-0.002084,165.173575,188.495731,1591.781018,902.980706,0
0.058333,122.671595,73.986348,-188.721970,-0.668532,-5.970553,0.645385,5.367772,5.995278,-0.716402,-5.099849,-0.007891,0.579520,-0.024490,118.576376,188.571105,1591.459818,903.469033,0
0.059375,43.410201,129.268565,-191.565720,-0.725082,-4.646299,-1.696079,6.237181,4.771253,1.663123,-5.953732,-0.011544,0.601404,-0.035692,40.763578,188.646456,1590.603703,904.278510,0
0.060417,-29.136432,174.668602,-163.657576,-0.193512,-2.750450,-3.962140,6.334197,2.867215,3.916747,-6.160087,0.010374,0.611202,-0.039427,-32.084131,188.571125,1590.741268,905.138297,0
0.061458,-94.378495,183.125235,-101.969129,0.960108,-0.123244,-5.557511,5.173740,0.220675,5.603817,-5.057154,-0.026156,0.605715,-0.039427,-93.621839,188.495660,1590.839122,904.415504,0
0.062500,-142.470697,190.579153,-14.354545,2.588748,2.216389,-6.359165,3.546863,-2.168563,6.392796,-3.527280,-0.048074,0.597549,-0.024490,-139.291618,188.495835,1589.272268,904.565316,0
0.063542,-167.775816,149.347027,60.026137,4.013808,4.247148,-5.958338,1.203563,-4.179198,6.057060,-1.257374,-0.077298,0.586771,-0.005818,-164.083138,188.646485,1587.787522,905.072224,0
0.064583,-195.417489,64.768619,112.863258,5.043018,6.032938,-4.835229,-1.494218,-5.969289,5.024674,1.329180,-0.128440,0.589449,-0.069301,-189.655047,188.571071,1587.244391,906.702456,0
0.065625,-170.067001,-5.687214,161.367046,5.981748,6.402167,-3.140644,-3.441993,-6.414054,3.450914,3.189934,-0.223418,0.611464,-0.065566,-160.282978,188.495727,1586.536386,908.057947,0
0.066667,-123.086364,-73.449004,188.967425,6.479388,6.128796,-0.465818,-5.509172,-6.053831,0.735654,5.242812,-0.219765,0.604147,-0.039427,-114.296519,188.571022,1585.603977,908.119817,0
0.067708,-44.800425,-129.178214,191.257198,6.524628,4.783240,1.895489,-6.270371,-4.844509,-1.664854,6.100253,-0.245336,0.594544,-0.028224,-35.725951,188.646442,1584.711211,907.825791,0
0.068750,30.026051,-174.542009,163.262879,6.015678,2.880291,4.133771,-6.419626,-2.940471,-3.914282,6.263914,-0.289172,0.613423,-0.035692,38.648608,188.571156,1583.753482,907.904746,0
0.069792,95.007236,-183.071127,100.774243,4.828128,0.309890,5.768827,-5.281558,-0.378473,-5.546795,5.239254,-0.234377,0.596700,-0.035692,99.145796,188.495624,1582.873453,908.831578,0
0.070833,142.452916,-190.223022,14.009091,3.188178,-2.072347,6.574450,-3.721845,2.051198,-6.428101,3.730727,-0.175929,0.600228,-0.024490,144.555445,188.571100,1582.548710,909.537051,0
0.071875,168.041597,-148.882169,-59.275947,1.808358,-4.131508,6.133937,-1.247947,4.065509,-6.092365,1.460821,-0.161317,0.593695,-0.020755,169.426135,188.571138,1582.016074,910.097460,0
0.072917,195.229570,-64.786996,-112.900947,0.779148,-5.878245,5.018765,1.375206,5.870302,-5.038995,-1.200449,-0.095563,0.577168,-0.065566,194.308134,188.571004,1581.752158,910.900434,0
0.073958,168.971682,7.203111,-161.478599,-0.182202,-6.251025,3.268619,3.352832,6.333447,-3.322548,-3.071876,-0.062686,0.585922,-0.024490,164.178295,188.495689,1581.294963,911.411334,0
0.075000,121.582715,75.097791,-188.414205,-0.657222,-5.956351,0.649354,5.405085,5.932790,-0.712205,-5.089175,0.014027,0.607414,-0.076769,118.372796,188.571076,1580.162939,911.318737,0
0.076042,43.455571,130.041743,-191.147160,-0.725082,-4.621447,-1.751639,6.203599,4.694062,1.734467,-5.950174,0.003068,0.611464,-0.054364,40.684408,188.571089,1580.415905,910.073939,0
0.077083,-29.828325,174.523631,-163.780682,-0.261372,-2.675894,-4.061355,6.323002,2.786348,3.996484,-6.096046,-0.026156,0.610941,-0.039427,-33.316921,188.571087,1580.688584,908.476555,0
0.078125,-95.229182,183.729280,-99.888637,1.016658,-0.066440,-5.621008,5.136427,0.176566,5.616408,-5.021576,-0.026156,0.601926,-0.058098,-94.402229,188.495682,1580.390782,908.542535,0
0.079167,-142.833657,190.434182,-12.360227,2.656608,2.312247,-6.371071,3.517012,-2.212672,6.443156,-3.420545,-0.040768,0.592977,-0.039427,-139.596988,188.571078,1580.745169,907.928474,0
0.080208,-168.456366,147.534892,60.284659,4.025118,4.300402,-5.946432,1.084159,-4.293147,6.099027,-1.161312,-0.110175,0.592519,-0.058098,-165.496888,188.495778,1582.161655,907.290690,0
0.081250,-195.927902,64.309544,113.220265,5.088258,6.040039,-4.807449,-1.553920,-5.983992,4.999494,1.443032,-0.164970,0.587947,-0.069301,-189.609807,188.571125,1583.126767,906.276523,0
0.082292,-168.785298,-6.049641,162.647349,6.015678,6.427019,-3.037460,-3.542740,-6.417730,3.316620,3.296670,-0.194194,0.596374,-0.065566,-159.140668,188.495689,1583.967808,904.553779,0
0.083333,-122.326416,-74.838308,188.647349,6.490698,6.061340,-0.386446,-5.531560,-6.075885,0.693687,5.296180,-0.270907,0.600554,-0.043161,-113.278619,188.646384,1584.504198,904.793710,0
0.084375,-42.350445,-130.229253,191.109470,6.547248,4.687383,2.014547,-6.296491,-4.752615,-1.702625,6.135831,-0.241683,0.567304,-0.031958,-34.006831,188.495673,1584.278638,904.594159,0
0.085417,31.920248,-174.022530,163.755304,6.026988,2.791534,4.197268,-6.408432,-2.848577,-4.010806,6.256798,-0.227071,0.604343,-0.035692,39.643888,188.571078,1585.148670,903.505621,0
0.086458,95.585703,-183.518121,99.629356,4.782888,0.192730,5.828356,-5.240513,-0.279227,-5.576172,5.210791,-0.248989,0.605976,-0.058098,99.270206,188.495761,1585.680899,902.751005,0
0.087500,143.054068,-189.957242,13.381250,3.142938,-2.182406,6.550638,-3.609904,2.102659,-6.419707,3.616876,-0.216112,0.598856,-0.031958,144.770335,188.646770,1585.730631,901.383189,0
0.088542,168.563352,-147.009629,-60.125379,1.785738,-4.170562,6.074408,-1.154663,4.150051,-6.050398,1.368317,-0.175929,0.589841,-0.058098,170.568445,188.495629,1585.978623,900.359405,0
0.089583,195.671928,-62.225844,-113.294887,0.767838,-5.871145,4.971142,1.464759,5.914411,-4.959258,-1.292953,-0.102869,0.588208,-0.002084,194.228964,188.570989,1586.196305,899.512079,0
0.090625,168.018912,8.121260,-162.525000,-0.204822,-6.247474,3.209091,3.431191,6.267283,-3.297368,-3.114570,-0.073645,0.607283,-0.065566,163.725895,188.495693,1585.632005,899.208872,0
0.091667,121.355865,75.484380,-188.451137,-0.668532,-5.952801,0.629511,5.449862,5.965872,-0.615681,-5.149658,-0.007891,0.604735,-0.065566,118.112666,188.646469,1586.952499,898.546195,0
0.092708,43.251406,130.875325,-190.740910,-0.747702,-4.600145,-1.815137,6.196136,4.683035,1.721877,-5.939500,-0.026156,0.612835,-0.065566,39.451618,188.495707,1586.562058,898.838762,0
0.093750,-31.767892,174.366580,-163.719129,-0.182202,-2.661693,-4.053418,6.308077,2.716509,4.038451,-6.056909,-0.011544,0.618061,-0.046895,-35.544991,188.570997,1586.363400,898.196428,0
0.094792,-96.295377,183.970898,-97.955872,1.073208,-0.023837,-5.652757,5.128964,0.180241,5.628998,-4.961093,0.003068,0.601600,-0.061832,-95.069519,188.495635,1585.571143,898.481520,0
0.095833,-143.344069,190.240888,-11.929356,2.679228,2.326448,-6.426631,3.528206,-2.253105,6.468336,-3.452566,-0.073645,0.595786,-0.013287,-140.309518,188.571060,1586.174361,899.014262,0
0.096875,-169.012148,147.124141,60.444697,4.025118,4.343006,-5.954369,1.013263,-4.267416,6.048667,-1.125734,-0.099216,0.597484,-0.024490,-166.311208,188.495718,1585.548427,898.518826,0
0.097917,-196.302204,63.512205,113.946591,5.020398,6.089743,-4.779669,-1.557651,-6.028101,4.944937,1.435916,-0.124787,0.590952,-0.031958,-189.768147,188.571214,1585.698901,898.585260,0
0.098958,-168.195488,-7.849695,162.918182,5.970438,6.405717,-3.037460,-3.516620,-6.458163,3.308226,3.342922,-0.186888,0.619433,-0.020755,-158.563858,188.495716,1586.072449,899.151616,0
0.100000,-120.500273,-76.396745,188.696591,6.456768,6.071991,-0.370572,-5.542754,-6.046479,0.622343,5.328200,-0.245336,0.576449,-0.050629,-112.102379,188.646426,1585.833339,898.918707,0
0.101042,-41.488415,-131.038674,190.641667,6.547248,4.729986,1.998673,-6.337536,-4.796724,-1.715215,6.082464,-0.245336,0.617866,-0.031958,-33.769321,188.495664,1585.107119,899.648526,0
0.102083,32.294551,-174.324553,163.829167,6.049608,2.795084,4.225048,-6.378581,-2.885334,-4.006609,6.288819,-0.238030,0.608916,-0.020755,40.175458,188.571122,1585.350539,900.561667,0
0.103125,96.232226,-183.614768,98.533712,4.805508,0.164328,5.860105,-5.218125,-0.264524,-5.618139,5.153866,-0.212459,0.609112,-0.024490,100.220246,188.495597,1585.270082,900.323767,0
0.104167,143.700591,-189.800191,11.411553,3.131628,-2.193057,6.582387,-3.591247,2.205580,-6.470068,3.620434,-0.208806,0.595982,-0.035692,145.313215,188.646437,1586.395683,900.732101,0
0.105208,168.812887,-145.596163,-61.245644,1.774428,-4.241567,6.102188,-1.143469,4.175782,-6.071382,1.314949,-0.161317,0.594218,-0.039427,171.247045,188.495761,1586.477828,900.863967,0
0.106250,196.114285,-61.428505,-113.959659,0.756528,-5.959902,4.987016,1.475953,5.965872,-4.971848,-1.282279,-0.066339,0.585007,-0.050629,194.308134,188.571084,1587.016316,901.711866,0
0.107292,167.281649,8.121260,-163.669887,-0.216132,-6.275877,3.220996,3.509549,6.307717,-3.284778,-3.214190,-0.037115,0.604082,-0.035692,163.137775,188.495512,1588.435356,901.561982,0
0.108333,120.981562,76.499176,-188.241857,-0.634602,-5.935050,0.490611,5.494638,5.965872,-0.569518,-5.217258,-0.000585,0.605584,-0.058098,117.106076,188.646462,1589.211671,901.364387,0
0.109375,41.289154,131.684746,-190.642425,-0.702462,-4.532690,-1.934194,6.259569,4.653629,1.843581,-5.975079,-0.015197,0.579716,-0.054364,37.234858,188.495767,1590.050259,900.956029,0
0.110417,-34.433380,173.702130,-163.953031,-0.250062,-2.562285,-4.176444,6.326734,2.731212,4.113992,-6.124509,0.017680,0.568676,-0.028224,-37.060531,188.571011,1590.983703,902.038945,0
