1-Time,2-VGERA,3-VGERB,4-VGERC,5-VN,6-IGERAN,7-IGERBN,8-IGERCN,9-IGERAT,10-IGERBT,11-IGERCT,12-IN,13-IFD,14-IFAULT,15-VFAULT,16-Speed (rad/s),17-Active Power,18-Reactive Power,19-FAULT 
0.000000,-130.743035,-74.276852,173.360763,3.669540,5.029175,-1.692309,-3.209655,-4.792610,1.896820,3.187202,-0.196595,0.582501,-0.086006,121.393725,188.495645,1025.955028,981.463582,0
0.001042,-49.440072,-125.626036,189.437425,3.917245,4.618194,0.343188,-4.515459,-4.382759,-0.216923,4.655780,-0.189302,0.579814,-0.078573,42.743069,188.495626,1027.691975,981.194945,0
0.002083,20.133568,-166.357731,154.817312,3.320502,3.322870,2.149391,-4.954512,-3.178595,-1.882553,4.966150,-0.229410,0.559833,-0.067423,-25.594962,188.495696,1028.611105,979.624836,0
0.003125,92.294892,-178.396367,103.731684,2.295906,1.367041,3.931457,-4.689566,-1.310690,-3.793376,4.814750,-0.203887,0.578367,-0.052556,-95.464124,188.721947,1029.524783,979.211911,0
0.004167,139.743278,-174.814138,19.715026,0.663307,-0.519068,4.896910,-3.724407,0.462913,-4.799518,3.872286,-0.207533,0.582019,-0.078573,-139.821923,188.495640,1031.103682,978.565088,0
0.005208,169.868879,-148.798941,-57.764032,-0.766624,-2.350135,5.194592,-2.218002,2.283667,-5.167310,2.373428,-0.185656,0.578505,-0.082290,-164.286263,188.504144,1032.272895,977.969304,0
0.006250,176.422836,-76.555384,-119.008458,-1.982628,-4.100474,4.711865,-0.106006,3.901309,-4.706513,0.295466,-0.130964,0.574784,-0.045123,-175.432004,188.495848,1033.544799,977.858057,0
0.007292,174.388849,2.453299,-155.973843,-2.714483,-4.984817,3.722275,1.593431,4.837075,-3.768012,-1.513761,-0.101794,0.559695,-0.063706,-166.796869,188.646509,1034.602363,978.589460,0
0.008333,129.720244,74.544171,-173.897559,-3.108558,-5.025181,1.678732,3.508609,4.833448,-1.848733,-3.375979,-0.054394,0.573268,-0.026539,-120.266213,188.495763,1036.416838,978.265478,0
0.009375,49.999271,125.552750,-188.819812,-3.412560,-4.573836,-0.340674,4.738714,4.416343,0.273465,-4.840772,-0.017932,0.588564,-0.086006,-42.887748,188.495846,1038.575727,977.589770,0
0.010417,-19.404870,166.883440,-154.394126,-2.748261,-3.252825,-2.122740,5.124778,3.186790,1.981370,-5.151141,-0.021578,0.588495,-0.063706,25.788032,188.495805,1040.775863,976.877711,0
0.011458,-92.278089,177.653614,-103.891778,-1.746183,-1.311674,-3.941011,4.856047,1.333393,3.858374,-4.980817,-0.025225,0.579400,-0.071140,96.062494,188.646569,1042.139085,976.370582,0
0.012500,-140.155872,174.917027,-19.255385,-0.091066,0.596452,-4.898419,3.875748,-0.465599,4.826468,-3.955083,-0.050748,0.579263,-0.074856,140.634201,188.495772,1044.135936,975.632368,0
0.013542,-169.185381,148.937065,58.697589,1.428940,2.486230,-5.139782,2.316354,-2.289980,5.135075,-2.414590,-0.083563,0.577058,-0.082290,163.972708,188.495821,1044.739530,973.641941,0
0.014587,-177.649025,73.851215,119.395189,2.588648,4.225560,-4.669124,0.196789,-3.907622,4.678506,-0.268498,-0.120025,0.581812,-0.030256,177.415148,188.505412,1046.909551,972.401152,0
0.015625,-174.112148,-4.159142,156.190451,3.275465,5.032844,-3.615170,-1.442089,-4.727324,3.714639,1.480170,-0.171072,0.540954,-0.082290,166.787290,188.511786,1047.116232,971.396030,0
0.016667,-128.415250,-75.028533,174.928329,3.647022,5.080547,-1.583696,-3.357268,-4.749086,1.774223,3.304537,-0.178364,0.577402,-0.052556,120.144051,188.505251,1048.204696,970.180513,0
0.017708,-48.490878,-125.696506,189.072875,3.928504,4.537465,0.435711,-4.572233,-4.321100,-0.305700,4.716340,-0.185656,0.583534,-0.052556,43.294727,188.516650,1049.032934,969.044758,0
0.018750,19.907570,-167.426527,154.793009,3.286724,3.267828,2.258004,-4.935587,-3.116936,-1.984012,5.068345,-0.225764,0.577540,-0.063706,-24.851912,188.449919,1051.311591,968.851533,0
0.019792,92.453091,-177.456766,104.400026,2.284646,1.286313,4.011911,-4.659286,-1.256285,-3.911746,4.841245,-0.211179,0.584499,-0.056273,-95.745582,188.576140,1053.108780,968.302279,0
0.020833,140.613372,-175.119509,20.116031,0.652048,-0.636491,4.973342,-3.667633,0.520945,-4.858703,3.789017,-0.192949,0.584430,-0.033973,-140.418614,188.495980,1054.357136,967.362696,0
0.021875,169.428182,-149.033841,-58.286554,-0.879217,-2.474897,5.214705,-2.093099,2.374342,-5.133490,2.278804,-0.192949,0.578918,-0.082290,-163.599505,188.495763,1055.298704,965.725664,0
0.022917,177.835326,-74.899338,-118.692514,-2.027666,-4.188541,4.691751,-0.003813,3.970222,-4.672694,0.189486,-0.130964,0.541712,-0.063706,-176.940620,188.495740,1056.553394,964.833619,0
0.023966,173.439655,5.460021,-156.399152,-2.691964,-5.003164,3.645844,1.695624,4.851583,-3.641187,-1.642451,-0.105440,0.541919,-0.082290,-165.096862,188.574067,1057.081621,963.433021,0
0.025010,126.454566,76.505587,-175.853978,-3.086040,-5.080223,1.562073,3.648652,4.866091,-1.683861,-3.466819,-0.032517,0.557215,-0.089723,-117.001299,188.496020,1058.280498,962.976755,0
0.026048,46.609293,126.421880,-188.601082,-3.367522,-4.522463,-0.384924,4.765209,4.394581,0.336878,-4.844557,-0.039809,0.581536,-0.052556,-41.142708,188.496053,1057.790236,962.970680,0
0.027098,-22.308951,168.328076,-153.835149,-2.680705,-3.153750,-2.247445,5.196692,3.136012,2.074375,-5.196561,0.003945,0.593456,-0.082290,27.792014,188.496053,1058.719567,963.393381,0
0.028138,-94.266876,176.620053,-102.858886,-1.644849,-1.267641,-3.985261,4.818198,1.271734,3.913331,-4.946752,-0.006994,0.589942,-0.056273,98.167801,188.646813,1058.760261,962.873605,0
0.029169,-141.014667,174.729107,-19.826513,-0.113585,0.651494,-4.918532,3.830329,-0.538139,4.864516,-3.939943,-0.021578,0.583259,-0.086006,141.399767,188.496210,1059.909767,962.444438,0
0.030208,-169.592178,148.784380,58.272281,1.372643,2.508247,-5.155873,2.286075,-2.358893,5.185805,-2.376740,-0.105440,0.582363,-0.052556,164.209133,188.496152,1061.286580,962.177945,0
0.031250,-177.818523,75.201891,119.237217,2.554870,4.243908,-4.685215,0.162724,-3.885860,4.665824,-0.257143,-0.145548,0.566998,-0.030256,177.336340,188.496044,1061.500660,961.709045,0
0.032292,-173.829650,-4.018202,156.518546,3.264206,5.010827,-3.599079,-1.498863,-4.749086,3.714639,1.476385,-0.149195,0.569065,-0.082290,166.314440,188.646985,1061.666123,961.892956,0
0.033335,-127.511256,-75.885918,175.086301,3.748356,5.043853,-1.539446,-3.395117,-4.745459,1.753086,3.331032,-0.203887,0.578574,-0.067423,118.432785,188.571462,1061.700273,961.922155,0
0.034375,-46.298693,-126.166307,189.291605,3.905986,4.522788,0.415597,-4.591158,-4.317473,-0.318383,4.689845,-0.240349,0.548533,-0.078573,40.829154,188.496078,1060.966473,962.208197,0
0.035417,22.563052,-167.250352,154.525672,3.297983,3.286175,2.209732,-5.015071,-3.116936,-2.068562,5.056990,-0.218472,0.560866,-0.067423,-26.810861,188.496123,1061.144425,962.319553,0
0.036458,93.571783,-177.585961,103.573713,2.318424,1.293651,4.040070,-4.700921,-1.227269,-3.899064,4.818535,-0.207533,0.575404,-0.074856,-96.162140,188.571498,1060.704948,962.241055,0
0.037500,140.771571,-174.849373,19.593510,0.685826,-0.643830,5.005524,-3.709267,0.564469,-4.841793,3.815511,-0.185656,0.588909,-0.041406,-140.857689,188.571476,1060.749426,962.290225,0
0.038542,169.450782,-148.798941,-58.055673,-0.822920,-2.493244,5.222751,-2.119593,2.392477,-5.251859,2.263664,-0.178364,0.586979,-0.078573,-164.004805,188.496087,1061.949454,962.958130,0
0.039583,178.004825,-75.463098,-119.057065,-2.027666,-4.228905,4.707842,0.011327,4.013746,-4.693831,0.102431,-0.101794,0.582088,-0.063706,-177.345919,188.496085,1063.376118,962.491814,0
0.040625,173.959452,3.005314,-156.520668,-2.714483,-5.039859,3.669980,1.748613,4.895107,-3.717282,-1.634881,-0.098148,0.575266,-0.086006,-165.828653,188.571581,1064.468991,963.154141,0
0.041667,127.855757,75.272361,-175.355759,-3.164855,-5.039859,1.574142,3.629727,4.873345,-1.683861,-3.493314,-0.017932,0.578091,-0.078573,-117.901965,188.571456,1065.295163,962.628460,0
0.042708,47.275989,126.034295,-188.880570,-3.446337,-4.500446,-0.413083,4.821983,4.441732,0.396063,-4.855912,0.011237,0.548740,-0.052556,-40.287075,188.496149,1066.316946,962.501671,0
0.043750,-22.568849,167.729081,-154.102486,-2.759520,-3.164758,-2.287672,5.173982,3.146893,2.125104,-5.196561,-0.039809,0.547293,-0.078573,28.411222,188.496074,1066.799913,962.281416,0
0.044792,-94.323375,177.183814,-102.567246,-1.689887,-1.260302,-4.057670,4.856047,1.220956,3.938696,-4.961892,-0.036163,0.579538,-0.067423,97.390977,188.571808,1067.504982,962.083101,0
0.045833,-140.686969,175.351592,-18.100976,-0.057288,0.757908,-4.970828,3.856824,-0.603425,4.889881,-3.883168,-0.032517,0.579469,-0.048839,141.298443,188.571143,1068.040369,961.385043,0
0.046876,-168.507385,148.655184,59.390234,1.485236,2.588975,-5.175987,2.248225,-2.398790,5.211170,-2.285900,-0.072625,0.584086,-0.071140,163.983967,188.495629,1068.610667,960.454320,0
0.047917,-178.733817,74.121350,119.030639,2.577388,4.328306,-4.604760,0.064316,-4.005551,4.708099,-0.162518,-0.149195,0.587600,-0.074856,178.394622,188.495662,1070.779327,960.415333,0
0.048958,-173.727950,-3.125581,156.992461,3.331761,5.087886,-3.599079,-1.563207,-4.897793,3.693502,1.552085,-0.134610,0.585257,-0.059989,165.954173,188.571062,1073.287964,960.458842,0
0.050000,-127.759854,-74.323832,176.447288,3.658281,5.120912,-1.467037,-3.489741,-4.839761,1.706583,3.402947,-0.185656,0.582708,-0.063706,118.838085,188.571180,1075.567017,960.528708,0
0.051042,-47.812883,-125.954896,188.817690,3.984801,4.526457,0.492029,-4.632792,-4.317473,-0.407160,4.678490,-0.218472,0.587048,-0.063706,41.302003,188.495861,1076.422988,959.377599,0
0.052083,22.224055,-168.084248,154.501369,3.331761,3.154074,2.358572,-4.981006,-3.055277,-2.140429,5.102410,-0.247641,0.585739,-0.063706,-27.801593,188.495803,1077.858460,958.819262,0
0.053125,94.227179,-176.998710,102.881067,2.262128,1.179898,4.056161,-4.621437,-1.165610,-3.945566,4.803395,-0.222118,0.574371,-0.052556,-97.209165,188.571216,1078.240418,958.164680,0
0.054167,141.042769,-175.577564,17.442664,0.652048,-0.702542,5.033683,-3.629783,0.633382,-4.900978,3.743597,-0.225764,0.576438,-0.048839,-140.891464,188.571098,1079.111731,957.695043,0
0.055208,168.456388,-148.411356,-60.036395,-0.834180,-2.566634,5.218728,-2.043894,2.439628,-5.158855,2.233384,-0.178364,0.578091,-0.074856,-163.396855,188.495767,1078.390107,956.756610,0
0.056250,179.180017,-72.949666,-118.814031,-2.027666,-4.294956,4.691751,0.079456,3.995611,-4.664239,0.098646,-0.098148,0.596350,-0.056273,-178.437977,188.495633,1077.621676,956.882767,0
0.057292,173.383156,4.297265,-156.617882,-2.725742,-5.047198,3.621707,1.729689,4.858837,-3.641187,-1.661376,-0.072625,0.557835,-0.086006,-165.220704,188.571156,1077.059151,955.939390,0
0.058333,127.313360,74.896521,-176.097011,-3.074780,-5.098570,1.554028,3.697856,4.880599,-1.650041,-3.542519,-0.054394,0.578987,-0.067423,-118.104615,188.495676,1077.867703,955.648920,0
0.059375,48.021784,126.269195,-188.285138,-3.390041,-4.511455,-0.425151,4.803058,4.387327,0.366470,-4.893762,-0.032517,0.572855,-0.063706,-41.289066,188.495741,1077.908502,955.289217,0
0.060417,-21.235458,168.128411,-154.224002,-2.691964,-3.183105,-2.287672,5.177767,3.143266,2.146242,-5.185206,-0.014286,0.590700,-0.056273,27.882080,188.495750,1078.381058,954.856523,0
0.061458,-93.860078,176.866699,-102.822431,-1.734924,-1.186912,-4.009397,4.806843,1.210075,3.942924,-4.950537,-0.054394,0.583328,-0.063706,97.582368,188.571201,1078.461487,954.390813,0
0.062500,-141.093766,175.210652,-17.590606,-0.057288,0.735892,-4.942669,3.811404,-0.574409,4.877198,-3.909663,-0.043455,0.580021,-0.056273,141.478576,188.571026,1077.953755,955.083036,0
0.063542,-168.541285,148.208874,60.459581,1.462718,2.570628,-5.139782,2.225516,-2.420552,5.168895,-2.285900,-0.036163,0.577265,-0.056273,163.578667,188.495778,1077.552459,954.997887,0
0.064583,-178.745117,72.512284,119.383038,2.554870,4.284272,-4.681192,0.105950,-3.954773,4.695416,-0.173873,-0.105440,0.553494,-0.052556,178.507205,188.495647,1076.347892,955.253609,0
0.065625,-173.196854,-5.568543,156.773731,3.309243,5.054861,-3.599079,-1.532928,-4.778102,3.659682,1.559655,-0.189302,0.561004,-0.071140,165.627682,188.571196,1074.477315,954.644788,0
0.066667,-126.482963,-75.862428,175.997676,3.692059,5.102564,-1.519332,-3.432967,-4.788983,1.681218,3.406732,-0.189302,0.575818,-0.074856,118.353977,188.571172,1073.598560,954.325580,0
0.067708,-46.581191,-126.412952,188.623263,3.962282,4.548474,0.467893,-4.598727,-4.346489,-0.364885,4.746620,-0.229410,0.579952,-0.097156,41.774853,188.495680,1073.749327,955.526609,0
0.068750,21.760758,-168.166463,154.343397,3.264206,3.227464,2.330413,-5.030210,-3.106055,-2.157339,5.083485,-0.243995,0.587186,-0.059989,-26.810861,188.571167,1073.743917,955.804849,0
0.069792,93.910781,-177.069180,103.391438,2.250869,1.260626,4.032025,-4.659286,-1.209134,-3.932883,4.799610,-0.214826,0.580503,-0.045123,-96.871415,188.495754,1073.534999,956.077657,0
0.070833,141.483467,-175.096019,18.669982,0.618270,-0.695203,5.021615,-3.607074,0.637009,-4.858703,3.766307,-0.178364,0.585808,-0.059989,-141.296764,188.571089,1073.307835,955.951679,0
0.071875,169.043984,-148.270416,-59.793362,-0.901736,-2.562964,5.194592,-2.062819,2.410612,-5.218039,2.225814,-0.171072,0.579538,-0.071140,-163.475663,188.495825,1073.582053,956.532706,0
0.072917,178.886219,-72.832216,-119.348705,-2.027666,-4.221566,4.671638,0.064316,4.042762,-4.681149,0.113786,-0.087210,0.580434,-0.071140,-178.269102,188.571060,1073.979179,957.042510,0
0.073958,173.258857,5.553981,-156.459910,-2.737001,-5.039859,3.678025,1.714549,4.826194,-3.675007,-1.672731,-0.087210,0.603653,-0.056273,-164.973020,188.495814,1073.438467,957.437264,0
0.075000,125.629671,76.646528,-175.902585,-3.097299,-5.065545,1.558051,3.637297,4.909615,-1.688088,-3.534949,-0.065333,0.538267,-0.074856,-116.663550,188.571143,1072.645599,958.677465,0
0.076042,45.581000,126.692016,-188.528172,-3.333744,-4.526132,-0.421129,4.821983,4.412716,0.391835,-4.867267,-0.028871,0.559006,-0.045123,-40.073167,188.495669,1072.053453,959.212879,0
0.077083,-22.964347,168.281096,-153.859452,-2.658186,-3.197783,-2.291695,5.219401,3.128758,2.125104,-5.226841,0.003945,0.572993,-0.059989,27.972147,188.571118,1071.806824,959.908857,0
0.078125,-94.549374,176.643543,-102.992555,-1.633590,-1.249293,-4.005374,4.874972,1.246345,3.947151,-4.939182,-0.006994,0.584430,-0.082290,97.717468,188.495741,1071.531320,960.300751,0
0.079167,-141.681362,174.729107,-18.514133,-0.079807,0.713875,-4.998987,3.826544,-0.563528,4.911018,-3.909663,-0.047102,0.583948,-0.052556,141.973942,188.571161,1071.895907,960.453999,0
0.080208,-168.733384,148.302834,59.681874,1.451458,2.552281,-5.171964,2.199021,-2.395163,5.232307,-2.323750,-0.065333,0.585601,-0.063706,163.837608,188.495607,1072.192830,961.307795,0
0.081250,-179.197114,73.087790,119.455948,2.532351,4.284272,-4.604760,0.071886,-3.947519,4.708099,-0.196583,-0.120025,0.560729,-0.026539,178.912505,188.570991,1072.282898,961.676317,0
0.082292,-173.016055,-5.040018,157.028916,3.331761,5.080547,-3.603102,-1.521573,-4.821626,3.676592,1.529375,-0.156487,0.585601,-0.078573,165.121057,188.495703,1072.507919,962.225581,0
0.083333,-126.008366,-75.932899,176.580956,3.680800,5.102564,-1.503241,-3.478386,-4.774475,1.710811,3.353742,-0.189302,0.558937,-0.071140,117.160595,188.571103,1071.624778,962.674827,0
0.084375,-45.202600,-126.683087,188.574656,3.984801,4.533796,0.471916,-4.583588,-4.295711,-0.360657,4.727695,-0.225764,0.575680,-0.048839,39.590738,188.495631,1070.824230,962.380934,0
0.085417,24.077242,-168.319148,154.076060,3.309243,3.179761,2.314322,-5.003716,-3.048023,-2.085472,5.064560,-0.203887,0.560866,-0.093440,-28.510868,188.571015,1069.442069,962.514751,0
0.086458,95.391071,-176.505420,102.407152,2.329684,1.256957,4.023979,-4.697136,-1.212761,-3.928656,4.810965,-0.229410,0.587600,-0.056273,-97.794597,188.495653,1068.881054,963.094985,0
0.087500,141.732065,-175.119509,17.940882,0.640789,-0.713550,5.033683,-3.686557,0.568096,-4.879840,3.834436,-0.185656,0.590080,-0.067423,-141.724580,188.571156,1068.429684,964.724515,0
0.088542,168.659787,-148.176456,-59.550328,-0.811661,-2.496914,5.230796,-2.085529,2.356207,-5.218039,2.248524,-0.178364,0.587048,-0.048839,-163.486922,188.495807,1067.698029,964.988168,0
0.089583,179.225217,-73.724837,-119.227188,-2.027666,-4.236244,4.707842,0.041606,4.002865,-4.727651,0.113786,-0.171072,0.583603,-0.059989,-178.460493,188.570971,1067.801194,965.337168,0
0.090625,172.965058,4.050620,-157.079645,-2.759520,-5.039859,3.661934,1.646420,4.887853,-3.653869,-1.631096,-0.083563,0.580365,-0.097156,-164.657787,188.495740,1068.307789,965.477857,0
0.091667,126.431966,75.742162,-176.182073,-3.131077,-5.047198,1.566096,3.629727,4.884226,-1.726136,-3.500884,-0.047102,0.582432,-0.067423,-116.686066,188.571134,1067.967344,965.468974,0
0.092708,46.473694,126.645036,-188.212228,-3.435078,-4.518793,-0.368833,4.810628,4.405462,0.353788,-4.799137,-0.028871,0.568376,-0.097156,-39.521509,188.495645,1067.005781,965.296713,0
0.093750,-23.506743,168.046196,-153.737936,-2.737001,-3.197783,-2.239399,5.189122,3.186790,2.091285,-5.181421,0.007591,0.546949,-0.071140,29.604604,188.571141,1065.973416,965.853653,0
0.094792,-95.509867,176.714014,-101.595112,-1.723664,-1.241954,-3.924920,4.856047,1.275361,3.930241,-4.946752,-0.003348,0.582914,-0.063706,98.651909,188.495633,1065.170273,966.682186,0
0.095833,-141.444064,175.104947,-16.739989,-0.023510,0.677180,-4.954737,3.883318,-0.527258,4.868743,-3.943728,-0.039809,0.585188,-0.089723,142.086525,188.571080,1064.113359,967.515426,0
0.096875,-168.473485,147.950484,60.593250,1.496495,2.530264,-5.155873,2.263365,-2.355266,5.198487,-2.361600,-0.058040,0.585119,-0.056273,163.905158,188.495825,1062.984486,968.003568,0
0.097917,-178.711218,73.064299,120.039228,2.566129,4.243908,-4.673146,0.189219,-3.922130,4.703871,-0.313918,-0.127317,0.581330,-0.082290,178.495947,188.646449,1061.681842,969.119005,0
0.098958,-172.914356,-4.370552,157.502832,3.343021,5.069539,-3.667466,-1.476154,-4.781729,3.731549,1.480170,-0.145548,0.582708,-0.104590,165.166091,188.495852,1060.946144,969.798985,0
0.100000,-126.754161,-75.486588,176.009828,3.714578,5.098895,-1.563582,-3.398902,-4.828880,1.799588,3.349957,-0.182010,0.582845,-0.112023,117.847352,188.571147,1061.074444,970.953063,0
0.101042,-46.999288,-126.812282,188.307319,3.996060,4.566821,0.399507,-4.553308,-4.429910,-0.259198,4.686060,-0.214826,0.592767,-0.086006,40.592729,188.495783,1060.630240,972.893920,0
0.102083,22.822951,-168.154718,153.784420,3.331761,3.267828,2.209732,-4.984791,-3.149579,-2.009377,5.060775,-0.243995,0.594007,-0.078573,-28.589676,188.646563,1059.784696,974.028635,0
0.103125,95.029473,-176.916495,102.188422,2.239609,1.278974,4.003866,-4.647932,-1.220015,-3.886381,4.799610,-0.236703,0.565483,-0.067423,-98.053539,188.495772,1059.248909,973.999310,0
0.104167,141.551266,-174.861118,16.713563,0.595751,-0.596127,5.017592,-3.652493,0.560842,-4.884068,3.796587,-0.229410,0.577678,-0.052556,-141.465639,188.571207,1058.792163,973.803820,0
0.105208,168.535488,-147.636185,-61.202956,-0.867958,-2.449211,5.198614,-2.134733,2.348953,-5.201129,2.286374,-0.171072,0.578780,-0.089723,-163.385597,188.495787,1058.020176,974.574179,0
0.106250,178.682821,-71.916105,-120.138563,-2.027666,-4.210558,4.752092,-0.011383,3.981103,-4.714968,0.219766,-0.112733,0.573613,-0.033973,-178.032677,188.646504,1056.248898,975.833353,0
0.107292,172.840759,5.424786,-156.982432,-2.770779,-5.006833,3.730321,1.627495,4.811686,-3.721509,-1.578106,-0.112733,0.582570,-0.086006,-164.680304,188.495664,1054.584146,976.795466,0
0.108333,126.092968,76.059277,-175.878281,-3.153596,-5.065545,1.642528,3.599448,4.891480,-1.700771,-3.466819,-0.039809,0.565827,-0.071140,-117.181432,188.571055,1054.141137,976.670039,0
0.109375,47.083890,126.903426,-187.726161,-3.401300,-4.577505,-0.380902,4.768994,4.463494,0.260783,-4.825632,-0.058040,0.563209,-0.112023,-40.546017,188.495731,1053.907376,978.097065,0
0.110417,-22.252451,168.609957,-153.385537,-2.680705,-3.245486,-2.251467,5.189122,3.172282,2.040555,-5.188991,-0.006994,0.592285,-0.067423,28.715196,188.721831,1053.658354,978.072266,0
