1-Time,2-VGERA,3-VGERB,4-VGERC,5-VN,6-IGERAN,7-IGERBN,8-IGERCN,9-IGERAT,10-IGERBT,11-IGERCT,12-IN,13-IFD,14-IFAULT,15-VFAULT,16-Speed (rad/s),17-FAULT 
0.000000,181.709310,-124.128397,-2.671780,2.882808,-5.452212,0.046129,5.322995,6.087172,-0.124668,-5.163890,-0.011544,0.189595,-0.043161,91.794296,188.505879,0
0.001042,189.751143,-68.217973,-66.896212,1.661328,-3.975296,-2.573136,6.296883,4.473517,2.540232,-6.010657,-0.000585,0.176334,-0.061832,95.571836,188.441292,0
0.002083,165.829809,-22.793774,-148.601705,0.055308,-2.154004,-4.247878,5.897626,2.731212,4.244089,-5.797187,-0.007891,0.201876,-0.076769,82.644507,188.438422,0
0.003125,106.667326,22.557940,-198.348864,-0.849492,0.338292,-5.311459,4.449855,0.198620,5.230312,-4.313565,-0.029809,0.185675,-0.046895,52.740867,188.512436,0
0.004167,58.416329,93.835274,-192.562879,-0.679842,2.741830,-6.117081,2.722230,-2.242078,6.195551,-2.790806,-0.066339,0.194233,-0.054364,30.663748,188.516901,0
0.005208,16.483105,166.574397,-145.954925,0.145788,4.644779,-5.644820,0.449826,-4.138765,5.708735,-0.574268,-0.128440,0.190248,-0.028224,9.604528,188.286035,0
0.006250,-34.853052,204.810458,-88.735228,1.186308,5.965483,-3.978015,-2.251686,-5.436305,4.223106,2.037192,-0.194194,0.183846,-0.031958,-16.431091,188.514867,0
0.007292,-114.534118,174.898139,-41.610227,2.102418,6.466072,-2.128655,-4.442000,-5.928855,2.292627,4.189689,-0.256295,0.176660,-0.061832,-57.248880,188.514327,0
0.008333,-181.772461,125.016087,2.523295,2.939358,5.567852,0.141375,-5.471858,-5.215760,0.131330,5.292622,-0.267254,0.191881,-0.020755,-86.824530,188.517426,0
0.009375,-190.370077,69.733870,67.375568,4.194768,4.140640,2.756672,-6.468134,-3.576375,-2.537767,6.178526,-0.281866,0.187112,-0.087972,-92.253330,188.287436,0
0.010417,-166.720963,24.333833,148.847160,5.698998,2.262543,4.431414,-6.046489,-1.878179,-4.241624,5.936592,-0.256295,0.202399,-0.091706,-77.889630,188.518765,0
0.011458,-107.932783,-21.851463,198.545076,6.603798,-0.254605,5.506901,-4.568866,0.647062,-5.240437,4.435181,-0.219765,0.207494,-0.054364,-48.008610,188.438535,0
0.012500,-59.522991,-93.587871,192.525190,6.490698,-2.665244,6.280774,-2.852436,3.087760,-6.214069,2.926654,-0.197847,0.195931,-0.054364,-24.890971,188.515989,0
0.013542,-16.784449,-166.399480,146.323485,5.710308,-4.561092,5.764859,-0.583763,4.966068,-5.710466,0.656747,-0.157664,0.189268,-0.054364,-4.680001,188.286474,0
0.014583,34.801243,-204.430165,88.709849,4.613238,-5.817891,4.109959,2.140137,6.326095,-4.153493,-1.947596,-0.088257,0.173460,-0.035692,20.609158,188.517352,0
0.015625,113.983239,-174.783627,41.375568,3.685818,-6.350432,2.248693,4.308063,6.792916,-2.264982,-4.039610,-0.044421,0.175811,-0.043161,62.275197,188.510934,0
0.016667,181.278295,-124.478743,-2.536364,2.860188,-5.448662,0.038192,5.345383,6.072469,-0.128865,-5.192353,-0.000585,0.189268,-0.065566,89.498366,188.513665,0
0.017708,189.989335,-68.616643,-66.637690,1.593468,-3.993048,-2.577105,6.300614,4.440436,2.494068,-5.978637,0.010374,0.188942,-0.035692,96.182576,188.431047,0
0.018750,165.943234,-23.107877,-148.515531,0.055308,-2.114950,-4.228035,5.908820,2.687103,4.231499,-5.779397,-0.015197,0.203117,-0.024490,80.156307,188.519142,0
0.019792,107.234451,22.533778,-198.127273,-0.872112,0.352493,-5.303522,4.431198,0.231702,5.213525,-4.267312,-0.033462,0.211479,-0.065566,51.100917,188.512485,0
0.020833,58.439014,93.762788,-192.735228,-0.770322,2.798635,-6.081364,2.744619,-2.242078,6.153584,-2.783690,-0.066339,0.189595,-0.080503,28.469608,188.512970,0
0.021876,16.188200,165.861623,-146.176516,0.089238,4.637679,-5.589260,0.408781,-4.109359,5.670965,-0.556478,-0.121134,0.209323,-0.069301,9.152128,188.283247,0
0.022917,-34.921107,205.039995,-88.205871,1.197618,5.926430,-3.985952,-2.229297,-5.417926,4.189532,2.015845,-0.154011,0.164641,-0.054364,-15.300091,188.502783,0
0.023959,-113.388526,174.837735,-40.957765,2.125038,6.398617,-2.132623,-4.408417,-5.884746,2.288430,4.150553,-0.212459,0.175354,-0.058098,-56.762550,188.420526,0
0.025000,-182.078709,124.617417,2.584848,2.939358,5.546550,0.105658,-5.400962,-5.204733,0.122937,5.239254,-0.259948,0.192077,-0.035692,-84.743490,188.495151,0
0.026042,-190.018459,69.129825,66.563068,4.149528,4.105137,2.720955,-6.397238,-3.602106,-2.495800,6.107369,-0.230724,0.191751,-0.050629,-89.776440,188.420075,0
0.027084,-166.380688,24.249266,148.871781,5.687688,2.283844,4.383791,-6.027832,-1.907585,-4.245821,5.943708,-0.256295,0.200504,-0.028224,-75.966930,188.495591,0
0.028125,-108.375140,-21.863544,197.461743,6.626418,-0.233303,5.439435,-4.524090,0.599277,-5.198470,4.417391,-0.227071,0.193122,-0.009553,-46.753201,188.495696,0
0.029167,-59.727156,-93.539548,192.980682,6.558558,-2.622640,6.213309,-2.841242,3.062029,-6.163709,2.948001,-0.201500,0.191359,-0.039427,-25.004071,188.495658,0
0.030209,-16.739079,-164.901448,146.926705,5.710308,-4.497187,5.697393,-0.565106,4.903580,-5.630729,0.699442,-0.146705,0.192665,-0.039427,-4.397251,188.420282,0
0.031250,34.789901,-204.865078,89.042235,4.624548,-5.817891,4.125833,2.102823,6.248905,-4.182870,-1.908460,-0.088257,0.181168,-0.035692,21.095488,188.495665,0
0.032292,113.177922,-174.699061,41.720265,3.697128,-6.258125,2.248693,4.278212,6.730428,-2.269178,-3.950664,-0.055380,0.176726,-0.035692,61.031097,188.495627,0
0.033334,181.800050,-124.986141,-2.314773,2.848878,-5.438011,0.042161,5.281950,6.039387,-0.158242,-5.114080,-0.026156,0.190052,-0.031958,91.884776,188.495615,0
0.034375,189.490265,-69.063636,-66.440720,1.627398,-3.957545,-2.592979,6.237181,4.388975,2.523445,-5.957290,-0.011544,0.189529,-0.024490,95.436116,188.420294,0
0.035417,166.249482,-23.301172,-148.527841,0.043998,-2.161104,-4.208193,5.856581,2.672400,4.218909,-5.772282,-0.011544,0.197173,-0.039427,82.848087,188.495703,0
0.036459,107.722179,22.388807,-197.487122,-0.826872,0.370244,-5.299553,4.405078,0.209647,5.259689,-4.256639,-0.033462,0.209127,-0.043161,52.933137,188.420511,0
0.037500,58.654522,93.617817,-192.919887,-0.725082,2.752481,-6.085333,2.696111,-2.216348,6.199748,-2.801480,-0.088257,0.196846,-0.046895,30.369688,188.496105,0
0.038542,16.483105,165.342144,-146.508902,0.089238,4.655430,-5.589260,0.442363,-4.098332,5.679358,-0.545805,-0.102869,0.192600,-0.028224,9.378328,188.344232,0
0.039584,-34.705600,205.124561,-88.415152,1.163688,5.915779,-3.978015,-2.288999,-5.436305,4.193729,2.058539,-0.168623,0.174701,-0.043161,-16.250131,188.495676,0
0.040625,-113.286443,174.970625,-41.154735,2.113728,6.441220,-2.108812,-4.419612,-5.895774,2.246463,4.182574,-0.227071,0.173721,-0.058098,-56.581590,188.419717,0
0.041667,-181.704406,124.907359,2.683333,2.916738,5.603354,0.085815,-5.442007,-5.215760,0.122937,5.281948,-0.245336,0.186721,-0.046895,-86.756670,188.495584,0
0.042709,-190.007117,68.839883,66.513826,4.149528,4.101587,2.764609,-6.412163,-3.557997,-2.525176,6.146505,-0.263601,0.187439,-0.065566,-92.106300,188.420222,0
0.043750,-166.596195,23.560655,148.268561,5.698998,2.287395,4.415540,-6.009175,-1.885530,-4.258411,5.929476,-0.274560,0.174309,-0.050629,-78.036660,188.420388,0
0.044792,-107.535795,-21.911868,197.831061,6.660348,-0.243954,5.459278,-4.572598,0.625007,-5.219453,4.463643,-0.205153,0.197826,-0.031958,-48.246120,188.420376,0
0.045834,-58.831098,-93.152959,192.919129,6.592488,-2.633291,6.249026,-2.833779,3.113490,-6.214069,2.933769,-0.194194,0.190967,-0.069301,-25.094551,188.495725,0
0.046875,-16.591626,-165.215551,146.988258,5.744238,-4.497187,5.745016,-0.617346,4.940338,-5.634926,0.685210,-0.157664,0.184695,-0.009553,-4.804411,188.420484,0
0.047917,34.563051,-204.683864,89.350000,4.635858,-5.782388,4.105991,2.136405,6.263608,-4.174477,-1.922691,-0.102869,0.194755,-0.050629,20.575228,188.495707,0
0.048959,113.166579,-174.952760,41.917235,3.697128,-6.290078,2.252662,4.278212,6.756158,-2.277572,-4.021821,-0.044421,0.176987,-0.020755,61.879347,188.420336,0
0.050000,181.516487,-125.457296,-2.019318,2.871498,-5.469963,0.014381,5.285682,6.035711,-0.116275,-5.114080,-0.029809,0.191555,-0.084238,89.588846,188.495676,0
0.051042,189.717115,-69.740167,-66.169887,1.672638,-3.961095,-2.557262,6.225987,4.429408,2.460495,-5.996426,0.006721,0.192926,-0.035692,95.967686,188.495725,0
0.052084,166.362907,-23.893136,-148.552463,0.145788,-2.164654,-4.196287,5.886432,2.716509,4.248286,-5.765166,-0.018850,0.203836,-0.028224,80.461677,188.495765,0
0.053125,108.357359,22.074704,-197.364016,-0.826872,0.345392,-5.259867,4.416272,0.216999,5.234508,-4.310007,-0.029809,0.209388,-0.061832,51.519387,188.420209,0
0.054167,59.459839,93.400361,-193.092235,-0.747702,2.741830,-6.077396,2.737156,-2.231051,6.174568,-2.829942,-0.066339,0.197303,-0.076769,28.786288,188.495609,0
0.055209,16.641900,164.641452,-147.136743,0.089238,4.595075,-5.581323,0.505797,-4.061574,5.654178,-0.552920,-0.132093,0.195866,-0.035692,9.367018,188.495832,0
0.056250,-34.796340,205.221209,-88.772159,1.186308,5.887377,-3.985952,-2.225566,-5.377493,4.202122,1.987382,-0.168623,0.182213,-0.050629,-15.119131,188.495615,0
0.057292,-112.605893,175.031029,-41.474811,2.068488,6.405717,-2.081032,-4.393492,-5.870043,2.292627,4.118532,-0.212459,0.175419,-0.073035,-56.140500,188.420323,0
0.058334,-181.885886,125.209381,2.178598,2.928048,5.571402,0.125501,-5.460664,-5.241490,0.211067,5.274833,-0.263601,0.188615,-0.061832,-84.901830,188.495846,0
0.059375,-189.825637,69.214391,65.799811,4.115598,4.066084,2.768578,-6.415895,-3.616809,-2.449636,6.132274,-0.270907,0.188223,-0.028224,-89.629410,188.420117,0
0.060419,-166.437400,23.790192,149.450379,5.676378,2.248342,4.352043,-5.990518,-1.859800,-4.220640,5.918803,-0.256295,0.177771,-0.065566,-75.887760,188.495372,0
0.061460,-108.216345,-21.948110,197.104735,6.637728,-0.279457,5.423560,-4.509164,0.610304,-5.190076,4.392487,-0.223418,0.193188,-0.065566,-46.447831,188.420370,0
0.062507,-58.626933,-93.744923,192.943751,6.547248,-2.640392,6.189497,-2.811391,3.084084,-6.146922,2.926654,-0.205153,0.181037,-0.039427,-24.404641,188.495700,0
0.063549,-16.001816,-165.348441,146.446591,5.665068,-4.546891,5.717236,-0.587495,4.969744,-5.626532,0.674537,-0.157664,0.176791,-0.054364,-4.137121,188.420144,0
0.064591,35.107491,-204.852997,88.180493,4.601928,-5.761086,4.090116,2.143868,6.281986,-4.182870,-1.919134,-0.121134,0.185610,-0.031958,21.412168,188.495493,0
0.065634,113.540882,-174.554090,40.969318,3.731058,-6.318480,2.256630,4.300600,6.737780,-2.239801,-4.011148,-0.015197,0.175615,-0.050629,61.675767,188.419918,0
0.066667,181.754680,-125.227759,-2.007008,2.882808,-5.452212,0.065972,5.300607,6.046738,-0.145652,-5.099849,-0.007891,0.190052,-0.050629,91.952636,188.495541,0
0.067713,189.467580,-69.220688,-66.613068,1.616088,-3.971746,-2.493764,6.218524,4.451463,2.464691,-5.939500,-0.015197,0.193906,-0.043161,95.436116,188.420282,0
0.068751,166.680497,-24.062269,-148.527841,0.100548,-2.178855,-4.168507,5.890163,2.756942,4.239892,-5.804302,-0.033462,0.199132,-0.076769,83.210007,188.419824,0
0.069802,107.994399,22.799558,-197.954925,-0.849492,0.377345,-5.311459,4.397616,0.205972,5.259689,-4.274428,-0.044421,0.217881,-0.031958,53.000997,188.419753,0
0.070836,59.664004,93.412442,-193.116857,-0.747702,2.702777,-6.081364,2.763276,-2.190618,6.191354,-2.808595,-0.077298,0.176856,-0.031958,30.822088,188.495184,0
0.071877,16.812038,165.015960,-147.112122,0.123168,4.580874,-5.589260,0.479677,-4.035844,5.633194,-0.592057,-0.113828,0.192338,-0.035692,9.434878,188.344457,0
0.072919,-34.682915,205.233289,-89.104546,1.197618,5.898028,-3.981983,-2.218103,-5.403223,4.218909,1.976709,-0.172276,0.181495,-0.043161,-16.317991,188.419943,0
0.073960,-112.946168,175.091434,-41.708712,2.079798,6.462522,-2.120717,-4.408417,-5.873719,2.301020,4.168342,-0.256295,0.176987,-0.058098,-56.389320,188.419943,0
0.075003,-181.783804,125.342271,2.597159,2.916738,5.574952,0.073909,-5.434544,-5.234139,0.164904,5.267717,-0.256295,0.191097,-0.046895,-86.790600,188.495229,0
0.076047,-189.995774,69.311038,66.673864,4.160838,4.055433,2.716986,-6.438283,-3.609457,-2.483210,6.150063,-0.263601,0.189660,-0.035692,-92.162850,188.419884,0
0.077086,-166.947813,24.043891,148.243940,5.698998,2.298045,4.371886,-6.027832,-1.933315,-4.182870,5.929476,-0.245336,0.202072,-0.043161,-78.149760,188.419857,0
0.078126,-108.409168,-21.658169,197.387879,6.671658,-0.251054,5.491026,-4.546478,0.566195,-5.248830,4.467201,-0.245336,0.206971,-0.061832,-48.246120,188.420405,0
0.079169,-59.091976,-92.971745,193.288448,6.569868,-2.643942,6.245057,-2.859899,3.062029,-6.180496,2.955116,-0.219765,0.195866,-0.050629,-24.879661,188.495222,0
0.080210,-16.489544,-164.768558,147.283713,5.665068,-4.536240,5.752953,-0.621077,4.955041,-5.681089,0.695884,-0.157664,0.189529,-0.069301,-4.555591,188.420093,0
0.081252,34.438283,-205.179182,88.820644,4.601928,-5.771737,4.153614,2.069241,6.259932,-4.166083,-1.876439,-0.091910,0.184303,-0.054364,20.428198,188.417804,0
0.082294,112.508714,-175.097731,41.338636,3.697128,-6.307829,2.256630,4.237167,6.741455,-2.285965,-3.979127,-0.015197,0.175615,-0.046895,61.472187,188.419913,0
0.083336,181.539172,-124.949898,-2.499432,2.860188,-5.462863,0.065972,5.281950,6.076144,-0.162438,-5.114080,-0.048074,0.188876,-0.050629,89.634086,188.495568,0
0.084377,189.864568,-68.846180,-65.751326,1.638708,-3.993048,-2.529482,6.222255,4.444111,2.498265,-5.946616,0.003068,0.192796,-0.024490,95.945066,188.494140,0
0.085419,166.306194,-23.277010,-148.330872,0.145788,-2.193057,-4.172475,5.864044,2.745915,4.185335,-5.779397,0.006721,0.206775,-0.013287,80.687877,188.420481,0
0.086460,108.243934,22.364645,-197.093182,-0.838182,0.334742,-5.259867,4.438661,0.242729,5.188345,-4.306449,-0.037115,0.209388,-0.050629,51.813447,188.420535,0
0.087502,58.983454,93.231228,-193.301516,-0.770322,2.702777,-6.073427,2.763276,-2.172239,6.140994,-2.787248,-0.055380,0.179469,-0.035692,29.001178,188.496735,0
0.088544,16.687270,164.182378,-147.764584,0.055308,4.570223,-5.569417,0.502065,-4.017465,5.666768,-0.567152,-0.113828,0.190967,-0.028224,9.480118,188.496232,0
0.089585,-34.773655,205.329937,-89.141478,1.174998,5.869625,-4.017701,-2.191984,-5.337060,4.210515,1.969593,-0.157664,0.167188,-0.065566,-15.220921,188.345147,0
0.090628,-112.492468,175.091434,-41.905682,2.091108,6.387966,-2.088969,-4.389761,-5.859016,2.322004,4.114974,-0.230724,0.178228,-0.035692,-56.140500,188.420694,0
0.091668,-182.248846,125.970478,2.092424,2.939358,5.567852,0.062004,-5.423350,-5.208408,0.194280,5.242812,-0.252642,0.190836,-0.017021,-85.048860,188.496083,0
0.092708,-189.734897,70.386239,65.405871,4.138218,4.062534,2.693175,-6.344998,-3.624160,-2.403472,6.043327,-0.274560,0.190183,-0.054364,-89.527620,188.496031,0
0.093750,-167.072581,24.744584,148.588637,5.676378,2.276744,4.316325,-5.986787,-1.907585,-4.182870,5.940150,-0.238030,0.204228,-0.043161,-76.374090,188.345258,0
0.094792,-109.577445,-21.585683,196.316857,6.603798,-0.212001,5.387843,-4.471851,0.536789,-5.127126,4.381813,-0.238030,0.211544,-0.031958,-47.035951,188.420696,0
0.095833,-59.659101,-92.681803,193.842425,6.547248,-2.580037,6.209340,-2.897213,3.039975,-6.180496,2.940885,-0.190541,0.198740,-0.013287,-24.800491,188.496063,0
0.096875,-16.705051,-163.185959,148.207008,5.732928,-4.440383,5.709298,-0.624808,4.852120,-5.634926,0.735020,-0.175929,0.191947,-0.043161,-4.374631,188.494739,0
0.097917,34.256803,-205.541609,89.177652,4.658478,-5.761086,4.173456,2.043121,6.208471,-4.216444,-1.819514,-0.069992,0.182017,-0.046895,20.903218,188.418938,0
0.098958,111.533259,-175.121892,41.720265,3.719748,-6.236823,2.296316,4.225973,6.704698,-2.298555,-3.932875,-0.040768,0.176791,-0.020755,59.990577,188.420224,0
0.100000,181.788707,-125.457296,-2.031629,2.871498,-5.466413,0.085815,5.322995,6.068793,-0.191815,-5.121196,0.010374,0.189856,-0.020755,92.065736,188.496120,0
0.101043,189.399525,-69.160283,-65.369697,1.650018,-3.943344,-2.549325,6.222255,4.429408,2.468888,-5.975079,0.010374,0.182409,-0.061832,95.323016,188.494793,0
0.102083,166.657812,-23.506547,-148.133902,0.089238,-2.161104,-4.208193,5.886432,2.694454,4.206319,-5.761608,-0.007891,0.206841,-0.069301,83.187387,188.343704,0
0.103125,108.674949,22.159270,-196.428410,-0.781632,0.302789,-5.240024,4.431198,0.305217,5.167361,-4.306449,-0.044421,0.183062,-0.073035,53.521257,188.420271,0
0.104167,58.620494,92.856720,-193.732387,-0.725082,2.681475,-6.069458,2.752081,-2.150184,6.182961,-2.829942,-0.073645,0.184891,-0.035692,30.573268,188.495577,0
0.105208,16.312968,163.795789,-147.826137,0.111858,4.591525,-5.549574,0.502065,-3.991735,5.662571,-0.624077,-0.117481,0.162093,-0.058098,9.457498,188.345046,0
0.106250,-34.353982,205.692364,-88.981440,1.174998,5.869625,-4.029606,-2.136013,-5.359114,4.265072,1.962477,-0.168623,0.182801,-0.076769,-16.103101,188.344484,0
0.107292,-111.948028,175.393457,-42.078030,2.091108,6.419918,-2.132623,-4.337521,-5.866368,2.296824,4.118532,-0.230724,0.178359,-0.035692,-55.902990,188.421039,0
0.108333,-181.727091,126.212096,1.993939,2.950668,5.621106,0.026286,-5.438276,-5.245166,0.248837,5.225023,-0.263601,0.190901,-0.069301,-86.847150,188.497122,0
0.109375,-189.825637,70.591614,65.381250,4.138218,4.108687,2.689206,-6.374849,-3.613133,-2.466423,6.093137,-0.267254,0.193384,-0.073035,-91.993200,188.496369,0
0.110417,-167.401513,24.841231,148.219319,5.653758,2.329998,4.367917,-6.035295,-1.918612,-4.187067,6.004191,-0.256295,0.205403,-0.035692,-78.511680,188.269743,0
0.111468,-108.647360,-22.346780,197.904925,6.592488,-0.240404,5.439435,-4.557672,0.562519,-5.248830,4.431623,-0.230724,0.229378,-0.035692,-48.166950,188.420806,0
0.112507,-59.761183,-93.491224,193.054546,6.513318,-2.597788,6.237120,-2.803928,3.039975,-6.125939,2.962232,-0.190541,0.204424,-0.031958,-24.992761,188.496266,0
0.113545,-16.852504,-164.381969,147.776137,5.698998,-4.497187,5.673581,-0.587495,4.888877,-5.634926,0.692326,-0.154011,0.194494,-0.076769,-4.623451,188.496263,0
0.114587,34.358886,-205.058372,89.300758,4.624548,-5.761086,4.109959,2.091629,6.241553,-4.178673,-1.837303,-0.073645,0.182866,-0.050629,20.473438,188.269986,0
0.115631,112.565427,-175.013164,41.535606,3.697128,-6.279427,2.268536,4.263286,6.730428,-2.264982,-3.996916,-0.026156,0.178098,-0.058098,61.641837,188.496127,0
0.116671,181.663940,-125.215678,-2.511742,2.848878,-5.445111,0.113595,5.311801,6.050414,-0.162438,-5.099849,-0.004238,0.191163,-0.024490,89.690636,188.496016,0
0.117710,189.762485,-69.679762,-65.111174,1.672638,-3.978847,-2.545356,6.255838,4.433084,2.435314,-5.932385,0.010374,0.191163,-0.035692,95.798036,188.495054,0
0.118751,166.771237,-23.784408,-148.096970,0.077928,-2.185956,-4.212161,5.920014,2.764294,4.206319,-5.807860,0.046904,0.207233,-0.013287,80.846217,188.268652,0
0.119793,108.981197,22.074704,-196.563826,-0.815562,0.316990,-5.243993,4.405078,0.261108,5.184148,-4.277986,-0.033462,0.210368,-0.043161,51.813447,188.419777,0
0.120837,58.745262,93.315795,-193.523107,-0.815562,2.699227,-6.041678,2.748350,-2.179590,6.199748,-2.783690,-0.069992,0.200765,-0.039427,28.582708,188.495734,0
0.121877,16.233570,163.650818,-148.010796,0.055308,4.548922,-5.569417,0.520722,-4.006438,5.633194,-0.599172,-0.106522,0.174047,-0.046895,9.197368,188.495265,0
0.122921,-34.784997,205.499069,-88.501326,1.197618,5.876726,-4.013732,-2.169596,-5.355438,4.223106,1.980266,-0.172276,0.169671,-0.084238,-15.243541,188.269348,0
0.123972,-113.229731,174.849816,-40.477652,2.091108,6.395066,-2.088969,-4.367372,-5.829610,2.280037,4.111417,-0.227071,0.176660,-0.031958,-56.977440,188.420245,0
0.125009,-182.237504,125.004006,2.991098,2.961978,5.553651,0.081847,-5.404693,-5.186354,0.215264,5.235696,-0.238030,0.191228,-0.002084,-84.947070,188.495707,0
0.126050,-189.621471,69.153987,65.972159,4.149528,4.112238,2.693175,-6.367387,-3.613133,-2.432849,6.054001,-0.267254,0.194037,-0.024490,-89.516310,188.495857,0
0.127097,-166.437400,23.524412,149.044129,5.698998,2.294495,4.375854,-5.960667,-1.903909,-4.216444,5.886782,-0.245336,0.206057,-0.058098,-75.921690,188.269503,0
