1-Time,2-VGERA,3-VGERB,4-VGERC,5-VN,6-IGERAN,7-IGERBN,8-IGERCN,9-IGERAT,10-IGERBT,11-IGERCT,12-IN,13-IFD,14-IFAULT,15-VFAULT,16-Speed (rad/s),17-Active Power,18-Reactive Power,19-FAULT 
0.000000,80.182588,105.396699,-194.274054,-0.747702,-5.374106,-1.057137,6.371510,5.462294,0.970669,-6.028447,0.032292,0.602710,-0.024490,31.206628,188.496599,1636.417566,875.559854,0
0.001041,8.055627,152.294768,-179.599811,-0.510192,-3.716126,-3.144612,6.502108,3.767773,3.136162,-6.284612,0.032292,0.604605,-0.043161,17.781658,188.496655,1636.410014,874.577705,0
0.002083,-60.782008,186.181704,-130.382008,0.462468,-1.167026,-5.243993,5.908820,1.308697,5.209328,-5.743819,0.021333,0.599052,-0.035692,-1.897742,188.496547,1637.937988,873.867123,0
0.003124,-114.681571,195.580647,-49.292046,1.944078,1.357222,-6.335354,4.334182,-1.279032,6.485123,-4.317122,-0.051727,0.593565,-0.043161,-14.892931,188.496579,1640.118664,874.040298,0
0.004166,-165.858933,163.807870,21.666288,3.278658,3.714606,-6.509971,2.278197,-3.576375,6.619417,-2.310497,-0.084604,0.592650,-0.050629,-28.159561,188.496545,1641.507446,873.531154,0
0.005209,-180.025716,110.917672,88.562121,4.534068,5.514597,-5.513857,-0.404658,-5.399547,5.721325,0.268942,-0.091910,0.586379,-0.065566,-33.543121,188.496527,1641.951895,873.277336,0
0.006250,-185.742336,24.563370,137.742993,5.484108,6.508675,-3.898643,-2.856168,-6.432433,4.084615,2.677604,-0.179582,0.585726,-0.058098,-39.593971,188.496395,1643.479108,873.036445,0
0.007291,-156.127068,-50.724824,168.544129,6.106158,6.487374,-1.656393,-4.789017,-6.561084,1.923318,4.566821,-0.208806,0.599248,-0.054364,-41.256541,188.497498,1644.150231,872.592851,0
0.008333,-79.406394,-105.028487,192.980682,6.581178,5.503947,1.208924,-6.464402,-5.531874,-0.938827,6.192757,-0.256295,0.600228,-0.046895,-26.270791,188.495832,1644.866394,872.492596,0
0.009376,-6.927816,-152.035285,179.340531,6.287118,3.842416,3.367834,-6.606194,-3.841029,-3.083337,6.431133,-0.274560,0.591017,-0.005818,-11.827921,188.495631,1644.391317,872.173713,0
0.010416,61.093159,-185.765169,130.356629,5.393628,1.357222,5.435466,-6.020369,-1.400331,-5.177486,5.883224,-0.252642,0.587947,-0.028224,6.471658,188.495745,1645.411206,872.215395,0
0.011458,114.142034,-195.297002,48.761932,3.855468,-1.213180,6.503015,-4.423343,1.238857,-6.352560,4.428065,-0.208806,0.590429,0.009119,20.846668,188.495714,1645.112066,871.488240,0
0.012499,164.718244,-163.777923,-21.974811,2.520888,-3.535062,6.669696,-2.374821,3.470038,-6.516231,2.449902,-0.161317,0.590233,-0.046895,31.251868,188.495694,1644.871058,870.268029,0
0.013541,179.452152,-109.945415,-88.735228,1.288098,-5.313751,5.681518,0.278183,5.344670,-5.702073,-0.101074,-0.106522,0.582329,-0.039427,39.836158,188.495597,1643.744902,870.244050,0
0.014583,185.406965,-23.349495,-137.497538,0.326748,-6.339782,4.094085,2.711036,6.326095,-4.077953,-2.445695,-0.073645,0.587359,-0.017021,45.592947,188.495761,1643.092399,870.676992,0
0.015624,155.905121,51.540029,-168.323296,-0.261372,-6.304279,1.851835,4.625229,6.454747,-1.925049,-4.338469,-0.026156,0.574490,-0.046895,46.056657,188.571103,1642.230854,871.008498,0
0.016666,79.309215,105.614155,-192.624432,-0.759012,-5.370556,-1.045231,6.311808,5.473321,0.949685,-5.971521,0.006721,0.586705,-0.039427,31.082218,188.495740,1640.569796,871.322935,0
0.017708,7.125542,152.113554,-179.722917,-0.510192,-3.716126,-3.132706,6.449869,3.826585,3.094195,-6.263265,0.003068,0.581153,-0.035692,18.471568,188.495765,1639.770189,872.417095,0
0.018749,-60.986173,185.650144,-130.394319,0.428538,-1.188328,-5.196370,5.890163,1.345454,5.167361,-5.651315,0.006721,0.610745,-0.043161,-1.524512,188.495662,1638.242363,872.027635,0
0.019791,-114.556803,195.580647,-48.984280,1.944078,1.332370,-6.255982,4.341645,-1.238598,6.342435,-4.270870,-0.051727,0.590690,-0.043161,-14.881621,188.646495,1635.992159,871.539886,0
0.020833,-165.507315,163.481685,21.592424,3.267348,3.632950,-6.502034,2.281929,-3.462427,6.594237,-2.303381,-0.088257,0.591866,-0.039427,-26.791051,188.495718,1634.359236,871.760110,0
0.021874,-180.263909,111.171371,88.635985,4.567998,5.464894,-5.521794,-0.337493,-5.359114,5.746505,0.194227,-0.113828,0.585530,-0.031958,-34.481851,188.495825,1633.820029,872.877788,0
0.022916,-185.560856,24.986202,137.742993,5.472798,6.444770,-3.894674,-2.774077,-6.392000,4.122385,2.592216,-0.157664,0.593434,-0.046895,-40.611871,188.495682,1632.714789,873.685438,0
0.023958,-156.773590,-49.951646,168.667235,6.117468,6.498025,-1.711953,-4.684539,-6.524327,2.019842,4.509895,-0.216112,0.595524,-0.050629,-41.380951,188.571000,1631.880510,874.432717,0
0.024999,-80.801522,-105.197620,192.155872,6.569868,5.546550,1.165270,-6.356193,-5.542902,-0.838106,6.160736,-0.234377,0.602645,-0.054364,-26.135071,188.495662,1631.054731,875.157324,0
0.026041,-8.118779,-152.071527,179.586743,6.354978,3.885020,3.284494,-6.602463,-3.932923,-3.062353,6.463153,-0.245336,0.609765,-0.039427,-12.506521,188.495694,1631.654358,876.153718,0
0.027083,60.650802,-185.185285,130.812122,5.382318,1.378523,5.387843,-6.031563,-1.481198,-5.101946,5.876109,-0.241683,0.604278,-0.046895,5.691268,188.495788,1630.433987,876.758179,0
0.028124,114.266802,-195.514458,49.697538,3.844158,-1.120873,6.451424,-4.501702,1.169018,-6.365150,4.509895,-0.216112,0.597092,-0.005818,20.224618,188.571089,1630.705610,878.147799,0
0.029166,165.047177,-163.500063,-21.063826,2.532198,-3.464056,6.705413,-2.460642,3.385495,-6.591772,2.517501,-0.146705,0.598529,-0.039427,31.466758,188.571156,1630.599976,879.711018,0
0.030208,179.894510,-110.984373,-88.501326,1.276788,-5.281799,5.752953,0.229675,5.352022,-5.748237,-0.051264,-0.077298,0.587685,-0.013287,38.264068,188.495709,1631.241692,880.503548,0
0.031249,185.157430,-24.340129,-138.026894,0.304128,-6.329131,4.121865,2.647603,6.340798,-4.140903,-2.406559,-0.055380,0.585856,-0.035692,45.185787,188.495810,1631.428821,881.456030,0
0.032291,156.370164,50.646042,-168.741857,-0.329232,-6.343332,1.903427,4.610304,6.465774,-1.958623,-4.381164,-0.048074,0.601338,-0.039427,43.138678,188.571156,1632.334419,881.507493,0
0.033333,79.728888,105.843692,-192.390531,-0.759012,-5.359905,-0.989671,6.315540,5.454943,0.869948,-6.003542,0.017680,0.599117,-0.035692,31.195318,188.495761,1632.136911,882.103213,0
0.034374,7.091515,152.427658,-179.710607,-0.521502,-3.737428,-3.108895,6.520765,3.837613,3.106785,-6.270380,0.003068,0.600293,-0.043161,17.657248,188.494768,1632.399589,882.313599,0
0.035416,-61.473901,185.734710,-130.382008,0.405918,-1.188328,-5.228119,5.934940,1.349130,5.171558,-5.697567,0.003068,0.600946,-0.020755,-2.022152,188.495799,1632.771507,882.981037,0
0.036458,-114.829023,195.737699,-48.541099,1.966698,1.325269,-6.259950,4.397616,-1.256977,6.417976,-4.310007,-0.000585,0.594087,-0.017021,-15.073891,188.571111,1633.903031,883.703715,0
0.037499,-165.427918,163.578332,22.232576,3.335208,3.682654,-6.533783,2.255809,-3.502860,6.627810,-2.321170,-0.080951,0.588469,-0.028224,-28.170871,188.571123,1634.569948,884.131197,0
0.038541,-179.957661,110.216979,88.992993,4.556688,5.486195,-5.545605,-0.348687,-5.373817,5.738112,0.222690,-0.106522,0.581153,-0.017021,-33.475261,188.495685,1634.393290,883.989771,0
0.039583,-185.685624,23.548574,137.890720,5.461488,6.476723,-3.926423,-2.781540,-6.351567,4.093008,2.634910,-0.197847,0.594610,-0.050629,-39.560041,188.495647,1633.962473,883.696048,0
0.040624,-156.059013,-51.401354,168.421023,6.072228,6.462522,-1.696079,-4.736778,-6.494921,1.969481,4.545474,-0.227071,0.583047,-0.024490,-41.313091,188.571080,1633.701606,883.305970,0
0.041666,-79.100147,-105.475481,192.857576,6.547248,5.535899,1.197019,-6.400969,-5.473062,-0.905253,6.150063,-0.270907,0.580565,-0.017021,-26.248171,188.571131,1633.345535,882.491686,0
0.042708,-6.689623,-152.071527,179.475948,6.298428,3.849517,3.292431,-6.568881,-3.877787,-3.104320,6.424017,-0.241683,0.582525,-0.039427,-11.658271,188.495731,1632.923986,881.841010,0
0.043749,61.161214,-185.668522,130.319697,5.393628,1.382074,5.395780,-6.001712,-1.404007,-5.131323,5.833414,-0.241683,0.601338,-0.031958,6.596068,188.495685,1633.152080,880.936620,0
0.044791,114.527679,-195.284921,48.774243,3.855468,-1.145724,6.455392,-4.497970,1.180045,-6.344167,4.477875,-0.216112,0.595394,-0.002084,20.925838,188.571156,1632.543236,880.764979,0
0.045833,165.024492,-163.572548,-21.851705,2.520888,-3.496009,6.641916,-2.374821,3.396523,-6.562395,2.471249,-0.164970,0.587751,-0.009553,31.308418,188.495640,1632.320819,880.237118,0
0.046874,179.520207,-110.658189,-88.796781,1.242858,-5.313751,5.752953,0.222213,5.296885,-5.693680,-0.040591,-0.157664,0.591017,-0.039427,39.824848,188.495740,1631.021396,879.943403,0
0.047916,185.327567,-24.291806,-137.866856,0.315438,-6.307829,4.113928,2.669991,6.307717,-4.077953,-2.413674,-0.088257,0.579454,-0.009553,45.581637,188.495810,1630.611802,878.995088,0
0.048958,156.381506,50.621880,-168.446402,-0.306612,-6.304279,1.887552,4.565527,6.410638,-1.967016,-4.320680,-0.033462,0.597941,-0.039427,45.988797,188.646469,1629.337484,878.803452,0
0.049999,80.602260,105.783288,-192.193561,-0.736392,-5.413159,-0.993640,6.259569,5.462294,0.827981,-5.946616,0.021333,0.602645,-0.039427,31.161388,188.570989,1628.640297,878.997269,0
0.051041,7.964887,152.258525,-179.685985,-0.532812,-3.748078,-3.049366,6.427481,3.852316,3.031245,-6.291727,0.003068,0.607022,-0.009553,18.652528,188.495846,1628.274736,879.423656,0
0.052083,-60.725296,185.336041,-130.948296,0.417228,-1.223831,-5.168590,5.897626,1.404266,5.070837,-5.683336,-0.004238,0.598791,-0.035692,-1.343552,188.495664,1626.917695,879.636729,0
0.053124,-114.897078,195.544404,-49.439773,1.932768,1.254264,-6.236139,4.382690,-1.190814,6.363419,-4.306449,-0.040768,0.599575,-0.013287,-14.938171,188.646435,1625.936780,879.798479,0
0.054166,-165.620740,163.360876,21.186174,3.256038,3.565495,-6.474254,2.334168,-3.414642,6.615220,-2.385212,-0.084604,0.592911,-0.039427,-26.972011,188.571198,1624.937579,880.633332,0
0.055208,-180.263909,111.497555,88.759091,4.545378,5.415190,-5.593228,-0.259134,-5.348087,5.780079,0.147975,-0.132093,0.586967,-0.054364,-34.504471,188.495734,1625.070309,881.599687,0
0.056249,-185.220581,24.949959,137.952273,5.484108,6.444770,-3.962140,-2.703181,-6.325836,4.210515,2.471249,-0.154011,0.593891,-0.005818,-40.498771,188.571145,1623.746444,883.693527,0
0.057291,-156.682850,-50.326154,168.654925,6.049608,6.462522,-1.787356,-4.643494,-6.502272,2.057612,4.477875,-0.227071,0.601208,-0.039427,-41.347021,188.571165,1623.267464,884.632766,0
0.058333,-80.608699,-105.741261,191.737311,6.569868,5.557201,1.105741,-6.363655,-5.531874,-0.783549,6.064674,-0.270907,0.601338,-0.050629,-26.169001,188.571187,1621.860241,885.989837,0
0.059374,-7.336146,-152.095689,179.808334,6.298428,3.931173,3.209091,-6.572612,-3.932923,-2.986813,6.388439,-0.263601,0.609700,-0.013287,-12.449971,188.494967,1620.636861,887.004501,0
0.060416,61.308667,-184.871182,130.664394,5.393628,1.396275,5.344189,-6.042758,-1.484874,-5.047389,5.865435,-0.256295,0.596243,-0.020755,5.804368,188.571105,1619.457730,888.177377,0
0.061458,114.550364,-195.586944,49.069697,3.878088,-1.110222,6.431581,-4.512896,1.077124,-6.348364,4.534800,-0.241683,0.596047,-0.035692,20.360338,188.571026,1619.137703,889.715769,0
0.062499,164.888382,-163.210121,-21.605492,2.532198,-3.435654,6.677633,-2.460642,3.359765,-6.537215,2.535291,-0.150358,0.590560,-0.028224,31.545928,188.571033,1618.304650,890.375803,0
0.063541,179.758400,-110.489056,-88.821402,1.220238,-5.264047,5.741047,0.181168,5.322616,-5.714663,-0.005012,-0.110175,0.582590,-0.061832,38.196208,188.495664,1618.569646,891.038158,0
0.064583,184.930580,-23.458223,-137.891478,0.292818,-6.318480,4.165519,2.602827,6.296689,-4.136707,-2.349633,-0.069992,0.586444,-0.024490,45.095307,188.571158,1617.624383,892.426298,0
0.065624,155.916464,51.467543,-168.483334,-0.306612,-6.286527,1.931207,4.576721,6.417989,-2.017377,-4.313565,-0.051727,0.592977,-0.039427,43.116058,188.571011,1617.203695,893.475237,0
0.066666,79.150420,106.399414,-191.984281,-0.736392,-5.374106,-0.961891,6.259569,5.443915,0.869948,-5.971521,-0.000585,0.594871,-0.091706,31.070908,188.573947,1617.133172,893.424652,0
0.067708,6.138745,152.355173,-179.698296,-0.487572,-3.723226,-3.057303,6.472257,3.859667,3.060622,-6.266822,0.024986,0.576645,-0.020755,17.408428,188.495680,1616.765148,893.826005,0
0.068749,-61.825518,185.348121,-130.258902,0.428538,-1.223831,-5.156684,5.908820,1.429996,5.117001,-5.676220,0.003068,0.571681,-0.020755,-2.214422,188.570970,1616.815559,894.496362,0
0.069791,-114.919763,195.761861,-48.257955,1.944078,1.282666,-6.232170,4.386421,-1.201841,6.359222,-4.288660,-0.033462,0.594479,-0.050629,-15.141751,188.571172,1616.543022,894.553452,0
0.070833,-165.427918,163.469604,22.404924,3.301278,3.611648,-6.462348,2.322974,-3.418318,6.556467,-2.321170,-0.084604,0.587881,-0.035692,-28.136941,188.571161,1615.880641,893.748323,0
0.071874,-180.082429,110.555245,89.189962,4.534068,5.408089,-5.513857,-0.288985,-5.359114,5.717128,0.176438,-0.102869,0.583635,-0.020755,-33.441331,188.495749,1615.352632,893.109699,0
0.072916,-185.492801,24.092215,138.223106,5.495418,6.441220,-3.938329,-2.796466,-6.322161,4.088811,2.545964,-0.168623,0.572269,-0.058098,-39.492181,188.646382,1615.653501,891.475861,0
0.073958,-156.501370,-50.797309,168.654925,6.106158,6.448321,-1.692110,-4.684539,-6.454488,2.015645,4.492106,-0.223418,0.587685,-0.028224,-41.324401,188.571089,1615.366049,890.763861,0
0.074999,-80.483932,-105.620452,192.266667,6.547248,5.532349,1.149396,-6.386044,-5.535550,-0.867483,6.118042,-0.245336,0.602188,-0.031958,-26.372581,188.571138,1616.740192,890.079141,0
0.076041,-7.551654,-152.252741,179.414394,6.264498,3.881469,3.220996,-6.553955,-3.925572,-3.016190,6.431133,-0.248989,0.604082,-0.035692,-11.760061,188.495671,1617.407740,890.019067,0
0.077083,60.820939,-185.306094,130.799811,5.371008,1.382074,5.371969,-5.990518,-1.477522,-5.047389,5.858319,-0.205153,0.604539,-0.061832,6.426418,188.571035,1617.612668,889.770603,0
0.078126,114.731844,-195.007060,49.291288,3.832848,-1.127973,6.423643,-4.468119,1.113882,-6.302200,4.517011,-0.219765,0.593957,-0.076769,21.005008,188.571158,1617.129506,889.064541,0
0.079166,165.251342,-163.403415,-21.150000,2.486958,-3.385950,6.689539,-2.460642,3.367117,-6.562395,2.567311,-0.183235,0.599248,-0.009553,31.444138,188.571107,1617.649989,889.526871,0
0.080208,179.554235,-111.105182,-88.870644,1.242858,-5.235645,5.776764,0.151317,5.278507,-5.744040,-0.008570,-0.102869,0.589057,-0.043161,39.802228,188.495671,1617.498486,889.679809,0
0.081249,185.044005,-24.835446,-138.076137,0.304128,-6.240374,4.133771,2.621483,6.267283,-4.124116,-2.363864,-0.059033,0.585856,-0.039427,45.423297,188.571055,1617.700939,888.953623,0
0.082291,156.358821,50.525233,-168.434091,-0.283992,-6.272326,1.970892,4.546870,6.406962,-2.063540,-4.274428,-0.048074,0.599248,-0.050629,45.932247,188.571035,1617.316422,889.142275,0
0.083333,80.500178,106.121553,-191.676516,-0.725082,-5.434461,-0.934111,6.278226,5.480673,0.773424,-5.911038,0.028639,0.603167,-0.039427,31.206628,188.571044,1616.477642,889.975613,0
0.084374,7.329707,152.367253,-179.550569,-0.521502,-3.783581,-2.989837,6.475989,3.863343,2.980884,-6.288169,0.003068,0.608197,-0.054364,18.709078,188.495676,1616.124684,890.264033,0
0.085416,-61.258393,185.058180,-130.862122,0.394608,-1.305487,-5.105093,5.905089,1.400590,5.045657,-5.683336,-0.004238,0.599770,-0.039427,-1.309622,188.646471,1615.619187,889.758850,0
0.086458,-114.999161,195.556485,-49.095076,1.966698,1.211660,-6.224233,4.453586,-1.135677,6.308862,-4.359817,-0.026156,0.596635,-0.046895,-14.983411,188.571122,1614.942084,890.797928,0
0.087499,-165.269123,163.083015,21.653977,3.312588,3.540643,-6.498065,2.356556,-3.366858,6.569057,-2.392327,-0.066339,0.593891,-0.039427,-27.005941,188.571105,1614.383683,891.687784,0
0.088541,-180.195854,111.002238,89.103788,4.556688,5.379687,-5.529731,-0.191969,-5.300302,5.733915,0.105281,-0.132093,0.585856,-0.050629,-34.447921,188.495671,1613.620167,892.573500,0
0.089583,-185.039101,24.116377,137.976894,5.506728,6.434120,-3.985952,-2.673330,-6.289079,4.235696,2.453460,-0.135746,0.574098,-0.058098,-40.430911,188.646002,1612.520552,894.768731,0
0.090624,-156.308548,-51.171817,168.581061,6.094848,6.469622,-1.799262,-4.632300,-6.516975,2.061809,4.445854,-0.201500,0.596896,-0.054364,-41.369641,188.570609,1612.298701,896.095249,0
0.091666,-79.928149,-106.272820,191.552652,6.569868,5.543000,1.085898,-6.315148,-5.553929,-0.821319,6.078906,-0.274560,0.595328,-0.031958,-26.089831,188.570658,1611.190115,896.985612,0
0.092708,-6.326663,-152.107770,179.906819,6.332358,3.924073,3.165436,-6.576343,-3.925572,-2.936452,6.409786,-0.270907,0.600946,-0.046895,-12.235081,188.495200,1610.032340,897.741854,0
0.093749,61.966532,-184.544997,130.578220,5.371008,1.435328,5.288629,-5.994250,-1.536334,-5.047389,5.901014,-0.245336,0.590560,-0.058098,6.007948,188.646062,1609.721147,899.072206,0
0.094791,114.743187,-195.756076,48.404924,3.844158,-1.103121,6.435549,-4.542747,1.080800,-6.289610,4.531243,-0.223418,0.596439,-0.020755,20.439508,188.570683,1609.419783,899.839897,0
0.095833,164.820327,-162.992665,-22.171780,2.509578,-3.385950,6.665727,-2.475568,3.311980,-6.537215,2.538848,-0.150358,0.587881,-0.017021,31.557238,188.570705,1608.206605,899.866529,0
0.096874,179.724372,-110.199114,-89.030682,1.242858,-5.242746,5.772796,0.106540,5.289534,-5.702073,0.059029,-0.132093,0.574947,-0.031958,38.128348,188.495126,1607.426258,900.421909,0
0.097916,184.692387,-23.470304,-137.953031,0.315438,-6.254575,4.137739,2.602827,6.278311,-4.115723,-2.328286,-0.091910,0.568153,-0.031958,45.016137,188.721603,1606.696663,900.988423,0
0.098958,156.165999,51.346734,-168.532576,-0.295302,-6.318480,1.899458,4.513288,6.406962,-2.000590,-4.302891,-0.033462,0.593891,-0.028224,43.082128,188.495247,1607.031102,900.505717,0
0.099999,80.023793,106.435656,-191.775001,-0.759012,-5.384757,-0.930142,6.229718,5.429212,0.827981,-5.950174,-0.011544,0.595590,-0.024490,31.014358,188.570700,1607.476904,899.710239,0
0.101041,7.091515,152.512224,-179.673675,-0.498882,-3.762280,-3.033492,6.431212,3.852316,3.010261,-6.252591,-0.015197,0.594283,-0.020755,17.431048,188.495479,1607.408772,899.329710,0
0.102083,-61.417188,185.215231,-130.677463,0.428538,-1.255783,-5.156684,5.875238,1.418969,5.041461,-5.729588,-0.007891,0.592911,-0.050629,-2.123942,188.646044,1607.615669,900.092678,0
0.103124,-115.237353,195.568566,-49.033523,1.944078,1.268465,-6.228202,4.420004,-1.194489,6.338239,-4.352701,-0.040768,0.595459,-0.043161,-15.141751,188.495403,1608.385674,899.676548,0
0.104166,-165.870275,163.493766,21.543182,3.278658,3.558394,-6.478223,2.322974,-3.410967,6.552270,-2.374538,-0.073645,0.593499,-0.050629,-28.261351,188.570683,1609.010556,899.265770,0
0.105208,-180.093771,111.243856,89.029925,4.556688,5.390338,-5.513857,-0.292716,-5.329708,5.725522,0.176438,-0.128440,0.585334,-0.058098,-33.463951,188.495256,1609.737417,898.301693,0
0.106249,-185.265951,25.010363,138.395455,5.472798,6.434120,-3.950235,-2.721838,-6.355242,4.181139,2.528175,-0.179582,0.594022,-0.031958,-39.413011,188.721578,1611.421270,897.210461,0
0.107291,-156.614795,-50.374478,168.728788,6.049608,6.437670,-1.779419,-4.658419,-6.502272,2.024038,4.452970,-0.227071,0.599379,-0.020755,-41.301781,188.495387,1611.726423,896.336864,0
0.108333,-80.654069,-105.765422,191.971213,6.547248,5.567852,1.137490,-6.359924,-5.553929,-0.817123,6.118042,-0.245336,0.605062,-0.061832,-26.496991,188.570678,1612.544526,896.115982,0
0.109374,-7.506284,-152.252741,179.439016,6.275808,3.888570,3.220996,-6.553955,-3.947626,-2.991009,6.413343,-0.248989,0.609308,-0.035692,-11.929711,188.495332,1613.279157,895.701433,0
0.110416,61.081817,-185.136962,130.861364,5.382318,1.417576,5.320377,-5.997981,-1.499577,-5.072569,5.876109,-0.278213,0.600881,-0.043161,6.347248,188.646265,1613.891972,894.771208,0
