1-Time,2-VGERA,3-VGERB,4-VGERC,5-VN,6-IGERAN,7-IGERBN,8-IGERCN,9-IGERAT,10-IGERBT,11-IGERCT,12-IN,13-IFD,14-IFAULT,15-VFAULT,16-Speed (rad/s),17-Active Power,18-Reactive Power,19-FAULT 
0.000000,-122.621321,-57.188107,189.102841,6.468078,4.080285,1.907395,-5.594993,-3.988059,-1.727805,5.488303,-0.252642,0.444820,-0.013287,-35.511061,188.571201,1586.292649,10.716835,0
0.001042,-47.851558,-115.756330,195.208902,6.626418,2.131182,3.975027,-5.520366,-2.025209,-3.717037,5.378010,-0.259948,0.459322,-0.020755,-17.358511,188.495933,1585.344824,11.516922,0
0.002083,18.331933,-163.850409,164.641667,6.026988,-0.052239,5.260848,-4.490508,0.154511,-5.110339,4.520569,-0.230724,0.447302,-0.024490,-1.264382,188.721925,1584.758508,11.455901,0
0.003125,70.405352,-194.161397,91.775190,4.658478,-2.455777,5.820419,-2.621091,2.532721,-5.655909,2.674047,-0.194194,0.440769,-0.039427,7.851478,188.556899,1582.906125,11.158983,0
0.004167,129.556492,-187.794761,22.700379,3.369138,-4.142159,5.423560,-0.688242,4.322812,-5.450271,0.802619,-0.146705,0.434106,-0.046895,22.452688,188.551574,1582.827513,11.131518,0
0.005208,173.361229,-137.091207,-39.037311,2.238138,-5.345704,4.316325,1.543118,5.480673,-4.296181,-1.303626,-0.128440,0.436327,-0.024490,33.796618,188.570320,1582.672198,12.065826,0
0.006250,196.148313,-63.953414,-93.647159,1.186308,-5.729134,2.459028,3.494624,5.965872,-2.499996,-3.256884,-0.062686,0.445277,-0.031958,42.335668,188.590282,1582.787055,13.213380,0
0.007292,167.678637,-2.703230,-157.059091,-0.080412,-5.256947,0.411239,4.920007,5.425537,-0.426830,-4.587519,-0.048074,0.444558,-0.043161,45.683427,188.585045,1583.117480,13.035474,0
0.008333,122.773677,57.459672,-188.808145,-0.679842,-3.932693,-1.815137,5.487176,4.194160,1.751253,-5.309762,-0.000585,0.458603,-0.054364,38.795638,188.495604,1583.636532,12.061797,0
0.009375,46.892349,116.197027,-195.406629,-0.770322,-1.930336,-3.878800,5.446130,2.198228,3.803436,-5.231489,-0.011544,0.456513,-0.065566,22.905088,188.571190,1584.217155,12.102473,0
0.010417,-19.574704,163.771627,-164.433144,-0.238752,0.199831,-5.120967,4.412541,0.062617,5.142181,-4.327796,-0.033462,0.448347,-0.020755,5.193628,188.721838,1584.021646,12.312471,0
0.011458,-70.684011,195.037006,-90.692614,1.174998,2.674375,-5.720223,2.561782,-2.326620,5.746505,-2.467042,-0.073645,0.436654,-0.035692,-2.757301,188.571080,1583.749865,12.544820,0
0.012500,-129.812466,187.631412,-22.910417,2.498268,4.328805,-5.283679,0.595350,-4.124062,5.435950,-0.624077,-0.143052,0.437960,-0.058098,-17.562091,188.495653,1583.957764,11.536831,0
0.013542,-174.694741,137.459418,38.445644,3.606648,5.511047,-4.105009,-1.699443,-5.259869,4.294449,1.574672,-0.183235,0.443774,-0.020755,-29.143531,188.571022,1585.150924,11.112745,0
0.014583,-196.336232,64.986075,93.954167,4.658478,5.880276,-2.247712,-3.662144,-5.704635,2.489871,3.527930,-0.164970,0.445995,-0.054364,-37.151011,188.646516,1585.775496,10.592415,0
0.015625,-168.036693,2.576125,157.255304,5.902578,5.400989,-0.172143,-5.072601,-5.186354,0.429295,4.808755,-0.208806,0.452463,-0.039427,-40.566631,188.571085,1587.030526,9.559417,0
0.016667,-122.122251,-57.828395,188.659660,6.524628,4.051883,1.990735,-5.580068,-3.980708,-1.736198,5.520324,-0.227071,0.459779,-0.035692,-35.974771,188.495709,1587.177563,9.664889,0
0.017708,-45.571715,-116.251647,195.639773,6.682968,2.088579,4.026619,-5.572605,-1.940667,-3.809364,5.402915,-0.234377,0.439790,-0.035692,-17.663881,188.495662,1587.836372,8.879529,0
0.018750,19.953910,-163.330930,164.186175,6.072228,-0.052239,5.292597,-4.527821,0.202296,-5.169093,4.517011,-0.212459,0.436785,-0.043161,-1.287002,188.646534,1588.182549,8.620138,0
0.019792,70.394010,-195.031222,91.430493,4.658478,-2.523232,5.883916,-2.669599,2.631967,-5.731450,2.688278,-0.183235,0.418298,-0.024490,8.021128,188.571143,1589.911834,7.819508,0
0.020833,129.919452,-187.033664,23.906818,3.357828,-4.149260,5.435466,-0.677048,4.330163,-5.433485,0.831082,-0.143052,0.446257,-0.046895,22.859848,188.495752,1589.740996,7.797498,0
0.021875,174.552192,-137.465715,-38.335606,2.192898,-5.363455,4.308388,1.554312,5.495376,-4.275197,-1.356994,-0.091910,0.444166,-0.106643,33.570418,188.495676,1590.296870,6.795979,0
0.022917,195.944148,-63.989656,-93.733334,1.208928,-5.718483,2.423311,3.520744,5.976899,-2.466423,-3.288905,-0.059033,0.443317,-0.035692,43.082128,188.571069,1590.423271,6.151046,0
0.023958,167.667294,-1.289765,-156.652841,-0.012552,-5.203693,0.355679,4.920007,5.388779,-0.414240,-4.583961,-0.029809,0.448151,-0.031958,45.739977,188.495736,1589.843089,6.276903,0
0.025000,121.106330,58.341578,-188.635796,-0.657222,-3.925592,-1.811168,5.498370,4.249297,1.763844,-5.288415,-0.022503,0.408172,-0.013287,39.813538,188.495702,1589.684904,7.395304,0
0.026042,45.542591,116.184946,-195.554357,-0.747702,-1.969389,-3.858957,5.490907,2.161471,3.795043,-5.231489,-0.022503,0.455010,-0.024490,22.543168,188.495761,1589.352984,7.508738,0
0.027083,-19.223087,163.795789,-164.457766,-0.216132,0.203381,-5.097155,4.434929,0.080996,5.217722,-4.338469,-0.033462,0.451025,-0.046895,5.487688,188.571076,1590.252192,7.290567,0
0.028125,-70.547901,194.626256,-91.788258,1.107138,2.645973,-5.728160,2.576707,-2.311917,5.700341,-2.502621,-0.066339,0.444624,-0.017021,-2.293592,188.495781,1589.886805,7.438074,0
0.029167,-130.356906,187.571008,-23.304356,2.441718,4.279101,-5.255899,0.580424,-4.072602,5.469523,-0.648982,-0.106522,0.442011,-0.039427,-17.765671,188.495696,1590.000881,8.261462,0
0.030208,-174.377151,137.302366,39.122727,3.595338,5.511047,-4.120884,-1.669592,-5.215760,4.294449,1.546209,-0.168623,0.439006,-0.035692,-29.222701,188.511842,1589.359728,8.971849,0
0.031250,-196.540397,63.234344,93.843371,4.669788,5.851874,-2.259618,-3.561397,-5.704635,2.481478,3.467446,-0.179582,0.441815,-0.020755,-36.721231,188.498360,1588.683696,10.004783,0
0.032292,-167.719103,1.186821,156.652084,5.879958,5.365486,-0.195954,-4.983048,-5.175327,0.458672,4.766060,-0.227071,0.453051,-0.050629,-41.120821,188.571044,1587.840915,11.006175,0
0.033333,-121.895401,-57.780072,188.930493,6.468078,4.083835,1.955018,-5.557679,-3.966005,-1.711018,5.491861,-0.234377,0.432147,-0.050629,-35.386651,188.495714,1587.326082,11.269933,0
0.034375,-46.932815,-116.142919,195.368940,6.637728,2.134733,3.975027,-5.546485,-1.984776,-3.750611,5.395799,-0.234377,0.452920,-0.046895,-17.211481,188.495595,1587.005220,11.770020,0
0.035417,18.445358,-163.910813,164.580114,6.015678,0.001015,5.260848,-4.490508,0.169214,-5.127126,4.513453,-0.216112,0.452397,-0.058098,-1.354862,188.495593,1586.780940,11.792706,0
0.036458,70.564147,-194.535905,91.590531,4.669788,-2.487730,5.864073,-2.636017,2.558452,-5.697876,2.659815,-0.154011,0.442011,-0.065566,7.828858,188.571093,1585.705867,12.280198,0
0.037500,129.930795,-187.335686,22.491099,3.391758,-4.120858,5.423560,-0.691973,4.355893,-5.425091,0.823966,-0.132093,0.435870,-0.028224,22.554478,188.495633,1585.866133,12.416879,0
0.038542,173.928354,-136.571728,-39.431250,2.226828,-5.335053,4.308388,1.561774,5.491700,-4.279394,-1.349878,-0.117481,0.435739,-0.050629,33.853168,188.495736,1585.490008,13.034299,0
0.039583,195.989518,-63.059427,-93.917993,1.197618,-5.722033,2.478871,3.472236,5.962196,-2.458029,-3.281789,-0.084604,0.445734,-0.080503,42.346978,188.495712,1585.139090,13.350715,0
0.040625,167.406417,-1.797163,-157.256061,-0.046482,-5.239195,0.407270,4.901350,5.381428,-0.477190,-4.544825,-0.037115,0.441227,-0.035692,45.751287,188.571169,1584.806853,14.256617,0
0.041667,122.467430,57.858341,-188.697349,-0.623292,-3.904291,-1.755608,5.472250,4.205188,1.734467,-5.309762,-0.044421,0.456970,-0.024490,38.750398,188.495770,1584.912739,13.631580,0
0.042708,46.778924,116.499049,-195.308145,-0.804252,-1.944537,-3.870863,5.464787,2.209255,3.807633,-5.213700,-0.018850,0.457885,-0.076769,22.848538,188.495705,1585.137590,13.688681,0
0.043750,-19.472622,163.783708,-164.223864,-0.216132,0.182080,-5.101124,4.401347,0.018508,5.184148,-4.320680,-0.007891,0.447563,-0.065566,5.238868,188.495761,1584.591949,13.152188,0
0.044792,-70.786094,195.242382,-90.163258,1.141068,2.681475,-5.708317,2.517005,-2.374405,5.708735,-2.484831,-0.069992,0.436197,-0.031958,-2.825161,188.495636,1584.873605,12.901872,0
0.045833,-129.914549,187.244823,-22.233333,2.520888,4.303953,-5.287647,0.576693,-4.072602,5.427556,-0.599172,-0.124787,0.438091,-0.024490,-17.663881,188.495714,1584.037075,12.440014,0
0.046875,-175.000988,136.807049,39.048864,3.640578,5.493296,-4.136758,-1.669592,-5.270896,4.281859,1.542651,-0.157664,0.441945,-0.054364,-29.200081,188.571082,1584.593333,12.351913,0
0.047924,-195.791792,63.524285,95.222159,4.703718,5.823472,-2.215963,-3.632293,-5.671553,2.435314,3.506583,-0.216112,0.443840,-0.043161,-37.162321,188.495772,1584.314846,11.742898,0
0.048958,-168.036693,2.709015,157.513826,5.857338,5.344184,-0.195954,-5.020362,-5.175327,0.416705,4.815870,-0.248989,0.452201,-0.065566,-40.544011,188.420300,1585.191467,10.492799,0
0.050000,-122.269704,-57.973366,188.487311,6.456768,4.019930,2.002641,-5.602456,-3.954978,-1.765575,5.477630,-0.248989,0.458799,-0.043161,-35.918221,188.495703,1585.126206,9.778680,0
0.051042,-45.639770,-116.541589,195.676705,6.603798,2.056626,4.030587,-5.531560,-1.907585,-3.821955,5.345989,-0.230724,0.425875,-0.035692,-17.596021,188.420309,1584.852810,8.717440,0
0.052083,20.180760,-163.306768,163.915341,6.038298,-0.084191,5.272754,-4.490508,0.242729,-5.160700,4.484991,-0.230724,0.415097,-0.058098,-1.106042,188.495732,1584.631815,8.190082,0
0.053125,70.700257,-195.345326,90.630303,4.658478,-2.530333,5.879948,-2.684525,2.654021,-5.731450,2.688278,-0.164970,0.416860,-0.043161,8.168158,188.420303,1585.841368,7.821841,0
0.054167,129.930795,-186.671237,23.303599,3.391758,-4.117307,5.427529,-0.658391,4.333839,-5.433485,0.831082,-0.154011,0.440182,-0.028224,22.939018,188.495653,1585.565803,7.906760,0
0.055222,176.548472,-135.641498,-39.394318,2.170278,-5.363455,4.244891,1.614014,5.532133,-4.237427,-1.413919,-0.099216,0.443840,-0.054364,34.056748,188.495691,1586.448114,7.232138,0
0.056254,195.445078,-63.252721,-94.742803,1.141068,-5.686530,2.387594,3.509549,5.929114,-2.479013,-3.296020,-0.069992,0.446387,-0.028224,43.093438,188.495857,1586.272112,7.454541,0
0.057292,167.519842,-1.120632,-157.157576,-0.057792,-5.214343,0.371553,4.931201,5.374076,-0.477190,-4.576845,-0.026156,0.456578,-0.039427,45.728667,188.420278,1586.508538,7.419925,0
0.058333,121.004247,58.643600,-188.475758,-0.645912,-3.872338,-1.803231,5.464787,4.205188,1.751253,-5.259952,0.003068,0.417252,-0.013287,39.689128,188.495627,1585.644152,7.984202,0
0.059375,44.862041,116.450726,-195.591288,-0.804252,-1.969389,-3.835146,5.434936,2.223958,3.795043,-5.210142,0.014027,0.443970,-0.058098,22.305658,188.495693,1585.390470,8.856326,0
0.060417,-20.073774,163.650818,-164.088447,-0.193512,0.153677,-5.093187,4.434929,0.051590,5.171558,-4.338469,-0.066339,0.444036,-0.076769,5.408518,188.495727,1585.330566,9.644421,0
0.061458,-70.820121,194.855793,-91.369697,1.186308,2.621121,-5.688474,2.587901,-2.326620,5.712931,-2.523968,-0.069992,0.443186,-0.017021,-2.316212,188.420321,1585.453699,10.169790,0
0.062500,-130.651811,187.256904,-23.341288,2.453028,4.243598,-5.275742,0.580424,-4.068926,5.444343,-0.702350,-0.113828,0.439659,-0.046895,-17.856151,188.495631,1586.067314,11.278072,0
0.063542,-174.751453,137.229881,39.245833,3.606648,5.493296,-4.089135,-1.636010,-5.226787,4.239892,1.514188,-0.154011,0.438418,-0.039427,-29.267941,188.495631,1585.201027,11.369902,0
0.064583,-196.381602,63.282667,94.323485,4.669788,5.805720,-2.259618,-3.565128,-5.667877,2.464691,3.463889,-0.190541,0.445799,-0.061832,-36.721231,188.495638,1585.001426,11.922648,0
0.065625,-167.469568,0.691504,156.910607,5.868648,5.340634,-0.223734,-4.997974,-5.138569,0.454475,4.766060,-0.238030,0.440312,-0.050629,-41.132131,188.495740,1583.728290,13.192894,0
0.066667,-121.192166,-58.480764,188.819698,6.502008,4.062534,1.939144,-5.576336,-3.958653,-1.727805,5.456283,-0.223418,0.471538,-0.028224,-35.330101,188.495725,1583.255371,14.152371,0
0.067708,-45.980045,-116.432861,195.221213,6.626418,2.109881,3.994870,-5.539023,-2.003154,-3.721234,5.353105,-0.252642,0.445865,-0.013287,-17.143621,188.495609,1582.756851,15.970703,0
0.068750,19.114565,-163.934975,164.235417,6.015678,-0.020286,5.241006,-4.520359,0.136132,-5.118733,4.502780,-0.219765,0.451417,-0.058098,-1.332242,188.495647,1582.675966,17.165574,0
0.069792,70.927107,-194.439258,91.356629,4.658478,-2.441576,5.844230,-2.647211,2.565803,-5.660106,2.684720,-0.172276,0.443709,-0.017021,7.896718,188.495682,1581.202743,17.908225,0
0.070833,130.112275,-187.142392,22.811174,3.357828,-4.096006,5.443403,-0.695704,4.308109,-5.404108,0.791946,-0.168623,0.436981,-0.024490,22.633648,188.495711,1580.760640,17.685405,0
0.071875,174.143862,-136.390514,-39.603599,2.181588,-5.349254,4.264734,1.561774,5.454943,-4.241624,-1.314300,-0.095563,0.434237,-0.061832,33.853168,188.495817,1579.110401,18.730634,0
0.072917,195.853408,-62.310411,-94.336553,1.163688,-5.665229,2.447122,3.419997,5.984251,-2.466423,-3.274673,-0.066339,0.397720,-0.020755,42.301738,188.495647,1579.451471,19.038158,0
0.073958,167.088827,-0.794448,-157.329925,-0.023862,-5.207243,0.423145,4.878962,5.340994,-0.422633,-4.544825,0.003068,0.446975,-0.058098,45.706047,188.495825,1578.667373,18.646527,0
0.075000,121.922990,58.498629,-188.598864,-0.645912,-3.939793,-1.771482,5.472250,4.190485,1.734467,-5.281299,-0.011544,0.447694,-0.017021,38.693848,188.494296,1578.993664,18.373308,0
0.076042,46.631471,117.018528,-195.209660,-0.759012,-2.004892,-3.839114,5.423742,2.205580,3.778256,-5.217258,-0.015197,0.453704,-0.046895,22.859848,188.419509,1579.116677,17.922632,0
0.077083,-19.597389,163.868274,-163.903788,-0.216132,0.182080,-5.101124,4.360302,0.058942,5.142181,-4.324238,-0.026156,0.446518,-0.046895,5.250178,188.495043,1578.677061,17.953589,0
0.078125,-71.137711,195.363191,-90.052462,1.174998,2.685026,-5.652757,2.517005,-2.337648,5.687751,-2.467042,-0.059033,0.442533,-0.017021,-2.836471,188.495075,1578.078294,17.789274,0
0.079167,-130.288851,186.942801,-21.667046,2.486958,4.272000,-5.228119,0.543110,-4.057899,5.431753,-0.606288,-0.117481,0.434694,-0.058098,-17.754361,188.495627,1577.370752,17.209713,0
0.080208,-175.012331,136.323813,39.528977,3.674508,5.518148,-4.105009,-1.677055,-5.245166,4.231499,1.553325,-0.154011,0.436850,-0.013287,-29.234011,188.494840,1577.469742,16.961391,0
0.081250,-195.927902,63.500124,94.495834,4.703718,5.837673,-2.259618,-3.606173,-5.689932,2.439511,3.520814,-0.201500,0.443056,0.005384,-37.117081,188.495057,1577.892575,16.139519,0
0.082292,-167.651048,2.274102,157.686175,5.879958,5.344184,-0.199923,-5.053944,-5.164299,0.446082,4.812312,-0.238030,0.452201,-0.054364,-40.544011,188.494667,1578.944170,15.421957,0
0.083333,-122.337759,-58.227065,188.462690,6.468078,4.009280,1.998673,-5.565142,-3.958653,-1.711018,5.445609,-0.219765,0.459583,-0.020755,-35.884291,188.495164,1578.890242,15.227141,0
0.084375,-45.934675,-117.000663,195.565910,6.637728,2.081478,4.018682,-5.539023,-1.922288,-3.779988,5.385126,-0.256295,0.446583,-0.035692,-17.562091,188.343609,1579.669480,14.060393,0
0.085417,20.384925,-163.391335,163.730682,6.004368,-0.080641,5.264817,-4.460657,0.202296,-5.110339,4.481433,-0.223418,0.464548,-0.005818,-0.947702,188.495054,1579.127515,13.676630,0
0.086458,71.108587,-195.454054,89.719318,4.658478,-2.512582,5.836293,-2.613629,2.613588,-5.689483,2.642026,-0.146705,0.420911,-0.031958,8.292568,188.495790,1579.553361,13.314281,0
0.087500,129.885425,-186.526266,22.651136,3.425688,-4.110207,5.395780,-0.650928,4.308109,-5.357944,0.795503,-0.164970,0.439659,-0.039427,22.984258,188.495826,1578.782815,13.236273,0
0.088542,175.028577,-136.849588,-38.975758,2.215518,-5.331503,4.240922,1.580431,5.473321,-4.229034,-1.342762,-0.059033,0.438483,-0.035692,33.751378,188.420236,1579.314016,12.542396,0
0.089583,195.524475,-63.953414,-94.681250,1.174998,-5.651028,2.435217,3.472236,5.914411,-2.453833,-3.267558,-0.062686,0.443578,-0.043161,43.093438,188.495669,1578.613804,11.994918,0
0.090625,167.270307,-1.181036,-157.502273,-0.035172,-5.207243,0.379490,4.893888,5.337319,-0.447814,-4.566172,-0.048074,0.453900,-0.017021,45.683427,188.420408,1578.921082,11.998456,0
0.091667,121.174385,59.006027,-188.549622,-0.645912,-3.893640,-1.779419,5.423742,4.168430,1.742860,-5.210142,-0.040768,0.444101,-0.039427,39.643888,188.495747,1577.812008,12.227203,0
0.092708,44.725931,116.933962,-195.603599,-0.770322,-1.972939,-3.795460,5.378966,2.220283,3.761469,-5.178121,0.003068,0.435609,-0.058098,22.181248,188.495644,1577.140916,13.017135,0
0.093750,-20.799694,163.662899,-163.817614,-0.193512,0.192730,-5.025721,4.401347,0.055266,5.096018,-4.253081,-0.033462,0.450764,-0.054364,5.137078,188.495669,1575.886535,13.137954,0
0.094792,-71.319191,194.867874,-90.483334,1.186308,2.638872,-5.672600,2.531931,-2.286187,5.666768,-2.502621,-0.066339,0.440312,-0.002084,-2.418001,188.420334,1575.527008,13.953252,0
0.095833,-130.958059,186.785749,-22.787311,2.464338,4.225846,-5.216213,0.632663,-4.043196,5.427556,-0.627635,-0.099216,0.442207,-0.031958,-18.048421,188.495772,1575.566510,14.103663,0
0.096875,-174.944276,137.109072,39.332008,3.617958,5.464894,-4.049449,-1.658398,-5.179002,4.210515,1.514188,-0.161317,0.436458,-0.024490,-29.347111,188.494782,1574.733197,14.374353,0
0.097917,-196.120724,63.451800,94.692803,4.669788,5.770218,-2.239775,-3.568859,-5.616417,2.452101,3.449657,-0.190541,0.435151,-0.024490,-36.698611,188.495778,1573.570786,15.204571,0
0.098958,-167.446883,0.558614,157.169129,5.857338,5.280279,-0.215797,-4.971854,-5.065054,0.441885,4.719808,-0.227071,0.436589,-0.061832,-41.154751,188.495606,1571.362937,15.783259,0
0.100000,-120.863233,-59.012324,188.684281,6.468078,3.991528,1.939144,-5.539023,-3.892490,-1.706821,5.420704,-0.248989,0.437503,-0.028224,-35.183071,188.495725,1570.354529,15.962118,0
0.101042,-45.140700,-116.795288,195.319698,6.626418,2.116981,3.943279,-5.516634,-1.922288,-3.700250,5.381568,-0.267254,0.449327,-0.024490,-16.973971,188.495707,1569.450886,16.868148,0
0.102083,19.851828,-163.886652,163.915341,6.004368,-0.034487,5.205288,-4.460657,0.180241,-5.093552,4.477875,-0.190541,0.444493,-0.028224,-1.287002,188.495618,1569.421327,17.026872,0
0.103125,71.471547,-194.547986,91.085796,4.669788,-2.452227,5.792639,-2.628554,2.525370,-5.634926,2.698951,-0.212459,0.444493,-0.050629,7.919338,188.495595,1568.656410,18.221573,0
0.104167,130.565975,-186.792046,22.897349,3.369138,-4.078254,5.368000,-0.662122,4.278703,-5.336961,0.806177,-0.150358,0.440443,-0.039427,22.735438,188.495588,1568.469689,18.538805,0
0.105208,174.438767,-136.402595,-39.652841,2.158968,-5.327952,4.181394,1.580431,5.421861,-4.212247,-1.378341,-0.099216,0.435674,-0.024490,33.921028,188.700788,1567.597605,18.427163,0
0.106250,195.637900,-61.923822,-94.865909,1.129758,-5.633276,2.415374,3.427459,5.903384,-2.441243,-3.267558,-0.073645,0.450829,-0.043161,42.324358,188.480754,1567.169533,18.974579,0
0.107292,166.748552,0.244510,-157.600758,-0.035172,-5.171740,0.407270,4.837917,5.392455,-0.456207,-4.566172,-0.029809,0.414574,-0.046895,45.717357,188.509696,1567.562120,19.951811,0
0.108333,121.185727,59.259726,-188.488069,-0.600672,-3.879439,-1.763545,5.468519,4.172106,1.671516,-5.242163,0.010374,0.444428,-0.020755,38.592058,188.515250,1567.683711,20.774354,0
0.109375,46.041661,117.368875,-195.123485,-0.781632,-1.944537,-3.839114,5.412548,2.201904,3.786649,-5.203026,-0.000585,0.449588,-0.028224,22.882468,188.496462,1568.220931,20.140455,0
0.110417,-19.756184,163.940760,-163.756061,-0.170892,0.210482,-5.061438,4.352839,0.073645,5.100214,-4.277986,-0.066339,0.451417,-0.035692,5.306728,188.495568,1568.555499,20.181649,0
0.111458,-71.659466,195.278625,-89.683144,1.174998,2.688576,-5.664663,2.472229,-2.315593,5.704538,-2.477716,-0.080951,0.431559,-0.013287,-2.960881,188.495620,1569.047014,19.972824,0
