1-Time,2-VGERA,3-VGERB,4-VGERC,5-VN,6-IGERAN,7-IGERBN,8-IGERCN,9-IGERAT,10-IGERBT,11-IGERCT,12-IN,13-IFD,14-IFAULT,15-VFAULT,16-Speed (rad/s),17-Active Power,18-Reactive Power,19-FAULT 
0.000000,155.213229,-172.609064,-7.251326,2.860188,-1.060518,5.066388,-3.389754,1.095503,-4.976045,3.332248,-0.227071,0.564168,-0.024490,227.548223,188.480683,1015.791797,993.288288,0
0.001042,176.355650,-123.935102,-80.474811,1.446438,-2.888911,4.963205,-1.486755,2.819430,-4.938275,1.567556,-0.161317,0.562470,-0.035692,215.016744,188.478628,1016.563468,992.724051,0
0.002083,187.425930,-40.504379,-131.637690,0.485088,-4.266419,4.340137,0.378930,4.377948,-4.329754,-0.328776,-0.143052,0.520074,-0.054364,165.286675,188.479089,1017.017989,991.572690,0
0.003125,153.273661,30.917925,-174.220076,-0.306612,-4.944522,3.137656,2.184913,4.984447,-3.184057,-1.979617,-0.084604,0.559008,-0.043161,94.927166,188.412645,1017.199541,991.509635,0
0.004167,105.294884,101.760347,-182.148107,-0.510192,-4.845114,1.125584,3.774477,4.877850,-1.249382,-3.580648,-0.048074,0.566259,-0.050629,7.455628,188.421747,1016.336522,990.998495,0
0.005208,20.849968,149.443675,-179.993751,-0.498882,-3.993048,-0.842833,4.752096,4.080212,0.735654,-4.484341,-0.059033,0.546204,-0.054364,-86.145930,188.494276,1015.810276,991.516388,0
0.006250,-59.148688,173.847101,-151.137690,0.077928,-2.651042,-2.501702,4.912545,2.790024,2.452101,-4.754738,-0.007891,0.572530,-0.031958,-161.210398,188.407346,1015.200152,990.709974,0
0.007292,-117.415113,184.623267,-76.596970,1.491678,-0.602532,-4.124852,4.267018,0.801443,4.013271,-4.231734,-0.059033,0.564887,-0.035692,-209.877327,188.411757,1014.471301,991.048411,0
0.008333,-155.820820,173.086004,7.496780,3.052458,1.147755,-4.874915,3.300593,-1.084217,4.919757,-3.256884,-0.051727,0.562143,-0.017021,-220.169427,188.414260,1014.004656,991.581400,0
0.009375,-175.919731,123.614702,81.335796,4.443588,2.954847,-4.866977,1.393863,-2.822847,4.848413,-1.531328,-0.121134,0.557179,0.009119,-209.243967,188.504048,1013.642103,992.782066,0
0.010417,-188.044864,41.923629,131.870834,5.393628,4.367858,-4.239941,-0.464359,-4.362986,4.369990,0.407698,-0.132093,0.548948,-0.039427,-160.237738,188.351852,1013.871345,993.839259,0
0.011458,-153.506950,-30.211449,174.145455,6.185328,5.021109,-3.001743,-2.229297,-4.980512,3.119375,2.047866,-0.183235,0.553912,-0.017021,-88.396620,188.289668,1012.493027,993.945442,0
0.012500,-104.484663,-102.008261,182.344319,6.388908,4.911050,-1.057137,-3.841249,-4.862888,1.201487,3.709380,-0.190541,0.519029,-0.099175,-3.843061,188.436875,1011.712410,993.792907,0
0.013542,-21.797834,-149.123787,179.611364,6.343668,4.122888,0.954935,-4.822600,-4.102008,-0.754172,4.602399,-0.245336,0.569982,-0.024490,90.290066,188.432620,1011.004543,994.039132,0
0.014583,57.871889,-173.889640,151.272349,5.800788,2.827037,2.601897,-4.990511,-2.852253,-2.495800,4.883469,-0.212459,0.561294,-0.061832,165.467635,188.365165,1010.602694,994.153635,0
0.015625,117.635524,-184.327541,76.386932,4.420968,0.753674,4.217111,-4.412149,-0.845293,-4.056969,4.285751,-0.216112,0.562601,-0.009553,215.944164,188.288416,1009.782455,994.375718,0
0.016667,155.530819,-172.899006,-6.882008,2.848878,-0.996613,4.994953,-3.389754,1.003609,-4.984438,3.367827,-0.208806,0.566193,-0.058098,226.722593,188.437523,1009.119135,995.437733,0
0.017708,175.595702,-123.935102,-80.942614,1.412508,-2.842757,4.963205,-1.542725,2.764294,-4.917291,1.603135,-0.201500,0.558616,-0.061832,213.173214,188.438920,1007.980606,995.659088,0
0.018750,187.516670,-40.431894,-131.674622,0.462468,-4.241567,4.367917,0.341616,4.315460,-4.354935,-0.268293,-0.117481,0.558289,-0.031958,165.829555,188.365608,1006.837359,996.316603,0
0.019792,153.092181,30.229314,-174.244698,-0.306612,-4.962274,3.173373,2.099092,4.966068,-3.276385,-1.922691,-0.073645,0.559465,-0.065566,94.712276,188.288405,1005.961073,997.360661,0
0.020833,105.465021,101.712023,-182.246591,-0.487572,-4.848665,1.169239,3.729700,4.903580,-1.282955,-3.584206,-0.066339,0.563188,-0.046895,6.324628,188.421864,1006.033127,997.959722,0
0.021875,20.305528,149.431594,-179.710607,-0.464952,-3.985947,-0.787273,4.722245,4.047130,0.664310,-4.473668,-0.062686,0.563972,-0.054364,-86.394750,188.495893,1004.964049,998.101716,0
0.022917,-58.547536,173.943748,-151.383902,0.055308,-2.754001,-2.458047,4.946127,2.841484,2.456298,-4.797432,-0.033462,0.569852,-0.061832,-161.696728,188.413280,1005.414844,998.899507,0
0.023958,-117.630621,184.550782,-76.695455,1.469058,-0.669987,-4.033575,4.322988,0.772037,3.983894,-4.253081,-0.062686,0.563907,-0.084238,-209.685057,188.346737,1005.375046,998.852353,0
0.025000,-155.673368,173.073923,7.878409,3.052458,1.115803,-4.898726,3.274473,-1.080541,4.902970,-3.253326,-0.059033,0.557505,-0.035692,-221.187327,188.418851,1005.075249,998.769767,0
0.026042,-176.180608,123.759673,81.188068,4.443588,2.986799,-4.859040,1.419982,-2.789765,4.894576,-1.485076,-0.088257,0.557375,-0.076769,-209.368377,188.488862,1005.336494,998.764094,0
0.027083,-187.818014,42.080681,131.957008,5.393628,4.371408,-4.200255,-0.460628,-4.318877,4.302843,0.372120,-0.143052,0.559988,-0.043161,-162.556288,188.353027,1004.316521,998.126825,0
0.028125,-153.257415,-30.936303,174.182387,6.230568,5.035310,-3.021586,-2.277805,-5.002566,3.178129,2.022961,-0.164970,0.576972,-0.043161,-88.826400,188.342113,1003.939672,999.268842,0
0.029167,-104.870308,-102.116989,181.888826,6.377598,4.939452,-1.057137,-3.815130,-4.918024,1.201487,3.691591,-0.241683,0.555349,-0.031958,-4.555591,188.414902,1004.060743,999.747079,0
0.030208,-22.070054,-149.305000,179.537501,6.309738,4.119338,0.907312,-4.826331,-4.113035,-0.758369,4.627304,-0.248989,0.566259,-0.035692,90.357926,188.427767,1004.452468,999.959317,0
0.031250,58.631837,-173.333919,151.136932,5.800788,2.830587,2.578086,-4.979317,-2.826522,-2.512586,4.904816,-0.238030,0.550319,-0.031958,166.530775,188.346449,1004.646644,999.848180,0
0.032292,117.295249,-184.810777,76.251515,4.409658,0.743024,4.232985,-4.442000,-0.812211,-4.065363,4.314214,-0.230724,0.564887,-0.035692,214.315524,188.274166,1005.217425,999.872014,0
0.033333,155.519476,-172.633226,-6.685038,2.826258,-1.003713,5.010828,-3.400948,1.025664,-4.992832,3.382058,-0.208806,0.568806,-0.043161,227.616083,188.406700,1005.486584,999.893350,0
0.034375,175.924634,-123.596837,-81.028788,1.457748,-2.878260,4.967173,-1.550188,2.767969,-4.950865,1.606693,-0.124787,0.551234,-0.024490,214.417314,188.436704,1005.698148,1000.369022,0
0.035418,187.233107,-40.407732,-131.785417,0.439848,-4.248668,4.379823,0.311765,4.322812,-4.405295,-0.250504,-0.080951,0.552932,-0.043161,165.569425,188.496744,1005.701764,1001.110824,0
0.036472,152.956071,31.666942,-175.254167,-0.351852,-4.948072,3.101939,2.196107,4.947689,-3.188254,-1.993848,-0.099216,0.566912,-0.024490,93.309836,188.329579,1006.276834,1000.239551,0
0.037502,104.568964,102.569767,-181.938826,-0.521502,-4.809612,1.161301,3.752089,4.936662,-1.257775,-3.584206,-0.029809,0.531245,-0.024490,5.826988,188.479328,1006.210213,1000.578420,0
0.038541,20.260158,149.371189,-179.673675,-0.476262,-4.039201,-0.783305,4.725976,4.076536,0.672703,-4.477225,-0.040768,0.559596,-0.058098,-85.636980,188.477186,1006.351178,1000.863347,0
0.039583,-58.195918,173.883344,-151.186932,0.066618,-2.768202,-2.473921,4.934933,2.859863,2.405938,-4.822337,-0.048074,0.575078,-0.035692,-160.825858,188.477016,1005.920736,1001.326332,0
0.040625,-117.585251,184.369568,-76.498485,1.457748,-0.687739,-4.057386,4.337914,0.838201,4.017468,-4.203271,-0.037115,0.563123,-0.050629,-209.866017,188.260814,1005.515255,1001.426736,0
0.041666,-155.593970,173.110166,7.903030,3.097698,1.080300,-4.874915,3.322981,-1.054811,4.936543,-3.271115,-0.048074,0.563384,-0.028224,-220.180737,188.420755,1005.598891,1001.979758,0
0.042708,-176.021813,124.267071,81.175758,4.443588,2.919344,-4.866977,1.442371,-2.771386,4.881986,-1.566907,-0.113828,0.561033,-0.024490,-209.436237,188.420200,1005.054202,1002.734360,0
0.043750,-188.056206,41.790739,131.993940,5.404938,4.343006,-4.239941,-0.427046,-4.311525,4.353203,0.340099,-0.143052,0.555937,-0.054364,-159.774028,188.495694,1004.833523,1003.663231,0
0.044791,-153.223387,-31.045031,173.923864,6.241878,5.014008,-3.037460,-2.214372,-4.980512,3.186522,2.026518,-0.172276,0.561882,-0.050629,-88.317450,188.269458,1004.587275,1003.543054,0
0.045833,-105.233268,-101.633753,182.368940,6.400218,4.964304,-1.073011,-3.818861,-4.943754,1.201487,3.656012,-0.216112,0.564299,-0.020755,-4.781791,188.420336,1004.571016,1003.732335,0
0.046875,-21.865889,-149.196272,179.451326,6.343668,4.129989,0.883500,-4.796480,-4.127738,-0.724795,4.588168,-0.256295,0.565801,-0.017021,91.036526,188.420839,1003.757923,1003.959606,0
0.047916,58.870029,-173.805074,151.050758,5.846028,2.812836,2.617772,-5.001705,-2.892686,-2.483210,4.879912,-0.248989,0.551169,-0.039427,165.648595,188.495658,1003.016304,1004.783058,0
0.048958,117.817004,-183.795981,77.002462,4.420968,0.814029,4.225048,-4.490508,-0.896754,-4.052773,4.349792,-0.227071,0.569460,-0.050629,215.887614,188.344914,1002.350390,1005.818487,0
0.050000,155.610216,-172.886925,-6.709659,2.826258,-0.954009,5.018765,-3.430799,1.003609,-4.913095,3.392732,-0.197847,0.562666,-0.013287,226.598183,188.420289,1001.389295,1005.651190,0
0.051041,175.073947,-123.282733,-81.570455,1.423818,-2.828556,4.971142,-1.561382,2.786348,-4.883718,1.610250,-0.139399,0.553651,-0.024490,212.630334,188.420197,1000.803566,1004.969703,0
0.052083,187.471300,-41.108424,-131.970076,0.473778,-4.245117,4.403634,0.289377,4.315460,-4.430475,-0.257619,-0.139399,0.556068,-0.050629,166.327195,188.472627,1001.112017,1005.162717,0
0.053125,153.160236,29.854806,-174.330872,-0.385782,-4.940972,3.197185,2.091629,4.973419,-3.259598,-1.890671,-0.106522,0.559269,-0.020755,94.282496,188.398021,1000.384157,1005.973321,0
0.054166,104.500909,102.303987,-182.258902,-0.487572,-4.859316,1.200987,3.725969,4.903580,-1.303939,-3.559301,-0.062686,0.548556,-0.039427,5.600788,188.472598,999.683257,1006.099033,0
0.055208,20.781913,149.479917,-179.464394,-0.487572,-4.046302,-0.763462,4.703588,4.069185,0.655917,-4.495015,-0.037115,0.575862,-0.024490,-85.512570,188.406045,999.791840,1006.134024,0
0.056250,-57.946383,173.992072,-151.285417,0.055308,-2.757551,-2.493764,4.878962,2.856187,2.431118,-4.776085,-0.015197,0.572726,-0.050629,-161.821138,188.468944,999.786618,1005.588011,0
0.057291,-117.812101,184.526620,-76.006061,1.491678,-0.641585,-4.081198,4.341645,0.786740,3.979697,-4.210387,-0.037115,0.558420,-0.024490,-209.696367,188.268073,999.634474,1005.286693,0
0.058333,-155.718738,173.098085,7.669129,3.063768,1.105152,-4.882852,3.308056,-1.058487,4.928150,-3.285347,-0.037115,0.561033,-0.050629,-221.368287,188.417686,999.638578,1005.370963,0
0.059375,-176.191951,124.097938,80.966478,4.420968,2.972598,-4.843166,1.449833,-2.808144,4.865200,-1.552675,-0.088257,0.555741,-0.061832,-209.311827,188.504744,1000.010877,1004.986964,0
0.060416,-187.727274,40.920914,131.796970,5.393628,4.343006,-4.216130,-0.479285,-4.326228,4.357400,0.389909,-0.164970,0.542676,-0.043161,-161.843758,188.497035,1000.284054,1004.674020,0
0.061458,-153.189360,-30.815494,174.207008,6.219258,5.081464,-3.009680,-2.240492,-4.995215,3.203309,2.076328,-0.168623,0.553782,-0.058098,-89.403210,188.272827,1001.016690,1004.761887,0
0.062500,-105.755023,-101.682077,181.876516,6.343668,4.918151,-1.037294,-3.848712,-4.925376,1.230864,3.680917,-0.234377,0.567043,-0.039427,-4.917511,188.432847,1001.077520,1004.755012,0
0.063541,-21.071914,-149.341243,179.623675,6.332358,4.101587,0.982715,-4.833794,-4.061574,-0.787746,4.559705,-0.245336,0.546661,-0.058098,91.409756,188.432740,1001.100336,1003.608134,0
0.064583,59.210304,-173.370161,151.124622,5.846028,2.787984,2.625709,-5.012899,-2.874307,-2.495800,4.879912,-0.259948,0.564430,-0.039427,166.293265,188.510700,1001.195740,1003.331211,0
0.065625,117.454044,-184.665807,76.670076,4.398348,0.771426,4.268702,-4.412149,-0.845293,-4.082150,4.314214,-0.241683,0.571485,-0.039427,214.462554,188.284493,1001.890315,1002.600934,0
0.066666,155.496791,-172.488255,-7.312879,2.814948,-1.000163,5.002890,-3.393485,1.018312,-4.971848,3.346480,-0.216112,0.564626,0.012853,227.367263,188.286597,1002.387998,1002.378295,0
0.067708,175.833894,-123.210248,-81.287311,1.502988,-2.856959,4.990985,-1.576308,2.764294,-4.942472,1.603135,-0.175929,0.559334,-0.043161,214.507794,188.436392,1002.725016,1003.010732,0
0.068750,187.267135,-41.458770,-131.982387,0.496398,-4.227366,4.324263,0.300571,4.308109,-4.409492,-0.232714,-0.132093,0.558093,-0.054364,166.010515,188.515348,1002.410314,1002.873696,0
0.069791,153.307688,30.446770,-174.330872,-0.363162,-4.933871,3.117813,2.125211,4.966068,-3.251204,-1.919134,-0.055380,0.551822,-0.043161,94.350356,188.287250,1002.602103,1002.746887,0
0.070833,104.001839,102.581848,-182.037311,-0.498882,-4.827363,1.212893,3.718506,4.870498,-1.232595,-3.552185,-0.095563,0.555480,-0.031958,6.471658,188.355903,1002.523932,1001.753762,0
0.071875,21.235613,149.516160,-179.612122,-0.498882,-4.010799,-0.767430,4.711051,4.058158,0.647523,-4.487899,-0.000585,0.567435,-0.061832,-85.060170,188.420415,1002.508701,1001.597670,0
0.072916,-58.332028,173.822939,-151.063826,0.010068,-2.693646,-2.454079,4.871500,2.797375,2.401741,-4.779642,-0.033462,0.570766,-0.069301,-161.493148,188.517710,1002.219110,1001.104517,0
0.073958,-117.800758,184.719914,-75.759849,1.525608,-0.645135,-4.093104,4.311794,0.801443,3.962911,-4.199713,-0.029809,0.561359,-0.031958,-210.013047,188.287975,1001.849393,1001.161990,0
0.075000,-156.036328,172.928952,7.398295,3.086388,1.122903,-4.839197,3.252085,-1.054811,4.928150,-3.271115,-0.044421,0.561163,-0.031958,-220.497417,188.289189,1001.835053,1001.036025,0
0.076041,-176.180608,123.989210,81.212690,4.409658,2.933545,-4.775700,1.431176,-2.833874,4.881986,-1.470845,-0.110175,0.555480,-0.046895,-209.130867,188.439931,1002.566852,1000.315337,0
0.077083,-187.954124,40.389354,131.969319,5.404938,4.371408,-4.235973,-0.423314,-4.263741,4.319629,0.389909,-0.168623,0.523406,-0.054364,-159.253768,188.518117,1001.659823,999.867411,0
0.078125,-153.280100,-30.380581,174.293182,6.219258,5.028209,-3.021586,-2.206909,-4.984188,3.199112,2.008729,-0.186888,0.568480,-0.017021,-88.916880,188.290023,1000.937012,999.973232,0
0.079166,-105.494145,-101.669996,182.208902,6.411528,4.907500,-1.025388,-3.826324,-4.951106,1.193093,3.666686,-0.201500,0.566912,-0.031958,-3.956161,188.367035,1001.140921,999.929915,0
0.080208,-20.436734,-149.196272,179.549811,6.388908,4.051883,0.907312,-4.837525,-4.068926,-0.724795,4.566821,-0.223418,0.562535,-0.061832,91.681196,188.430274,1000.443757,1000.558872,0
0.081250,58.643179,-173.732588,151.063069,5.812098,2.844788,2.605866,-5.020362,-2.892686,-2.458029,4.915490,-0.245336,0.568284,-0.020755,165.286675,188.516711,1000.393583,1001.132023,0
0.082291,117.578812,-183.977195,76.867046,4.375728,0.803378,4.225048,-4.408417,-0.863672,-4.040183,4.321330,-0.234377,0.569068,-0.031958,216.012024,188.269265,999.676280,1001.194364,0
0.083333,155.496791,-172.741954,-7.706818,2.826258,-1.017914,5.018765,-3.423336,1.018312,-4.938275,3.364269,-0.208806,0.557767,-0.050629,226.292813,188.483079,999.331918,1001.314991,0
0.084375,175.425564,-123.415623,-81.361174,1.446438,-2.849858,4.971142,-1.546457,2.767969,-4.938275,1.645829,-0.183235,0.559661,-0.076769,213.229764,188.422474,999.134290,1001.651427,0
0.085416,187.278477,-41.688308,-132.031629,0.439848,-4.262869,4.316325,0.341616,4.319136,-4.375918,-0.254061,-0.117481,0.558812,-0.024490,166.078375,188.501822,999.407103,1001.097232,0
0.086458,152.853988,31.244110,-174.207766,-0.363162,-4.905469,3.153530,2.128943,4.955041,-3.238614,-1.947596,-0.091910,0.552410,-0.046895,93.366386,188.280124,999.330476,1000.877827,0
0.087500,104.466881,102.424796,-182.086554,-0.487572,-4.820262,1.177176,3.763283,4.903580,-1.224202,-3.587764,-0.062686,0.552736,-0.065566,6.177598,188.425907,1000.171835,1001.058342,0
0.088541,21.553203,149.528241,-179.427463,-0.487572,-4.003698,-0.775368,4.711051,4.065509,0.689490,-4.509246,-0.015197,0.567435,-0.028224,-85.704840,188.412949,1000.849291,1000.869952,0
0.089583,-58.967208,173.774615,-150.965341,0.010068,-2.700746,-2.493764,4.886425,2.793700,2.456298,-4.754738,-0.033462,0.560053,-0.031958,-162.420568,188.473584,1001.128869,1000.611454,0
0.090625,-117.789416,184.876966,-75.784470,1.536918,-0.645135,-4.101041,4.322988,0.768361,3.983894,-4.185482,-0.055380,0.561425,-0.043161,-209.786847,188.327786,1001.592255,1000.201757,0
0.091666,-156.070355,172.675253,7.164394,3.041148,1.115803,-4.874915,3.248354,-1.058487,4.877790,-3.231979,-0.066339,0.566128,-0.039427,-221.368287,188.482017,1001.084457,999.343551,0
0.092708,-176.452828,123.361003,81.261932,4.443588,2.972598,-4.815386,1.364012,-2.815495,4.852609,-1.463729,-0.080951,0.554958,-0.046895,-208.904667,188.429507,1000.540242,999.125195,0
0.093750,-187.636534,40.268545,131.969319,5.438868,4.382059,-4.184381,-0.486748,-4.333580,4.298646,0.368562,-0.154011,0.554696,-0.031958,-161.866378,188.499136,1000.975803,999.241485,0
0.094791,-153.336812,-30.006073,174.650190,6.230568,5.014008,-2.942214,-2.277805,-4.973160,3.169736,2.040750,-0.175929,0.566063,-0.054364,-89.618100,188.279088,1001.411751,998.675087,0
0.095833,-105.063130,-102.225718,181.839584,6.388908,4.921701,-0.969828,-3.844981,-4.914348,1.172110,3.698706,-0.194194,0.547706,-0.039427,-3.503761,188.350232,1001.445067,998.207926,0
0.096875,-19.971692,-149.498295,179.685228,6.366288,4.076735,0.974778,-4.803943,-4.035844,-0.758369,4.595284,-0.238030,0.557440,-0.009553,91.330586,188.419008,1001.958914,997.902549,0
0.097917,58.620494,-173.213110,150.952273,5.834718,2.763132,2.613803,-4.990511,-2.822847,-2.529373,4.865680,-0.223418,0.566716,-0.017021,166.089685,188.484742,1002.452813,996.328874,0
0.098959,117.306592,-186.912855,75.451326,4.364418,0.696870,4.236954,-4.393492,-0.804860,-4.061166,4.289309,-0.238030,0.564495,-0.009553,214.779234,188.336852,1003.338150,996.117561,0
0.100000,155.281284,-172.258718,-8.014583,2.837568,-1.067618,4.998922,-3.374828,1.091827,-4.963455,3.303785,-0.179582,0.557636,-0.031958,227.231543,188.285744,1004.118868,995.071745,0
0.101042,176.344307,-123.258571,-80.991856,1.457748,-2.906662,4.983048,-1.471829,2.848836,-4.929881,1.585345,-0.201500,0.556199,-0.046895,214.835784,188.438574,1005.432112,994.331300,0
0.102084,187.074312,-40.842644,-131.871591,0.462468,-4.223816,4.324263,0.371467,4.322812,-4.363328,-0.335892,-0.117481,0.546531,-0.054364,165.060475,188.517848,1005.842365,993.551544,0
0.103125,152.933386,31.920641,-174.269319,-0.363162,-4.909019,3.082096,2.166256,4.944013,-3.100123,-1.990291,-0.095563,0.553912,-0.024490,93.830096,188.439989,1006.347664,991.835524,0
0.104167,104.659704,102.340230,-181.914205,-0.521502,-4.745707,1.101773,3.781939,4.881526,-1.232595,-3.537954,-0.066339,0.563058,-0.020755,7.105018,188.282044,1005.595015,991.625701,0
0.105211,20.838625,149.733616,-179.636743,-0.521502,-3.936243,-0.822991,4.692394,4.032427,0.710474,-4.480783,-0.004238,0.567631,-0.054364,-86.349510,188.435276,1005.310399,991.173392,0
0.106250,-59.557018,173.726292,-150.792993,0.043998,-2.654593,-2.489796,4.890156,2.767969,2.468888,-4.736948,-0.037115,0.528697,-0.058098,-161.741968,188.498456,1005.222945,990.839171,0
0.107292,-117.528538,185.094422,-75.722917,1.525608,-0.641585,-4.061355,4.289406,0.749983,3.983894,-4.210387,-0.015197,0.562209,-0.020755,-210.171387,188.338720,1005.521873,990.911605,0
0.108333,-156.093040,172.626929,7.287500,3.018528,1.151306,-4.855072,3.237159,-1.084217,4.890380,-3.199958,-0.051727,0.558812,-0.017021,-220.112877,188.418326,1005.874019,990.481628,0
0.109375,-176.237321,122.986495,81.655871,4.443588,2.972598,-4.799512,1.360280,-2.826522,4.835823,-1.428151,-0.102869,0.553455,-0.080503,-208.814187,188.424480,1005.851304,989.981876,0
0.110416,-187.738616,40.872590,132.129356,5.382318,4.353657,-4.188350,-0.479285,-4.296822,4.290253,0.400582,-0.154011,0.548229,-0.043161,-159.468658,188.510246,1005.872846,989.469898,0
