1-Time,2-VGERA,3-VGERB,4-VGERC,5-VN,6-IGERAN,7-IGERBN,8-IGERCN,9-IGERAT,10-IGERBT,11-IGERCT,12-IN,13-IFD,14-IFAULT,15-VFAULT,16-Speed (rad/s),17-Active Power,18-Reactive Power,19-FAULT 
0.000000,-113.149051,-65.315409,183.349437,3.804652,3.965084,2.011581,-5.641965,-3.837539,-2.141283,6.014962,0.121129,0.463442,-0.029590,-35.153279,188.647291,1572.958875,20.302802,0
0.001042,-36.558157,-121.268637,191.770546,4.029838,2.196398,3.957532,-5.661296,-2.022140,-4.082476,5.969268,0.124775,0.436433,-0.029590,-63.152733,188.571936,1573.042458,19.869999,0
0.002083,27.704518,-160.309051,154.513520,3.275465,-0.016294,5.183972,-4.524655,0.211029,-5.186799,4.746951,0.110191,0.435193,-0.029590,-84.442224,188.496556,1572.678870,19.516476,0
0.003125,78.542882,-194.745421,77.836472,1.823015,-2.401452,5.764487,-2.684378,2.675869,-5.790726,2.964881,0.059144,0.457654,-0.025873,-99.494604,188.651455,1573.414753,19.101361,0
0.004167,134.940810,-174.250378,15.303969,0.629529,-3.916944,5.257558,-0.724252,4.217819,-5.160916,0.927685,0.040913,0.453176,-0.029590,-88.607805,188.721905,1573.214998,19.004734,0
0.005208,181.293103,-126.095837,-44.688834,-0.575216,-5.212268,4.039295,1.684345,5.516703,-3.978946,-1.341788,-0.032010,0.445734,0.015011,-62.657366,188.571113,1573.084630,19.955362,0
0.006250,190.287844,-52.595563,-100.598675,-1.644849,-5.498487,2.256869,3.524621,5.763567,-2.141283,-3.158129,-0.053887,0.463373,-0.025873,-24.739329,188.495821,1572.544311,20.802193,0
0.007292,163.733019,7.503653,-158.914548,-2.782039,-5.080167,0.163745,4.997615,5.368584,-0.092247,-4.692689,-0.086703,0.450833,-0.003573,6.074706,188.646393,1572.170220,21.325699,0
0.008336,112.691257,65.735413,-182.999161,-3.221151,-3.671089,-2.007053,5.554337,3.910189,2.116399,-5.142014,-0.072118,0.432437,-0.003573,35.661583,188.721806,1571.437136,21.435352,0
0.009375,36.348961,121.124881,-191.432421,-3.446337,-1.880387,-3.973445,5.569802,2.117577,4.061906,-5.130591,-0.064826,0.465715,-0.037023,63.323286,188.571103,1571.540524,21.784321,0
0.010417,-27.789415,160.130059,-154.515643,-2.680705,0.295611,-5.159003,4.510483,-0.092804,5.127405,-3.889234,-0.064826,0.445045,-0.022156,84.139928,188.495698,1570.899319,22.410481,0
0.011459,-78.627779,194.437234,-77.303921,-1.216996,2.717463,-5.682284,2.631546,-2.557645,5.744273,-2.126204,-0.042949,0.453245,-0.033307,100.340658,188.646495,1570.304838,23.199576,0
0.012500,-134.844907,174.235816,-14.880783,-0.034769,4.214608,-5.236678,0.648223,-4.091998,5.118777,-0.073777,0.011744,0.448973,-0.011006,86.977026,188.721924,1569.597795,24.011376,0
0.013542,-181.152001,125.905100,44.917593,1.124939,5.484245,-3.981621,-1.706248,-5.417468,3.949748,2.256622,0.084667,0.443874,-0.033307,62.411362,188.570980,1568.376179,25.042297,0
0.014584,-190.350141,52.404827,100.851738,2.194572,5.777803,-2.244165,-3.565855,-5.671927,2.129341,4.050116,0.102898,0.427958,-0.033307,24.605908,188.495738,1567.876810,25.823209,0
0.015625,-163.354619,-7.847075,159.556464,3.388058,5.333797,-0.196010,-5.046582,-5.273147,0.071676,5.531366,0.095606,0.461995,-0.022156,-5.735277,188.721820,1566.827749,26.310634,0
0.016667,-112.730954,-65.644270,183.300831,3.860949,4.001778,1.974788,-5.603304,-3.829943,-2.106773,5.988307,0.117483,0.437398,-0.011006,-34.973146,188.721876,1566.237766,26.857191,0
0.017709,-36.060960,-121.374343,191.539664,3.984801,2.163372,3.924827,-5.634233,-2.063917,-4.022083,5.969268,0.139360,0.452349,-0.007290,-63.017633,188.571069,1565.761336,28.014292,0
0.018750,27.998316,-160.356031,154.622885,3.275465,-0.001616,5.143091,-4.482127,0.150262,-5.156603,4.777414,0.095606,0.453107,-0.022156,-83.158775,188.495504,1565.687407,29.133694,0
0.019792,78.893180,-194.627970,77.666349,1.800497,-2.368426,5.731782,-2.699843,2.634092,-5.777784,3.002959,0.055498,0.455312,-0.022156,-99.922421,188.721815,1565.508832,30.099021,0
0.020834,135.132908,-174.238633,15.389031,0.652048,-3.920613,5.233030,-0.739717,4.198830,-5.126406,0.980995,0.048206,0.451384,-0.033307,-86.063423,188.646462,1565.108456,30.708620,0
0.021875,181.473902,-125.778721,-44.688834,-0.541438,-5.179243,4.039295,1.649549,5.524299,-4.000515,-1.337980,-0.039302,0.447801,-0.029590,-61.644117,188.571094,1565.332866,31.004672,0
0.022917,190.366943,-52.572073,-101.060439,-1.633590,-5.465462,2.281398,3.501424,5.748375,-2.141283,-3.139090,-0.057533,0.455449,-0.029590,-25.200920,188.495689,1565.157036,31.290198,0
0.023959,163.461821,7.491908,-159.424918,-2.793298,-5.072828,0.216891,5.020812,5.398968,-0.100874,-4.639379,-0.093995,0.449662,-0.029590,5.973381,188.721828,1564.995458,31.987231,0
0.025000,112.781656,65.700178,-183.047768,-3.299967,-3.678428,-1.982524,5.577534,3.936774,2.112086,-5.161054,-0.093995,0.456138,-0.044457,35.695358,188.646498,1565.416980,32.209835,0
0.026042,36.416761,121.641661,-191.189388,-3.412560,-1.876717,-3.973445,5.569802,2.098588,4.018768,-5.103936,-0.101287,0.463580,-0.055607,64.336535,188.571105,1564.765196,32.391292,0
0.027084,-27.699015,160.564625,-154.066031,-2.737001,0.295611,-5.138562,4.498885,-0.149772,5.153287,-3.912082,-0.064826,0.462753,-0.018440,84.218737,188.495787,1565.344536,31.926152,0
0.028125,-78.808578,194.495959,-77.534802,-1.183218,2.666090,-5.800840,2.639278,-2.588028,5.783097,-2.130012,-0.042949,0.460066,-0.022156,100.295624,188.721857,1566.063025,31.655026,0
0.029167,-135.421204,173.824741,-15.573428,-0.046029,4.214608,-5.220325,0.675286,-4.107190,5.131719,-0.066161,-0.013779,0.453245,-0.029590,88.564450,188.571103,1566.363380,31.470246,0
0.030209,-181.694398,126.128255,44.723167,1.124939,5.487915,-4.014326,-1.752642,-5.463042,3.906610,2.252814,0.059144,0.448215,-0.066757,63.008053,188.571120,1566.735456,30.970015,0
0.031250,-189.965943,52.839392,101.471473,2.250869,5.774134,-2.235988,-3.612249,-5.683321,2.068948,4.088194,0.099252,0.455725,-0.011006,27.048964,188.495700,1566.944163,30.034071,0
0.032292,-163.693617,-7.471235,159.896711,3.343021,5.344805,-0.179658,-5.112306,-5.337712,0.067363,5.580868,0.106545,0.448146,-0.022156,-5.284944,188.721875,1568.305462,29.936499,0
0.033334,-112.821353,-65.796955,183.130707,3.827171,3.895364,1.974788,-5.614902,-3.852730,-2.115401,6.003539,0.102898,0.479564,-0.007290,-35.243346,188.571049,1568.662352,30.050772,0
0.034375,-36.659856,-121.891123,191.381692,3.996060,2.130347,3.945268,-5.611036,-2.018342,-4.052280,5.984499,0.132068,0.466818,-0.022156,-63.558032,188.571118,1569.089106,29.296953,0
0.035417,27.681919,-160.696636,154.148970,3.309243,-0.016294,5.126738,-4.501458,0.199635,-5.173858,4.765990,0.110191,0.463097,-0.025873,-84.577324,188.495656,1569.212425,28.622330,0
0.036459,79.232178,-194.815891,78.079505,1.845534,-2.353749,5.739958,-2.719174,2.664476,-5.764843,2.945842,0.059144,0.462615,-0.051890,-99.393280,188.721860,1569.093313,27.724554,0
0.037500,135.584905,-173.616147,15.960160,0.640789,-3.909605,5.224853,-0.716520,4.179840,-5.152289,0.923878,0.015390,0.457172,-0.022156,-88.382638,188.571172,1569.039669,27.311852,0
0.038542,181.914599,-126.178052,-44.640227,-0.530179,-5.182912,4.047471,1.641817,5.497713,-3.966004,-1.372251,-0.046595,0.454209,-0.014723,-62.848758,188.571064,1568.821438,26.668974,0
0.039584,189.903647,-53.265029,-101.668022,-1.644849,-5.491148,2.265045,3.478227,5.744577,-2.162852,-3.142897,-0.072118,0.459239,-0.014723,-25.245954,188.495689,1568.960483,26.801602,0
0.040625,163.778219,6.845933,-159.704406,-2.815817,-5.047142,0.163745,4.986017,5.360989,-0.087933,-4.597493,-0.112226,0.459170,0.000144,5.748214,188.721909,1568.355798,26.451877,0
0.041667,113.335353,65.606218,-182.780431,-3.243670,-3.700445,-1.990700,5.554337,3.955764,2.060320,-5.100128,-0.112226,0.474604,-0.022156,35.616549,188.571120,1567.586843,27.066704,0
0.042709,37.207756,121.841326,-190.982809,-3.468856,-1.851031,-3.924387,5.596865,2.128971,4.027396,-5.096320,-0.093995,0.466267,0.015011,63.649778,188.571073,1567.744138,27.114807,0
0.043750,-27.348718,160.447175,-154.102486,-2.737001,0.258916,-5.089505,4.467956,-0.115591,5.079953,-3.885427,-0.053887,0.467300,-0.003573,84.275028,188.495696,1566.647155,27.470950,0
0.044792,-79.362274,194.355019,-77.826442,-1.273292,2.655082,-5.698636,2.666341,-2.550049,5.722704,-2.091933,-0.042949,0.460824,-0.037023,100.216816,188.721851,1565.610727,27.548495,0
0.045834,-135.794101,173.660311,-15.743552,-0.057288,4.130210,-5.150827,0.690750,-4.114786,5.097208,-0.077585,-0.006487,0.458550,-0.025873,86.740601,188.646357,1565.388650,27.524973,0
0.046875,-181.784797,126.151745,44.856835,1.091161,5.440212,-3.981621,-1.690784,-5.432659,3.910924,2.264238,0.062790,0.452004,-0.007290,62.546462,188.571024,1565.171957,27.576264,0
0.047917,-190.078942,53.579328,101.860327,2.250869,5.689736,-2.235988,-3.523328,-5.645342,2.081889,4.008229,0.088314,0.455036,-0.040740,25.033724,188.495636,1564.458153,28.256912,0
0.048959,-163.569318,-6.837004,160.176199,3.354280,5.311780,-0.183746,-5.034983,-5.292137,0.050108,5.481864,0.121129,0.464475,-0.011006,-5.431302,188.721884,1563.058639,28.217007,0
0.050000,-113.442849,-65.714740,182.972735,3.804652,3.943067,1.937995,-5.583973,-3.845135,-2.111087,5.931190,0.124775,0.471503,-0.022156,-35.108246,188.646408,1562.240725,28.104802,0
0.051042,-37.371752,-122.079043,191.150811,3.996060,2.130347,3.924827,-5.576241,-2.033534,-4.009142,5.931190,0.117483,0.470814,-0.003573,-63.321607,188.571047,1561.399699,28.282498,0
0.052084,27.365521,-160.684891,154.173274,3.297983,0.031409,5.085857,-4.493726,0.161656,-5.096210,4.743143,0.102898,0.467714,0.000144,-83.293875,188.571065,1560.319065,28.757556,0
0.053125,79.525976,-194.557500,78.018747,1.823015,-2.379435,5.707253,-2.723040,2.626497,-5.747588,2.976304,0.044560,0.462891,0.000144,-99.866129,188.721833,1560.029058,29.556188,0
0.054167,136.048202,-173.686617,15.887250,0.618270,-3.880249,5.196236,-0.701055,4.149457,-5.096210,0.954340,0.044560,0.456138,0.000144,-85.872032,188.571062,1559.359929,30.000600,0
0.055209,182.174498,-126.131072,-44.931867,-0.541438,-5.171904,4.014766,1.622487,5.478724,-3.953063,-1.357020,-0.024718,0.452280,-0.014723,-61.599084,188.570960,1559.109259,30.266856,0
0.056250,189.994046,-53.335499,-102.032572,-1.667368,-5.447114,2.252781,3.474361,5.733183,-2.167166,-3.142897,-0.053887,0.456552,-0.029590,-25.133370,188.569491,1559.122474,30.370688,0
0.057292,163.586120,7.127813,-160.044653,-2.804557,-5.032464,0.192362,5.005347,5.368584,-0.109502,-4.624148,-0.115872,0.464613,-0.022156,6.232322,188.721905,1559.506175,30.686391,0
0.058334,113.357952,65.864608,-182.841189,-3.221151,-3.671089,-1.962083,5.554337,3.898795,2.116399,-5.088705,-0.148688,0.471365,0.000144,35.864232,188.570917,1559.284061,29.684029,0
0.059375,37.365955,122.193677,-190.946354,-3.446337,-1.854700,-3.973445,5.554337,2.064407,4.031709,-5.069665,-0.090349,0.472812,-0.007290,64.572960,188.570977,1558.916873,28.891940,0
0.060417,-27.473017,160.776035,-153.543509,-2.680705,0.284602,-5.077240,4.448625,-0.134581,5.105836,-3.854964,-0.042949,0.466198,-0.018440,84.252512,188.570959,1558.893697,28.567936,0
0.061459,-79.497873,194.448979,-77.012280,-1.194477,2.651412,-5.768135,2.647010,-2.622209,5.731331,-2.061470,-0.006487,0.457034,-0.029590,100.374433,188.721947,1559.145986,27.840887,0
0.062500,-136.144399,173.167020,-15.075210,-0.034769,4.185252,-5.187620,0.667553,-4.095796,5.041130,-0.035699,0.015390,0.452762,-0.037023,88.271734,188.571089,1558.243444,27.629332,0
0.063542,-182.225494,125.846375,45.549480,1.113679,5.480576,-4.026590,-1.733311,-5.432659,3.906610,2.283277,0.033621,0.449042,0.003860,62.568978,188.495660,1558.415902,27.744522,0
0.064584,-189.694745,52.569257,102.346394,2.273387,5.715422,-2.231900,-3.565855,-5.645342,2.056007,4.057731,0.102898,0.452969,0.007577,26.328432,188.571123,1558.495980,27.481024,0
0.065625,-163.659717,-7.753115,160.103289,3.354280,5.311780,-0.159217,-5.069778,-5.280743,-0.010285,5.577060,0.128422,0.469160,-0.007290,-6.005477,188.721895,1559.356892,26.480806,0
0.066667,-112.527555,-66.372460,183.057797,3.793393,3.924719,2.007493,-5.599438,-3.772974,-2.119715,5.969268,0.106545,0.467645,-0.033307,-35.659904,188.571165,1559.216668,26.139094,0
0.067709,-36.490357,-122.407903,191.199417,4.018579,2.141356,3.953444,-5.553044,-1.991757,-4.022083,5.919766,0.095606,0.470952,-0.018440,-63.839490,188.495747,1559.054453,25.913946,0
0.068750,28.122616,-160.825831,153.334808,3.264206,-0.045650,5.089945,-4.455064,0.226220,-5.117779,4.678410,0.088314,0.463511,-0.040740,-84.633616,188.571060,1558.611703,25.112946,0
0.069792,79.740675,-194.968576,77.010158,1.811756,-2.408791,5.715429,-2.645717,2.668274,-5.726019,2.892532,0.037267,0.454967,-0.025873,-99.550896,188.721869,1558.138919,24.236550,0
0.070834,136.036902,-173.052387,14.963723,0.607011,-3.902266,5.159443,-0.650796,4.183638,-5.091896,0.881991,0.048206,0.453520,0.003860,-88.078663,188.571004,1558.066937,23.552417,0
0.071875,182.129298,-125.438116,-45.733877,-0.575216,-5.138878,3.982061,1.634085,5.509107,-3.922867,-1.372251,-0.017425,0.448422,-0.022156,-62.184517,188.495635,1558.115053,23.478760,0
0.072917,189.553349,-52.149253,-102.312061,-1.689887,-5.439775,2.244605,3.493692,5.714194,-2.102459,-3.142897,-0.064826,0.455725,-0.018440,-24.288996,188.570977,1557.378297,23.235812,0
0.073959,163.461821,8.314059,-159.825923,-2.849594,-5.014116,0.204627,4.989883,5.288828,-0.096560,-4.616532,-0.097641,0.462339,-0.003573,6.829013,188.721967,1556.399490,23.079114,0
0.075000,112.205360,66.733739,-182.695369,-3.299967,-3.656411,-1.982524,5.511810,3.887401,2.043065,-5.050626,-0.086703,0.466404,-0.048173,36.179466,188.571064,1555.335182,24.373727,0
0.076042,35.998664,122.299382,-190.994961,-3.412560,-1.865709,-3.928475,5.500211,2.072002,3.997199,-5.020163,-0.086703,0.468265,-0.044457,63.919977,188.495582,1554.398902,25.060701,0
0.077084,-28.501310,160.576370,-153.227565,-2.680705,0.310289,-5.122210,4.437027,-0.145975,5.097208,-3.847348,-0.064826,0.450489,-0.007290,84.432645,188.571065,1554.122805,25.328733,0
0.078125,-80.017670,194.660389,-76.137360,-1.250774,2.666090,-5.690460,2.647010,-2.569038,5.662311,-2.069086,-0.013779,0.453589,-0.014723,100.284366,188.721867,1553.097094,26.365124,0
0.079167,-135.895801,173.037825,-13.884346,-0.034769,4.159566,-5.167179,0.648223,-4.091998,5.049757,-0.062353,0.011744,0.450626,-0.011006,86.504177,188.571031,1553.051209,27.112094,0
0.080209,-182.055995,125.047714,45.999092,1.147457,5.462229,-3.985709,-1.690784,-5.398478,3.876414,2.222352,0.073729,0.444563,-0.040740,61.792154,188.495624,1552.043808,27.975227,0
0.081250,-189.706045,51.629656,102.322090,2.228350,5.667719,-2.199195,-3.558123,-5.611161,2.068948,4.008229,0.059144,0.451109,-0.022156,23.817825,188.646339,1551.229417,28.809556,0
0.082292,-163.049521,-9.021576,160.091138,3.354280,5.330128,-0.159217,-5.011787,-5.257956,0.011284,5.493288,0.113837,0.444081,-0.033307,-6.748526,188.721844,1549.952140,29.934047,0
0.083334,-111.623561,-66.983201,182.936280,3.793393,3.902703,1.950259,-5.556910,-3.795762,-2.128342,5.927382,0.139360,0.462477,-0.011006,-35.716195,188.570950,1549.490248,30.543643,0
0.084375,-35.190866,-122.701529,191.162962,4.029838,2.170711,3.920739,-5.560777,-2.003150,-3.991887,5.870264,0.164883,0.431817,-0.014723,-63.693132,188.495651,1548.626313,31.268659,0
0.085417,29.037910,-160.872811,153.359112,3.252946,-0.045650,5.089945,-4.458930,0.218624,-5.126406,4.716488,0.059144,0.475706,-0.018440,-83.451492,188.721824,1549.089331,31.920242,0
0.086459,80.147472,-195.039046,76.135238,1.755459,-2.397782,5.650019,-2.665048,2.660678,-5.704450,2.957265,0.037267,0.455518,-0.033307,-100.057521,188.646391,1549.117846,33.048058,0
0.087500,136.116002,-173.240307,14.076651,0.618270,-3.876580,5.147179,-0.662394,4.126669,-5.053072,0.939109,0.022683,0.452693,-0.033307,-85.579315,188.571185,1548.335047,34.230401,0
0.088542,182.276197,-124.815630,-46.049821,-0.563957,-5.146217,3.965708,1.657282,5.486320,-3.966004,-1.345596,-0.024718,0.444081,-0.011006,-60.912326,188.495662,1548.268210,35.225171,0
0.089584,189.756748,-51.033477,-102.482184,-1.644849,-5.417758,2.191459,3.489826,5.725588,-2.141283,-3.131474,-0.046595,0.455312,0.007577,-24.097604,188.721924,1548.438595,36.156514,0
0.090625,163.077624,9.347620,-160.032501,-2.770779,-5.025125,0.184186,5.005347,5.360989,-0.031854,-4.631764,-0.086703,0.457861,-0.011006,7.313121,188.646413,1549.266570,36.201735,0
0.091667,111.199667,67.274010,-182.853341,-3.209892,-3.586691,-1.994789,5.542739,3.879805,2.099144,-5.122975,-0.108580,0.428303,-0.018440,36.517215,188.570645,1550.183307,35.895730,0
0.092709,34.936471,122.639987,-191.007113,-3.423819,-1.829014,-3.936651,5.550471,2.064407,4.044651,-5.062050,-0.086703,0.450213,-0.018440,64.888193,188.495354,1550.972799,36.012281,0
0.093750,-29.303605,160.975700,-152.462010,-2.703224,0.328636,-5.122210,4.440893,-0.191549,5.131719,-3.874003,-0.072118,0.441256,-0.014723,84.342578,188.721732,1551.583108,36.058946,0
0.094792,-80.221068,195.083209,-75.189530,-1.205737,2.699116,-5.747694,2.658608,-2.633603,5.735645,-2.057663,-0.024718,0.454691,-0.014723,100.599599,188.570790,1552.743825,35.685217,0
0.095834,-136.166999,172.615005,-13.495492,-0.012251,4.185252,-5.171267,0.644357,-4.164159,5.092895,-0.005236,-0.010133,0.449593,-0.029590,87.945242,188.570837,1553.692016,34.982830,0
0.096875,-182.440193,124.707109,46.570221,1.169976,5.484245,-3.997973,-1.721713,-5.466840,3.893669,2.268046,0.037267,0.443254,-0.011006,62.242487,188.495349,1554.834547,34.735347,0
0.097917,-189.389647,50.678310,102.808157,2.284646,5.741109,-2.150138,-3.581320,-5.671927,2.073262,4.080578,0.110191,0.442358,-0.011006,25.799290,188.721478,1555.930495,34.657089,0
0.098959,-163.275520,-9.867217,160.066834,3.331761,5.267747,-0.101983,-5.131636,-5.280743,0.041480,5.546598,0.088314,0.464337,-0.025873,-6.703493,188.619931,1556.752594,35.084191,0
0.100000,-110.470969,-67.511726,183.033494,3.793393,3.946736,1.995229,-5.603304,-3.803358,-2.171480,6.034001,0.099252,0.427820,0.003860,-35.941362,188.549243,1558.052381,35.041262,0
0.101042,-34.286872,-122.983409,191.308782,3.973542,2.097322,3.990237,-5.591706,-1.972767,-4.056593,5.931190,0.143006,0.460272,-0.044457,-64.278565,188.625620,1559.179694,34.751528,0
0.102084,29.523806,-161.154692,152.435585,3.252946,-0.041981,5.147179,-4.485993,0.267997,-5.169544,4.739335,0.106545,0.431128,-0.022156,-84.836266,188.715989,1559.768514,34.604053,0
0.103125,80.407370,-195.591061,75.503351,1.777978,-2.449155,5.748134,-2.688245,2.683465,-5.777784,2.930610,0.037267,0.457379,-0.018440,-99.742288,188.570921,1560.710439,34.414728,0
0.104167,136.455000,-172.441646,13.797162,0.607011,-3.924283,5.179884,-0.650796,4.206425,-5.109151,0.874376,0.033621,0.451935,-0.007290,-87.774689,188.570977,1561.752422,33.664183,0
0.105209,182.649094,-124.686435,-46.414371,-0.586475,-5.208598,3.977973,1.692077,5.520501,-3.914239,-1.387482,-0.042949,0.447457,0.000144,-62.060675,188.495544,1561.994681,32.872932,0
0.106250,189.225651,-50.681127,-102.992555,-1.723664,-5.399411,2.228252,3.532353,5.710396,-2.115401,-3.180976,-0.068472,0.445666,-0.011006,-24.007538,188.721822,1561.950192,32.388045,0
0.107292,163.156723,9.805675,-160.214777,-2.838335,-5.080167,0.176010,5.024678,5.334403,-0.070678,-4.612724,-0.086703,0.468540,0.000144,7.155505,188.570942,1561.567043,32.959494,0
0.108333,110.792869,67.532400,-182.841189,-3.176114,-3.641734,-2.002965,5.538873,3.894997,2.099144,-5.145822,-0.061180,0.456345,0.011294,36.382115,188.570939,1561.867012,33.259179,0
0.109375,34.721772,122.933612,-190.934203,-3.401300,-1.840022,-3.944828,5.600731,2.060609,4.031709,-5.100128,-0.104934,0.456207,-0.033307,64.314019,188.495626,1562.195655,33.590926,0
0.110417,-29.439204,160.963955,-152.352645,-2.669446,0.317628,-5.134474,4.433161,-0.161166,5.131719,-3.874003,-0.079410,0.473777,-0.018440,84.691586,188.721599,1562.118599,34.008981,0
0.111458,-80.390567,195.247639,-75.262440,-1.183218,2.702785,-5.719077,2.662475,-2.599422,5.727018,-2.107164,0.000805,0.458894,-0.014723,100.329399,188.570828,1562.199589,34.876572,0
