1-Time,2-VGERA,3-VGERB,4-VGERC,5-VN,6-IGERAN,7-IGERBN,8-IGERCN,9-IGERAT,10-IGERBT,11-IGERCT,12-IN,13-IFD,14-IFAULT,15-VFAULT,16-Speed (rad/s),17-Active Power,18-Reactive Power,19-FAULT 
0.000000,58.022218,93.324442,-192.210128,-3.423819,2.765110,-6.181667,2.903019,-2.072360,6.242676,-2.968823,-0.098148,0.177782,-0.108307,-140.486164,188.420256,999.783107,-1290.060071,0
0.001042,15.523199,160.470665,-146.446933,-2.545593,4.717270,-5.706986,0.609347,-3.933011,5.714240,-0.580491,-0.109087,0.195283,-0.097156,-115.548975,188.495662,1000.411967,-1290.072096,0
0.002083,-37.349152,200.990949,-87.936633,-1.442182,6.082314,-4.101920,-2.074174,-5.235104,4.298032,2.080361,-0.185656,0.181434,-0.089723,-74.275957,188.495729,1000.695856,-1290.460453,0
0.003125,-114.889239,171.487484,-40.642327,-0.473882,6.493294,-2.166990,-4.288363,-5.663090,2.256157,4.321078,-0.240349,0.181296,-0.086006,-34.241355,188.269483,1000.891006,-1290.711102,0
0.004167,-181.976896,122.193677,4.039370,0.370565,5.737383,0.033439,-5.378425,-5.151683,0.193143,5.630686,-0.236703,0.194732,-0.082290,-6.084285,188.495691,1001.653475,-1291.437795,0
0.005208,-190.293641,67.544145,68.175893,1.631607,4.137493,2.644186,-6.256530,-3.428858,-2.440581,6.436890,-0.265872,0.197143,-0.078573,36.866223,188.495740,1001.755243,-1293.192376,0
0.006250,-166.812396,22.067466,147.903011,3.072797,2.280740,4.321661,-5.881821,-1.727795,-4.194988,6.190865,-0.247641,0.195076,-0.086006,94.688979,188.495716,1002.014129,-1293.628033,0
0.007292,-108.222283,-23.550154,194.966435,4.029838,-0.291561,5.476182,-4.451115,0.673279,-5.239177,4.707147,-0.236703,0.193216,-0.071140,136.952729,188.269579,1002.295140,-1294.646115,0
0.008333,-57.994115,-93.233298,192.305219,3.984801,-2.717082,6.216363,-2.728968,3.085234,-6.186134,3.064459,-0.189302,0.201415,-0.063706,140.949435,188.495899,1002.166267,-1295.662621,0
0.009375,-14.964000,-160.908047,146.493417,3.117835,-4.683920,5.729614,-0.423941,4.924123,-5.628106,0.713977,-0.149195,0.196730,-0.056273,115.561912,188.420242,1003.279065,-1296.061781,0
0.010417,37.682352,-201.181686,87.448444,2.014423,-6.001261,4.136616,2.263365,6.247978,-4.178078,-1.984724,-0.098148,0.194525,-0.093440,75.178302,188.495642,1003.095777,-1296.078045,0
0.011458,114.928642,-171.748691,40.190593,1.147457,-6.489300,2.153414,4.469984,6.661456,-2.161567,-4.267076,-0.043455,0.180056,-0.063706,35.774166,188.269436,1003.380172,-1297.320026,0
0.012500,181.880700,-121.773673,-3.810610,0.280491,-5.704033,-0.014834,5.563831,6.073882,-0.085871,-5.493414,-0.021578,0.196316,-0.086006,7.042921,188.495649,1003.115162,-1297.674768,0
0.013542,190.400843,-67.441256,-67.716252,-1.048106,-4.118821,-2.625581,6.445721,4.405462,2.509806,-6.292048,0.025822,0.199555,-0.104590,-35.592354,188.420359,1002.775941,-1298.420793,0
0.014583,166.716200,-22.528338,-147.856526,-2.523075,-2.273076,-4.303056,6.082367,2.740669,4.264213,-6.091443,-0.017932,0.206100,-0.093440,-95.768099,188.495707,1001.880857,-1298.671568,0
0.015625,108.984881,23.300692,-194.640462,-3.435078,0.321241,-5.385168,4.625166,0.299698,5.291492,-4.603940,-0.043455,0.220638,-0.086006,-136.455684,188.269411,1001.895952,-1299.222490,0
0.016667,59.152211,93.371422,-192.015701,-3.378782,2.772449,-6.209826,2.891665,-2.115884,6.196174,-2.983963,-0.061686,0.202242,-0.093440,-141.195439,188.495689,1001.356216,-1299.559745,0
0.017708,15.590998,160.494155,-146.544146,-2.511815,4.728278,-5.698941,0.575283,-3.947519,5.671966,-0.584276,-0.123671,0.190391,-0.074856,-117.226466,188.495734,1000.977905,-1299.529442,0
0.018750,-37.360452,201.084909,-87.620690,-1.419663,6.056627,-4.085829,-2.070389,-5.231477,4.251530,2.118211,-0.145548,0.170272,-0.100873,-74.602449,188.495738,1000.265205,-1299.668897,0
0.019792,-114.505042,171.417014,-39.998288,-0.496401,6.511642,-2.110672,-4.277008,-5.641328,2.260384,4.351358,-0.222118,0.179712,-0.071140,-34.140030,188.269534,1000.065887,-1299.584248,0
0.020833,-182.191595,121.770856,3.893550,0.370565,5.748392,0.045507,-5.401134,-5.093651,0.184688,5.626901,-0.254934,0.191011,-0.067423,-5.329977,188.495651,999.425813,-1299.234562,0
0.021875,-190.169342,66.745484,67.762736,1.620348,4.133823,2.644186,-6.256530,-3.454247,-2.410988,6.368760,-0.269518,0.195352,-0.074856,36.370857,188.495788,999.404027,-1297.997258,0
0.022917,-166.326499,21.891291,148.121741,3.106575,2.295418,4.333729,-5.851542,-1.771319,-4.194988,6.206005,-0.269518,0.213955,-0.097156,96.028719,188.495745,1000.054799,-1297.739418,0
0.023958,-108.109284,-23.550154,194.589734,4.041097,-0.251197,5.439978,-4.424620,0.651517,-5.196902,4.707147,-0.222118,0.215815,-0.082290,137.290479,188.269599,999.995403,-1296.988824,0
0.025000,-58.197514,-93.421219,192.353826,4.018579,-2.709743,6.204295,-2.736538,3.067099,-6.169224,3.102309,-0.192949,0.200175,-0.104590,142.322950,188.495741,1000.434802,-1296.694411,0
0.026042,-15.585496,-160.273816,146.955181,3.185390,-4.720615,5.697432,-0.454220,4.920496,-5.640788,0.683697,-0.145548,0.203895,-0.086006,115.438071,188.495743,999.881543,-1297.146164,0
0.027083,37.614553,-201.252156,88.092483,1.980645,-5.986583,4.192934,2.229300,6.218962,-4.203443,-1.954444,-0.116379,0.189151,-0.108307,75.290885,188.495676,1000.169157,-1296.882498,0
0.028125,114.533145,-171.607751,40.324261,1.124939,-6.430589,2.153414,4.485123,6.668710,-2.161567,-4.244366,-0.047102,0.178058,-0.041406,35.740391,188.269525,1000.085909,-1296.680504,0
0.029167,182.230997,-121.973338,-3.421757,0.269232,-5.700364,-0.030925,5.578970,6.063001,-0.085871,-5.527479,-0.032517,0.191907,-0.097156,6.693913,188.495645,1000.007969,-1297.212589,0
0.030208,189.994046,-67.382531,-67.716252,-1.025588,-4.115151,-2.601444,6.438151,4.445359,2.539398,-6.303403,0.022176,0.180883,-0.067423,-36.166528,188.420216,1000.254775,-1297.486747,0
0.031250,166.637100,-22.023302,-147.735010,-2.545593,-2.243720,-4.303056,6.059658,2.675383,4.302260,-6.152003,0.007591,0.206996,-0.093440,-94.417100,188.495734,1000.143575,-1298.393238,0
0.032292,108.216486,23.382907,-194.567552,-3.401300,0.328580,-5.437464,4.647876,0.256174,5.342222,-4.543380,-0.010640,0.216918,-0.078573,-136.714626,188.269523,999.298483,-1298.752303,0
0.033333,58.135217,93.113032,-192.246583,-3.345004,2.787127,-6.213849,2.937084,-2.137646,6.251131,-2.961253,-0.061686,0.200106,-0.074856,-140.497423,188.495727,999.420788,-1299.207407,0
0.034375,15.410200,160.646840,-146.082382,-2.534334,4.761303,-5.654691,0.579068,-3.991043,5.701558,-0.584276,-0.101794,0.207547,-0.119457,-115.301292,188.420338,999.774964,-1299.639228,0
0.035417,-36.953654,201.120145,-87.426263,-1.340848,6.071305,-4.085829,-2.108238,-5.275001,4.298032,2.069006,-0.185656,0.174751,-0.108307,-73.926949,188.495660,1000.675951,-1299.703655,0
0.036458,-114.584141,171.510974,-40.423597,-0.496401,6.522650,-2.142854,-4.307287,-5.655836,2.285749,4.408132,-0.225764,0.180401,-0.052556,-34.286388,188.345053,1000.817398,-1300.527023,0
0.037500,-181.818697,122.111462,3.735578,0.370565,5.741053,0.021371,-5.423844,-5.122667,0.180461,5.660966,-0.287749,0.194938,-0.067423,-6.410776,188.495738,1000.935111,-1301.166311,0
0.038542,-190.440540,67.837770,68.151590,1.631607,4.203543,2.644186,-6.313304,-3.465128,-2.398306,6.436890,-0.298688,0.195627,-0.067423,36.809932,188.420305,1001.572246,-1302.161547,0
0.039583,-166.914096,22.736931,147.854404,3.151613,2.306426,4.365911,-5.885606,-1.774946,-4.220353,6.217360,-0.229410,0.214644,-0.082290,94.688979,188.495696,1001.427250,-1302.905028,0
0.040625,-108.674280,-23.186058,195.063649,4.074875,-0.284222,5.476182,-4.447330,0.637009,-5.306817,4.729857,-0.229410,0.208787,-0.045123,137.099087,188.344936,1002.117481,-1304.415420,0
0.041667,-58.751210,-93.245043,192.183703,3.973542,-2.779463,6.232454,-2.728968,3.099742,-6.203044,3.068244,-0.196595,0.206583,-0.104590,140.893143,188.495682,1001.627702,-1305.215659,0
0.042708,-15.608095,-161.037242,146.529872,3.129094,-4.760979,5.725591,-0.412586,4.945885,-5.695745,0.615568,-0.163779,0.197694,-0.078573,115.674496,188.420278,1001.720816,-1306.120635,0
0.043750,37.467654,-200.958531,87.606416,2.014423,-6.048964,4.128570,2.259580,6.266113,-4.211898,-1.969584,-0.061686,0.186670,-0.078573,75.268369,188.495759,1001.819253,-1306.511265,0
0.044792,114.860842,-171.748691,40.287806,1.113679,-6.474623,2.173527,4.477554,6.672337,-2.203842,-4.289786,-0.025225,0.177713,-0.078573,35.571516,188.344845,1002.313260,-1306.955158,0
0.045833,181.767700,-121.738438,-3.640487,0.246713,-5.722381,-0.034947,5.601680,6.117406,-0.098553,-5.516124,0.014883,0.193285,-0.056273,6.997888,188.495669,1002.870694,-1306.789754,0
0.046875,190.446043,-66.900986,-67.461066,-1.003069,-4.129829,-2.601444,6.460861,4.409089,2.509806,-6.299618,-0.017932,0.196592,-0.097156,-35.423479,188.420321,1002.694335,-1306.423490,0
0.047917,166.467601,-21.835382,-147.589190,-2.534334,-2.269407,-4.327192,6.074797,2.726161,4.289578,-6.114153,0.007591,0.199968,-0.063706,-95.587966,188.495703,1002.872872,-1305.698543,0
0.048958,108.148687,23.312437,-194.774131,-3.457597,0.251521,-5.405282,4.628951,0.335968,5.299947,-4.573660,-0.010640,0.187428,-0.071140,-136.534492,188.344834,1003.763663,-1304.779317,0
0.050000,58.745413,93.195247,-192.040005,-3.423819,2.809144,-6.189713,2.918159,-2.112257,6.238449,-2.980178,-0.094502,0.195972,-0.059989,-141.184181,188.495761,1003.902764,-1304.526312,0
0.051042,15.986496,160.588115,-146.617056,-2.478038,4.709931,-5.698941,0.594207,-3.976535,5.697330,-0.588061,-0.123671,0.200450,-0.059989,-117.271499,188.420278,1003.739490,-1304.676975,0
0.052083,-37.281352,200.932224,-87.997392,-1.430923,6.045619,-4.093874,-2.066604,-5.271374,4.259985,2.091716,-0.182010,0.182123,-0.097156,-74.928940,188.495645,1003.151603,-1304.912907,0
0.053125,-114.527642,171.522719,-40.593720,-0.473882,6.489625,-2.130786,-4.277008,-5.648582,2.298431,4.347573,-0.211179,0.180056,-0.097156,-34.511555,188.344961,1003.347200,-1304.214386,0
0.054167,-182.259394,121.888306,3.577606,0.359306,5.744722,0.021371,-5.423844,-5.111786,0.197371,5.604191,-0.265872,0.194249,-0.056273,-5.611435,188.495689,1003.401018,-1303.430671,0
0.055208,-190.225841,67.227029,67.665523,1.620348,4.148501,2.664299,-6.279240,-3.479636,-2.419443,6.436890,-0.240349,0.195696,-0.078573,36.201982,188.420434,1003.284970,-1303.378629,0
0.056250,-166.473398,22.302366,148.085286,3.106575,2.288079,4.373956,-5.931026,-1.789454,-4.194988,6.236285,-0.284103,0.208443,-0.059989,95.916136,188.495759,1003.782625,-1302.931997,0
0.057292,-108.154484,-23.350488,194.893525,4.018579,-0.258536,5.504341,-4.462470,0.629755,-5.234949,4.680652,-0.236703,0.210579,-0.037689,137.493129,188.344901,1003.111173,-1301.705413,0
0.058333,-58.107115,-93.292023,192.390281,4.007319,-2.750108,6.232454,-2.736538,3.096115,-6.164996,3.053104,-0.189302,0.196799,-0.082290,142.480567,188.495703,1002.860617,-1301.210846,0
0.059375,-15.076999,-160.449991,146.590630,3.140353,-4.742631,5.741682,-0.412586,4.989409,-5.674608,0.687482,-0.123671,0.183639,-0.086006,115.302971,188.420316,1003.293286,-1300.978275,0
0.060417,37.343355,-201.299136,87.582113,2.048201,-6.026947,4.148684,2.244440,6.262486,-4.220353,-1.984724,-0.105440,0.183983,-0.086006,75.302144,188.495805,1003.315837,-1301.184651,0
0.061458,114.352346,-171.701711,40.567295,1.102420,-6.496639,2.177550,4.507833,6.708607,-2.199614,-4.335206,-0.028871,0.177369,-0.063706,35.898007,188.344905,1003.134748,-1302.044639,0
0.062500,182.016299,-122.161258,-3.263785,0.257972,-5.704033,-0.002766,5.578970,6.073882,-0.102781,-5.508554,-0.054394,0.196523,-0.100873,6.930338,188.495707,1002.676452,-1301.999533,0
0.063542,190.208745,-67.699646,-67.679797,-0.958032,-4.115151,-2.597422,6.476001,4.456240,2.497123,-6.307188,0.007591,0.192871,-0.089723,-36.076462,188.420383,1003.219028,-1302.176483,0
0.064583,166.806599,-22.657533,-147.832223,-2.478038,-2.251059,-4.311101,6.078582,2.697145,4.298032,-6.144433,0.022176,0.204929,-0.093440,-94.473392,188.495667,1003.096147,-1302.962076,0
0.065625,108.691083,23.054047,-194.749827,-3.446337,0.299224,-5.473668,4.617596,0.292444,5.363359,-4.611510,-0.028871,0.212852,-0.104590,-136.872242,188.344941,1003.233750,-1304.311563,0
0.066667,58.779313,93.148267,-192.173673,-3.345004,2.790796,-6.221894,2.891665,-2.134019,6.234221,-2.957468,-0.039809,0.202035,-0.086006,-140.429873,188.420323,1002.852721,-1304.585013,0
0.067708,15.929996,160.905230,-146.118837,-2.534334,4.772312,-5.743190,0.579068,-3.994670,5.731150,-0.569136,-0.130964,0.197143,-0.104590,-115.335067,188.420321,1003.092994,-1304.906211,0
0.068750,-36.998854,201.155380,-87.462718,-1.385885,6.078644,-4.109965,-2.119593,-5.318525,4.310715,2.133351,-0.138256,0.194043,-0.093440,-73.803108,188.495745,1003.562933,-1305.727925,0
0.069792,-114.674541,171.428759,-40.071198,-0.462623,6.544667,-2.122740,-4.318642,-5.695733,2.256157,4.408132,-0.254934,0.177231,-0.097156,-33.858572,188.344943,1003.469882,-1306.699867,0
0.070833,-181.739598,121.665151,3.723426,0.348047,5.770408,0.061598,-5.435199,-5.122667,0.163551,5.691246,-0.273164,0.191769,-0.067423,-6.241902,188.420345,1003.279582,-1307.755468,0
0.071875,-190.338841,66.862934,67.823495,1.642866,4.137493,2.652231,-6.324659,-3.465128,-2.470173,6.455815,-0.247641,0.194387,-0.082290,36.641057,188.420345,1003.094792,-1308.317203,0
0.072917,-166.608998,22.149681,147.647826,3.117835,2.350460,4.353843,-5.931026,-1.822097,-4.186533,6.251425,-0.254934,0.212784,-0.082290,94.677720,188.495660,1003.470979,-1308.157025,0
0.073958,-108.086684,-23.080353,195.330986,4.007319,-0.291561,5.508364,-4.477609,0.644263,-5.289907,4.718502,-0.243995,0.219329,-0.115740,137.200412,188.344825,1003.963574,-1309.086780,0
0.075000,-59.078908,-93.127593,192.244461,3.996060,-2.750108,6.288772,-2.717613,3.132385,-6.181906,3.079599,-0.178364,0.191700,-0.067423,140.859368,188.420329,1003.961787,-1309.847229,0
0.076042,-16.082692,-161.189927,146.809361,3.106575,-4.724284,5.769841,-0.439081,4.945885,-5.716883,0.676127,-0.149195,0.203964,-0.100873,115.787079,188.420316,1004.252136,-1310.115481,0
0.077083,37.332055,-200.923296,88.396275,1.991905,-6.026947,4.176843,2.289859,6.306010,-4.207670,-2.015004,-0.076271,0.181916,-0.104590,75.594860,188.495698,1003.865775,-1311.030009,0
0.078125,115.007741,-171.760436,40.749570,1.057383,-6.518656,2.129277,4.485123,6.672337,-2.224979,-4.270861,-0.028871,0.180676,-0.108307,35.807941,188.420282,1004.265241,-1310.049626,0
0.079167,181.937199,-122.102533,-3.494667,0.235454,-5.718711,-0.030925,5.567616,6.081136,-0.128146,-5.538834,-0.010640,0.195559,-0.100873,7.065438,188.420320,1004.654891,-1310.174609,0
0.080208,190.468643,-67.182866,-67.448915,-0.969291,-4.126160,-2.585353,6.423012,4.445359,2.475986,-6.310973,-0.006994,0.195490,-0.078573,-35.355929,188.420233,1004.719901,-1309.905572,0
0.081250,166.625800,-22.187732,-147.443370,-2.500556,-2.251059,-4.286965,6.059658,2.708026,4.306487,-6.167143,0.014883,0.204929,-0.100873,-95.374058,188.495716,1004.976065,-1309.872467,0
0.082292,108.216486,23.300692,-194.859193,-3.423819,0.291885,-5.425395,4.621381,0.256174,5.312629,-4.622865,-0.017932,0.226219,-0.093440,-136.568267,188.420236,1004.785508,-1309.454458,0
0.083333,58.180417,93.101287,-192.234431,-3.412560,2.724746,-6.197758,2.933299,-2.043344,6.284951,-2.987748,-0.083563,0.149809,-0.093440,-141.353055,188.420273,1005.970717,-1308.752087,0
0.084375,15.557099,160.411940,-146.495539,-2.545593,4.742956,-5.711009,0.605562,-3.954773,5.726923,-0.588061,-0.112733,0.188737,-0.089723,-117.327791,188.420330,1006.075291,-1308.166083,0
0.085417,-37.077954,201.131890,-87.766510,-1.419663,6.038280,-4.138124,-2.089314,-5.245985,4.289578,2.065221,-0.171072,0.163658,-0.097156,-74.985232,188.495700,1006.021481,-1306.879452,0
0.086458,-114.335543,171.557954,-40.800299,-0.451364,6.500633,-2.098604,-4.273223,-5.663090,2.298431,4.374068,-0.218472,0.182054,-0.067423,-34.815530,188.420368,1006.022775,-1306.385750,0
0.087500,-182.349794,122.428577,3.480393,0.359306,5.755730,0.061598,-5.370855,-5.108159,0.188916,5.611761,-0.280457,0.194870,-0.093440,-5.667727,188.420356,1006.112554,-1305.690331,0
0.088542,-190.180642,68.131395,67.544006,1.541533,4.137493,2.632118,-6.252745,-3.472382,-2.398306,6.372545,-0.240349,0.204998,-0.082290,36.134432,188.420370,1005.785156,-1304.602497,0
0.089583,-166.744597,22.783911,148.060983,3.129094,2.302757,4.349820,-5.908316,-1.822097,-4.165395,6.187080,-0.265872,0.209821,-0.112023,95.837328,188.495729,1005.248736,-1304.197356,0
0.090625,-108.922879,-23.139078,194.431762,3.973542,-0.240188,5.439978,-4.413266,0.604366,-5.230722,4.699577,-0.247641,0.217124,-0.059989,137.177896,188.420399,1004.930563,-1303.292766,0
0.091667,-58.547812,-93.104103,192.499646,4.052357,-2.717082,6.240499,-2.744108,3.048964,-6.169224,3.094739,-0.225764,0.200795,-0.089723,142.548117,188.495727,1005.519821,-1302.229159,0
0.092708,-15.325597,-159.944956,147.040242,3.207909,-4.698598,5.673296,-0.427726,4.898734,-5.581603,0.645848,-0.138256,0.197694,-0.093440,115.539396,188.420358,1003.739325,-1300.859491,0
0.093750,37.264255,-201.510546,87.691478,2.003164,-5.997591,4.140638,2.202806,6.255232,-4.245717,-1.999864,-0.050748,0.173097,-0.071140,75.189560,188.495693,1004.281023,-1300.148471,0
0.094792,113.945548,-171.736946,40.397171,1.079901,-6.434258,2.125254,4.462414,6.621559,-2.229206,-4.206516,-0.054394,0.178609,-0.108307,35.807941,188.420307,1003.818596,-1298.897751,0
0.095833,182.230997,-121.867633,-3.628335,0.235454,-5.729720,0.029416,5.560046,6.073882,-0.140828,-5.508554,-0.021578,0.192734,-0.112023,6.525039,188.495727,1003.962166,-1298.374372,0
0.096875,190.152245,-67.065416,-67.169426,-0.980551,-4.096804,-2.577308,6.385162,4.398208,2.497123,-6.250413,-0.017932,0.199486,-0.108307,-35.828779,188.420356,1002.812907,-1297.843105,0
0.097917,166.885699,-22.469613,-147.431218,-2.511815,-2.254729,-4.274897,6.048303,2.737042,4.226165,-6.117938,0.000299,0.195214,-0.108307,-94.101867,188.495546,1002.742445,-1296.685285,0
0.098958,109.244780,23.030557,-194.032879,-3.435078,0.291885,-5.361032,4.613811,0.328714,5.283037,-4.603940,-0.028871,0.198315,-0.097156,-136.219259,188.420240,1002.681549,-1295.987963,0
0.100000,59.129611,92.925112,-192.331645,-3.457597,2.710068,-6.165576,2.925729,-2.105003,6.251131,-3.036953,-0.043455,0.213817,-0.097156,-140.643781,188.420356,1002.523215,-1296.611416,0
0.101042,16.201194,159.824689,-147.018061,-2.579371,4.687914,-5.662736,0.597992,-3.933011,5.676193,-0.603201,-0.120025,0.199072,-0.089723,-115.774142,188.420207,1001.831410,-1296.303311,0
0.102083,-37.066654,201.167125,-87.863723,-1.430923,6.041949,-4.113988,-2.089314,-5.216969,4.264213,2.061436,-0.152841,0.188393,-0.123173,-74.163374,188.495656,1001.464210,-1295.981305,0
0.103125,-114.098245,171.593189,-40.460052,-0.485141,6.449261,-2.102627,-4.235373,-5.648582,2.268839,4.340003,-0.214826,0.179780,-0.108307,-34.151288,188.495626,1001.147243,-1295.484634,0
0.104167,-181.852597,122.428577,3.711275,0.381825,5.752061,0.053552,-5.397349,-5.093651,0.205826,5.623116,-0.251287,0.193147,-0.089723,-6.084285,188.420263,1001.072933,-1295.311348,0
0.105208,-190.124142,67.262265,67.240214,1.586570,4.119146,2.692458,-6.264100,-3.436112,-2.406761,6.383900,-0.291395,0.178609,-0.112023,36.314565,188.420242,1000.677032,-1295.179463,0
0.106250,-166.812396,22.032231,147.574916,3.106575,2.299087,4.361888,-5.878036,-1.753184,-4.140030,6.224930,-0.269518,0.206789,-0.119457,94.351229,188.495667,1000.356977,-1295.195059,0
0.107292,-108.538681,-23.338743,194.358852,4.063616,-0.265874,5.423887,-4.401911,0.633382,-5.196902,4.654157,-0.229410,0.223670,-0.074856,136.401071,188.495705,999.583473,-1294.726255,0
0.108333,-58.028015,-92.657793,192.754831,4.018579,-2.728091,6.196250,-2.687334,3.106996,-6.164996,3.075814,-0.203887,0.162831,-0.112023,141.377251,188.420307,999.037563,-1295.210800,0
0.109375,-15.325597,-159.686565,147.489854,3.230428,-4.672911,5.661227,-0.412586,4.876972,-5.560466,0.672342,-0.130964,0.203827,-0.089723,116.237412,188.420320,999.030018,-1294.850645,0
