1-Time,2-VGERA,3-VGERB,4-VGERC,5-VN,6-IGERAN,7-IGERBN,8-IGERCN,9-IGERAT,10-IGERBT,11-IGERCT,12-IN,13-IFD,14-IFAULT,15-VFAULT,16-Speed (rad/s),17-Active Power,18-Reactive Power,19-FAULT 
0.000000,137.564298,71.268145,-166.710607,-0.283992,-4.859316,2.336002,2.729693,4.918283,-2.416062,-2.491947,-0.062686,0.551757,-0.035692,62.671047,188.495376,954.991751,1035.220813,0
0.001042,57.690409,123.687187,-186.998485,-0.691152,-4.596595,0.208841,4.378959,4.635250,-0.246372,-4.185482,-0.004238,0.554174,-0.043161,-31.337671,188.721596,955.888305,1033.523162,0
0.002083,-12.576381,162.454808,-157.945455,-0.091722,-3.524411,-1.553210,4.830454,3.664852,1.411321,-4.637329,-0.000585,0.552802,-0.069301,-106.752749,188.495490,957.030510,1032.750686,0
0.003125,-83.659832,180.902349,-107.558144,0.813078,-1.727970,-3.569251,4.867768,1.786544,3.442521,-4.708485,0.010374,0.559465,-0.028224,-170.111368,188.519569,957.548973,1032.221961,0
0.004167,-132.477954,178.498249,-27.699243,2.339928,0.125275,-4.648705,4.024479,-0.021925,4.625988,-3.932875,-0.048074,0.553716,-0.043161,-204.052677,188.500119,959.160522,1031.339551,0
0.005217,-169.704041,151.980665,49.451326,3.810228,2.045976,-5.156684,2.591632,-1.944342,5.184148,-2.605798,-0.069992,0.548752,-0.031958,-211.641687,188.721679,960.891147,1030.430341,0
0.006250,-171.246621,87.951873,115.017614,5.076948,3.672003,-4.855072,0.692365,-3.591078,4.953330,-0.737929,-0.117481,0.545943,-0.039427,-180.109408,188.515229,962.750071,1028.977598,0
0.007292,-174.445206,3.325141,152.072538,5.778168,4.733536,-3.918486,-1.143469,-4.671749,3.954517,1.090805,-0.164970,0.548556,0.001650,-133.082429,188.556823,964.262750,1027.620449,0
0.008334,-136.289034,-72.252995,166.869887,6.060918,4.921701,-2.124686,-2.997960,-4.892294,2.284233,2.798571,-0.190541,0.514587,-0.050629,-57.995340,188.495658,966.090163,1025.401677,0
0.009375,-56.131583,-123.137762,187.859470,6.524628,4.690933,-0.029274,-4.561404,-4.668073,0.122937,4.381813,-0.238030,0.528762,-0.046895,36.386608,188.721875,967.697288,1023.665317,0
0.010417,14.135207,-162.255730,158.018561,5.936508,3.547743,1.708966,-5.031556,-3.616809,-1.580921,4.858564,-0.245336,0.547249,-0.031958,114.222026,188.495767,968.962051,1022.575071,0
0.011459,84.118435,-180.836160,107.163447,4.975158,1.747752,3.752787,-5.016631,-1.753203,-3.633103,4.855007,-0.223418,0.552541,-0.017021,172.830445,188.571178,969.962538,1020.429741,0
0.012500,131.949760,-178.407898,26.849053,3.482238,-0.059339,4.776681,-4.136027,0.073645,-4.715850,4.068722,-0.186888,0.548490,-0.031958,209.780214,188.495669,971.863357,1018.163286,0
0.013542,169.153162,-151.878233,-48.578030,2.057178,-1.969389,5.284660,-2.718107,1.948277,-5.303387,2.780782,-0.190541,0.552802,-0.013287,216.509664,188.516706,974.206186,1016.722252,0
0.014584,170.775139,-86.568866,-114.846023,0.790458,-3.627369,4.951299,-0.818840,3.686907,-4.929881,0.912912,-0.135746,0.541827,-0.054364,184.242234,188.511540,975.597943,1014.539199,0
0.015634,174.030437,-0.806528,-152.294887,0.055308,-4.727955,3.978996,1.106547,4.716117,-3.968839,-0.979862,-0.091910,0.546727,-0.039427,137.735515,188.571056,977.848063,1013.443713,0
0.016667,135.840238,73.019876,-166.993751,-0.238752,-4.866416,2.197102,2.890142,4.947689,-2.290162,-2.616472,-0.073645,0.508381,-0.054364,61.506117,188.513464,979.245649,1012.642853,0
0.017709,55.036264,123.493893,-188.007955,-0.679842,-4.561092,0.062004,4.431198,4.646278,-0.107881,-4.228176,-0.037115,0.545877,-0.050629,-30.206671,188.709340,980.355213,1012.089461,0
0.018750,-14.436551,162.515213,-157.650000,-0.080412,-3.488908,-1.676236,4.890156,3.554580,1.579189,-4.672907,-0.026156,0.554827,-0.013287,-108.347459,188.493639,982.042076,1010.633107,0
0.019792,-84.317697,181.337261,-107.201137,0.892248,-1.628562,-3.656559,4.890156,1.654217,3.597798,-4.694254,0.003068,0.554500,-0.043161,-168.516658,188.571013,984.337338,1009.343456,0
0.020834,-132.307816,178.558653,-27.563826,2.407788,0.150127,-4.728077,3.983433,-0.106467,4.638578,-3.907970,-0.022503,0.556003,-0.017021,-203.543727,188.495731,985.128604,1008.436143,0
0.021875,-169.658671,152.282687,47.777083,3.844158,2.085029,-5.243993,2.595364,-2.028885,5.221918,-2.559546,-0.084604,0.553194,-0.031958,-212.580417,188.646538,986.859850,1007.441922,0
0.022917,-171.280648,88.000197,114.759091,5.088258,3.753659,-4.866977,0.651320,-3.671945,4.991100,-0.659656,-0.139399,0.549862,-0.058098,-178.299808,188.495674,988.539008,1007.069090,0
0.023959,-174.830851,3.784215,152.306440,5.812098,4.800992,-3.930392,-1.270335,-4.741588,3.962911,1.172635,-0.175929,0.542350,-0.054364,-134.043779,188.497620,990.313009,1007.015189,0
0.025000,-136.470514,-71.443574,167.189963,6.094848,4.989156,-2.081032,-3.046467,-4.943754,2.212890,2.834150,-0.164970,0.532943,-0.028224,-57.916170,188.569545,991.621708,1006.428244,0
0.026052,-55.235526,-123.270652,188.388826,6.490698,4.676732,0.081847,-4.602449,-4.679100,0.030609,4.492106,-0.205153,0.552149,-0.061832,37.280098,188.630090,993.515562,1006.264345,0
0.027085,12.887532,-162.763128,157.427652,5.936508,3.544193,1.804212,-5.080064,-3.649890,-1.610297,4.897701,-0.234377,0.556852,-0.035692,114.380366,188.494934,994.329117,1006.597498,0
0.028125,83.347145,-181.162344,107.914394,5.020398,1.722900,3.792472,-5.053944,-1.738500,-3.738021,4.951068,-0.212459,0.557701,-0.058098,172.886995,188.519857,996.615835,1007.122232,0
0.029167,132.153925,-178.130037,28.264773,3.448308,-0.123244,4.856053,-4.109908,0.088348,-4.745227,4.097185,-0.219765,0.558746,-0.009553,207.574764,188.519162,997.398205,1007.222868,0
0.030208,169.629547,-152.325226,-47.777841,1.978008,-2.047495,5.320377,-2.714376,2.018116,-5.307584,2.727414,-0.161317,0.554043,-0.076769,216.905514,188.573575,998.663240,1006.315819,0
0.031250,171.206154,-87.789037,-114.525947,0.711288,-3.719676,4.955267,-0.714361,3.712637,-5.001225,0.863103,-0.143052,0.551234,-0.028224,183.529704,188.495714,1000.149852,1006.473397,0
0.032292,174.665617,-3.367680,-152.024053,0.021378,-4.735056,3.963122,1.136398,4.745523,-3.985626,-0.986978,-0.069992,0.551169,-0.046895,139.160575,188.495611,1001.329615,1006.192938,0
0.033333,136.033060,71.811786,-167.633902,-0.272682,-4.887718,2.125667,2.934919,4.955041,-2.256588,-2.669839,-0.077298,0.555545,-0.028224,60.838827,188.495405,1002.472478,1005.574343,0
0.034375,55.626074,123.095223,-188.377273,-0.679842,-4.571743,-0.013399,4.520751,4.631575,-0.028144,-4.288660,-0.026156,0.546335,-0.024490,-32.807971,188.571132,1003.998375,1004.721150,0
0.035417,-14.073591,163.240067,-157.453031,-0.080412,-3.396601,-1.751639,4.912545,3.488416,1.679910,-4.712043,-0.033462,0.555741,-0.058098,-108.098639,188.551542,1005.574207,1003.839107,0
0.036475,-86.189209,180.781540,-105.834659,0.892248,-1.451048,-3.803397,4.852843,1.580702,3.761469,-4.704928,-0.040768,0.548621,0.001650,-172.497778,188.490005,1007.176788,1003.578157,0
0.037501,-132.863599,178.522411,-25.951136,2.407788,0.295688,-4.779669,3.912537,-0.191009,4.701529,-3.826139,-0.059033,0.550385,-0.050629,-204.369357,188.496170,1008.022796,1002.691156,0
0.038542,-169.046176,152.959218,49.709849,3.821538,2.177336,-5.216213,2.509542,-2.098724,5.251295,-2.452811,-0.055380,0.549536,-0.061832,-211.879197,188.364169,1009.140907,1001.779351,0
0.039583,-171.825088,85.873958,114.796023,5.054328,3.856618,-4.847135,0.453558,-3.738108,4.911363,-0.560036,-0.095563,0.519551,-0.076769,-180.109408,188.496487,1009.621497,1000.399408,0
0.040625,-174.966961,1.730461,151.875569,5.778168,4.871997,-3.799428,-1.337500,-4.807752,3.883173,1.243792,-0.161317,0.539802,-0.046895,-132.697889,188.496087,1010.464753,999.693843,0
0.041667,-134.587659,-72.736231,167.854735,6.140088,4.964304,-1.942131,-3.162140,-4.954782,2.120562,2.958674,-0.161317,0.548098,-0.017021,-56.683380,188.494837,1011.682912,999.091943,0
0.042708,-53.874426,-122.666607,188.905872,6.547248,4.634128,0.185030,-4.684539,-4.631316,-0.061718,4.538358,-0.216112,0.540978,-0.035692,37.642018,188.420631,1012.498555,997.946576,0
0.043750,15.314827,-163.053069,157.427652,5.936508,3.462537,1.903427,-5.035288,-3.528591,-1.748788,4.943953,-0.274560,0.549470,-0.031958,114.730976,188.496045,1013.987966,996.811744,0
0.044792,84.798986,-180.944888,106.880303,4.975158,1.598641,3.852001,-5.027825,-1.631904,-3.788381,4.901259,-0.227071,0.556917,-0.024490,173.339395,188.496004,1014.277902,995.637436,0
0.045833,132.187953,-178.383736,26.221212,3.493548,-0.279457,4.919550,-4.057669,0.205972,-4.824964,3.990450,-0.219765,0.550385,-0.028224,210.130824,188.496015,1015.527718,994.239083,0
0.046875,168.404557,-152.530602,-49.846023,2.034558,-2.189506,5.332283,-2.594972,2.132065,-5.357944,2.674047,-0.201500,0.548948,-0.043161,216.373944,188.554700,1016.915510,993.790758,0
0.047925,171.716567,-83.983553,-115.289205,0.745218,-3.829735,4.931456,-0.568838,3.830261,-4.904701,0.678094,-0.099216,0.532159,-0.031958,184.411884,188.495607,1017.925257,991.877654,0
0.048959,174.620247,-1.760920,-151.827084,0.100548,-4.809612,3.927404,1.266996,4.811686,-3.960445,-1.086597,-0.121134,0.530722,-0.028224,138.787345,188.512505,1019.162207,991.596881,0
0.050000,134.876125,72.403750,-168.150947,-0.272682,-4.905469,2.070107,3.017009,4.918283,-2.172654,-2.808595,-0.040768,0.546661,-0.043161,61.189437,188.495779,1020.452279,990.410971,0
0.051042,54.525852,122.829443,-188.648107,-0.713772,-4.553992,-0.088803,4.531945,4.576438,0.018019,-4.334912,-0.033462,0.546792,-0.050629,-30.387631,188.344976,1020.889132,989.635961,0
0.052084,-14.232386,163.324633,-157.206819,-0.069102,-3.393051,-1.846885,4.946127,3.433280,1.700893,-4.736948,-0.011544,0.555023,-0.061832,-108.573659,188.495725,1021.282843,989.120337,0
0.053125,-84.260984,181.349342,-107.422728,0.858318,-1.518504,-3.815303,4.849111,1.532917,3.723699,-4.697812,-0.040768,0.550123,-0.073035,-168.607138,188.495888,1021.842425,988.020696,0
0.054167,-132.829572,178.208307,-27.096023,2.373858,0.338292,-4.795543,3.938657,-0.279227,4.730905,-3.826139,-0.026156,0.559008,-0.031958,-204.086607,188.495888,1023.106475,987.195244,0
0.055209,-169.307053,153.104189,48.823485,3.821538,2.216389,-5.259867,2.468497,-2.161212,5.301656,-2.463484,-0.080951,0.555807,-0.046895,-212.105397,188.344929,1024.416267,987.313703,0
0.056250,-171.881801,87.033725,114.574432,5.099568,3.892120,-4.831260,0.427438,-3.837354,4.898773,-0.542247,-0.132093,0.554566,-0.050629,-178.695658,188.495888,1025.987702,986.877440,0
0.057292,-175.284551,3.433869,152.306440,5.755548,4.857796,-3.819271,-1.419590,-4.848185,3.916747,1.314949,-0.110175,0.551757,-0.017021,-133.523519,188.482127,1027.666035,986.804655,0
0.058343,-134.202014,-72.144267,168.741099,6.072228,5.021109,-1.910383,-3.259156,-5.002566,2.070202,3.044063,-0.183235,0.549601,-0.076769,-54.534480,188.495649,1029.331949,986.532915,0
0.059375,-55.394321,-122.316261,188.942804,6.547248,4.644779,0.212810,-4.703196,-4.697479,-0.023948,4.595284,-0.208806,0.560184,-0.031958,36.906868,188.286051,1030.382958,987.407984,0
0.060417,13.363917,-163.270526,157.267614,5.925198,3.448336,1.966924,-5.147229,-3.543294,-1.761378,4.958184,-0.216112,0.563972,-0.020755,115.319096,188.496141,1031.034013,987.207332,0
0.061459,83.902928,-181.210668,107.372728,4.941228,1.556037,3.939310,-5.009168,-1.587795,-3.859725,4.879912,-0.259948,0.559661,-0.031958,173.384635,188.420401,1032.259892,986.250091,0
0.062500,132.437488,-178.275008,26.750568,3.414378,-0.336261,4.931456,-4.024086,0.242729,-4.824964,4.008239,-0.245336,0.554435,-0.054364,208.049784,188.495683,1032.708769,986.137832,0
0.063542,168.801544,-152.941353,-49.710606,1.989318,-2.253411,5.348157,-2.568852,2.172498,-5.374731,2.620679,-0.194194,0.552802,-0.058098,216.226914,188.269536,1033.642906,985.588221,0
0.064584,171.886704,-85.662798,-114.464394,0.767838,-3.843936,4.943362,-0.531524,3.859667,-4.959258,0.710115,-0.150358,0.554892,-0.039427,183.348744,188.495683,1034.636482,986.069602,0
0.065625,175.062604,-1.398493,-151.900947,0.043998,-4.809612,3.919467,1.296847,4.844768,-3.926872,-1.129292,-0.124787,0.549601,-0.046895,138.153985,188.420273,1035.429331,985.724292,0
0.066667,134.399740,72.681611,-168.507955,-0.306612,-4.948072,1.958987,3.095367,4.944013,-2.143277,-2.851289,-0.048074,0.535948,-0.046895,59.097087,188.495712,1036.110190,985.714162,0
0.067709,53.573082,122.732796,-189.140531,-0.725082,-4.504288,-0.156268,4.599110,4.616872,0.080970,-4.381164,-0.037115,0.516546,-0.017021,-34.018141,188.330510,1037.144335,985.894115,0
0.068759,-16.353434,164.520643,-156.258902,-0.046482,-3.251039,-1.981817,4.972246,3.381820,1.877154,-4.733390,0.006721,0.525300,-0.076769,-110.224919,188.495510,1038.414658,985.215169,0
0.069792,-85.179727,181.083562,-106.573296,0.847008,-1.429747,-3.910549,4.901350,1.459402,3.786649,-4.690696,-0.011544,0.546269,-0.035692,-171.264988,188.438037,1039.061475,984.624236,0
0.070833,-132.852257,178.691543,-24.990909,2.419098,0.437700,-4.855072,3.871492,-0.374797,4.814839,-3.751425,-0.044421,0.547837,-0.046895,-204.516387,188.498132,1040.293510,983.828686,0
0.071875,-168.195488,153.466616,51.100947,3.900708,2.337098,-5.220181,2.397601,-2.242078,5.301656,-2.342517,-0.051727,0.544048,-0.043161,-211.686927,188.269035,1041.096500,982.442385,0
0.072917,-172.426241,84.363845,114.672917,5.076948,3.984428,-4.851103,0.345348,-3.870435,4.911363,-0.399933,-0.132093,0.543330,-0.039427,-180.392158,188.419835,1041.803118,981.719950,0
0.073959,-175.363948,0.872717,151.789394,5.812098,4.925251,-3.795460,-1.453173,-4.873915,3.849600,1.400337,-0.161317,0.545159,-0.028224,-132.822299,188.419809,1042.240220,980.979103,0
0.075000,-133.634889,-72.736231,168.802652,6.117468,5.028209,-1.858791,-3.281544,-4.965809,2.036629,3.065410,-0.208806,0.542415,-0.046895,-56.264910,188.495244,1042.089423,980.460161,0
0.076042,-53.080451,-122.364585,189.324432,6.513318,4.612827,0.232653,-4.729315,-4.627640,-0.158242,4.595284,-0.227071,0.538038,-0.024490,37.687258,188.268997,1042.323334,978.930019,0
0.077084,15.518992,-163.584629,157.181440,5.913888,3.409282,2.034390,-5.165886,-3.444048,-1.862099,4.965300,-0.245336,0.548294,-0.054364,114.459536,188.420023,1043.085503,977.942413,0
0.078125,84.946438,-180.667027,107.003409,4.997778,1.524085,3.975027,-5.012899,-1.528983,-3.868118,4.901259,-0.216112,0.550515,-0.028224,173.384635,188.475165,1043.264706,977.757622,0
0.079178,133.322203,-177.948824,25.150189,3.448308,-0.382415,4.994953,-4.005430,0.375056,-4.883718,3.940640,-0.186888,0.554827,-0.054364,211.080864,188.492748,1044.447193,976.746055,0
0.080210,167.996227,-152.989676,-50.289205,1.978008,-2.225009,5.348157,-2.550195,2.216607,-5.341157,2.602890,-0.208806,0.551887,-0.039427,216.294774,188.286970,1044.490516,976.040859,0
0.081250,171.988787,-85.094996,-114.292046,0.801768,-3.897190,4.967173,-0.524061,3.855991,-4.942472,0.660305,-0.164970,0.550842,-0.046895,185.147034,188.345366,1044.557398,975.427889,0
0.082292,174.881124,-2.159590,-152.011743,0.066618,-4.852215,3.931373,1.293116,4.870498,-3.956249,-1.150639,-0.102869,0.551626,-0.054364,138.866515,188.420643,1045.187194,975.606956,0
0.083333,134.603905,71.751381,-168.766478,-0.306612,-4.916120,1.947081,3.121487,5.010177,-2.118097,-2.847732,-0.066339,0.545551,-0.065566,61.076337,188.496112,1045.983910,975.672038,0
0.084375,54.786729,122.346207,-188.771213,-0.713772,-4.518489,-0.184049,4.602841,4.591141,0.093560,-4.381164,-0.007891,0.550711,-0.043161,-30.489421,188.269854,1046.232563,974.925535,0
0.085417,-13.721974,163.590413,-157.022160,-0.103032,-3.325595,-1.926257,4.990903,3.429604,1.814204,-4.754738,0.014027,0.554696,-0.061832,-108.992129,188.345290,1046.402943,975.044044,0
0.086458,-84.238299,181.156048,-107.238069,0.858318,-1.436847,-3.839114,4.864037,1.481457,3.795043,-4.676465,-0.011544,0.551234,-0.065566,-168.663688,188.420654,1046.614850,974.802725,0
0.087500,-132.806887,178.232469,-27.034470,2.373858,0.409297,-4.839197,3.826716,-0.319661,4.772872,-3.769214,-0.022503,0.555219,-0.065566,-204.086607,188.496089,1046.070111,974.800049,0
0.088557,-168.342941,153.055865,52.245833,3.878088,2.329998,-5.232087,2.319242,-2.256781,5.289065,-2.321170,-0.080951,0.550581,-0.054364,-210.227937,188.256406,1045.885134,974.752530,0
0.089594,-172.516981,84.158469,115.313069,5.065638,3.938274,-4.799512,0.345348,-3.877787,4.865200,-0.439069,-0.091910,0.545681,-0.035692,-178.209328,188.345409,1045.403802,974.880077,0
0.090625,-175.363948,2.805662,152.146402,5.789478,4.893299,-3.751805,-1.408396,-4.862888,3.845403,1.339854,-0.164970,0.550058,-0.046895,-132.901469,188.434051,1045.175704,974.804993,0
0.091667,-134.927934,-71.661030,168.470266,6.128778,4.989156,-1.878634,-3.240499,-4.980512,2.066005,3.015600,-0.186888,0.538496,-0.058098,-55.450590,188.495629,1045.087694,974.911838,0
0.092708,-54.498263,-122.304180,189.262879,6.479388,4.627028,0.232653,-4.703196,-4.616613,-0.103685,4.527685,-0.208806,0.550254,-0.039427,37.936078,188.269568,1044.237840,974.860531,0
0.093750,14.407427,-163.282606,157.095266,5.959128,3.409282,1.962955,-5.076333,-3.462427,-1.790755,4.919048,-0.230724,0.561229,-0.080503,115.975076,188.344997,1043.201116,974.756070,0
0.094792,84.538108,-181.210668,106.757197,4.963848,1.541836,3.931373,-4.983048,-1.573092,-3.838741,4.858564,-0.245336,0.551234,-0.031958,173.667385,188.420410,1042.470546,974.834393,0
0.095833,132.403460,-178.275008,25.851894,3.391758,-0.297208,4.907644,-3.983041,0.279487,-4.795587,3.979776,-0.227071,0.550058,-0.024490,207.993234,188.495763,1041.005320,975.292799,0
0.096875,168.359187,-152.760139,-50.547727,1.932768,-2.228559,5.336252,-2.565121,2.176174,-5.315977,2.599332,-0.197847,0.546661,-0.058098,215.797134,188.269548,1040.293625,975.382093,0
0.097928,172.170267,-82.727138,-115.486175,0.745218,-3.879439,4.867959,-0.453165,3.867019,-4.892111,0.628285,-0.124787,0.539410,-0.080503,182.636214,188.420220,1039.650948,975.245617,0
0.098962,174.813069,-0.081674,-151.888637,0.032688,-4.830913,3.887718,1.285653,4.848444,-3.956249,-1.143523,-0.091910,0.545747,-0.054364,137.170015,188.480964,1038.829456,975.617555,0
0.100000,133.832615,73.044038,-168.274054,-0.306612,-4.909019,2.006610,3.095367,4.932986,-2.126491,-2.815711,-0.062686,0.532486,-0.031958,58.678617,188.482639,1037.329051,975.404484,0
0.101042,52.813134,122.793200,-189.152841,-0.691152,-4.493637,-0.172143,4.591647,4.649953,0.072576,-4.370490,-0.022503,0.486105,-0.061832,-34.119931,188.284497,1036.804597,976.677497,0
0.102083,-15.888391,163.626656,-156.899054,-0.057792,-3.290093,-1.906414,4.920007,3.436956,1.810007,-4.761853,-0.011544,0.516024,-0.035692,-108.799859,188.345082,1036.334803,977.355792,0
0.103125,-85.497317,181.047320,-106.487122,0.892248,-1.447498,-3.878800,4.875231,1.510863,3.837010,-4.662233,-0.029809,0.542676,-0.024490,-171.264988,188.420282,1036.216702,977.907672,0
0.104167,-132.727489,178.631139,-25.249432,2.441718,0.423498,-4.827292,3.901343,-0.330688,4.764479,-3.762098,-0.062686,0.547641,-0.043161,-204.471147,188.495615,1035.889726,978.072821,0
0.105208,-168.161461,153.273321,51.027083,3.889398,2.276744,-5.263836,2.423721,-2.238402,5.289065,-2.388769,-0.121134,0.547706,-0.043161,-211.732167,188.269326,1035.743677,978.532749,0
0.106250,-172.471611,84.496735,114.820644,5.065638,3.959576,-4.819354,0.412512,-3.833678,4.861003,-0.460416,-0.102869,0.533596,-0.024490,-180.640978,188.344686,1035.185544,978.460941,0
0.107292,-175.261866,1.476762,151.961743,5.789478,4.903950,-3.759743,-1.423322,-4.870239,3.832813,1.343412,-0.146705,0.559465,-0.043161,-133.161599,188.420188,1034.928366,978.569356,0
0.108333,-133.736972,-72.277157,168.901137,6.151398,5.010458,-1.902445,-3.270350,-5.006242,2.070202,3.033389,-0.212459,0.554174,-0.028224,-56.830410,188.495535,1034.935491,979.118072,0
0.109384,-52.944341,-122.884063,189.090531,6.558558,4.630578,0.272339,-4.699464,-4.620288,-0.166635,4.573937,-0.201500,0.547053,-0.065566,38.388478,188.253178,1035.478218,979.114735,0
0.110417,14.702332,-163.693357,156.959849,5.947818,3.402182,2.010578,-5.132303,-3.466103,-1.828525,4.958184,-0.238030,0.551038,-0.035692,114.074996,188.344666,1036.195082,979.423679,0
