1-Time,2-VGERA,3-VGERB,4-VGERC,5-VN,6-IGERAN,7-IGERBN,8-IGERCN,9-IGERAT,10-IGERBT,11-IGERCT,12-IN,13-IFD,14-IFAULT,15-VFAULT,16-Speed (rad/s),17-Active Power,18-Reactive Power,19-FAULT 
0.000000,158.467254,-157.960049,-12.596269,0.044046,-3.498624,3.732685,0.358263,3.876008,-3.724434,-0.637338,-0.013779,0.402810,-0.022156,66.667009,188.495674,1216.529260,-15.151734,0
0.001042,179.213917,-103.392732,-73.196656,-1.115662,-4.038037,2.518510,1.958840,4.392523,-2.417364,-2.213784,-0.010133,0.407082,-0.018440,78.702158,188.495669,1214.911078,-14.048433,0
0.002083,184.479682,-27.543457,-129.568261,-2.219074,-4.023359,1.099928,3.253992,4.419108,-1.045588,-3.538913,-0.086703,0.403361,-0.029590,82.180980,188.495687,1213.003822,-12.790159,0
0.003125,152.127996,38.146384,-165.452147,-2.883372,-3.373862,-0.429034,3.926698,3.674719,0.507366,-4.136744,-0.072118,0.398125,-0.011006,68.445824,188.495627,1210.486472,-10.859059,0
0.004167,80.090972,88.955298,-190.958506,-3.423819,-2.096885,-2.346368,4.429294,2.394824,2.414049,-4.669842,-0.101287,0.413903,-0.014723,37.001323,188.495595,1208.695579,-9.525137,0
0.005208,14.958203,140.903478,-175.295001,-3.108558,-0.640105,-3.368401,3.849375,0.894652,3.384645,-3.931121,-0.090349,0.421964,0.022444,8.607829,188.571011,1206.809444,-7.861434,0
0.006250,-48.106681,179.497581,-126.542494,-2.207814,1.161606,-4.226909,2.786191,-0.996705,4.238770,-2.910619,-0.046595,0.430025,-0.040740,-18.006851,188.495689,1205.227990,-6.919892,0
0.007292,-102.357622,187.319758,-51.979837,-0.755365,2.765166,-4.316848,1.320929,-2.595624,4.178377,-1.341788,-0.032010,0.414385,-0.011006,-43.383115,188.495649,1204.017436,-6.445227,0
0.008333,-158.495651,157.569647,11.330373,0.460640,3.851330,-3.687275,-0.341506,-3.723602,3.660726,0.268929,0.029975,0.408528,-0.011006,-66.586522,188.495682,1201.808239,-5.498881,0
0.009375,-179.502212,104.928512,73.012258,1.654126,4.438446,-2.550775,-1.938216,-4.300883,2.370911,1.860607,0.026329,0.409906,-0.040740,-76.854114,188.571174,1200.924181,-4.686547,0
0.010417,-183.976983,29.584272,129.699807,2.802574,4.416429,-1.054518,-3.272030,-4.304681,1.003449,3.136234,0.077375,0.409286,-0.011006,-81.458768,188.495763,1198.989911,-3.151674,0
0.011458,-152.800489,-36.728055,165.996850,3.511910,3.785279,0.429474,-3.991129,-3.594473,-0.549505,3.798798,0.084667,0.420104,-0.022156,-66.710363,188.495707,1197.943717,-2.524376,0
0.012500,-82.029056,-88.958115,190.348800,4.007319,2.493625,2.277310,-4.428001,-2.352558,-2.417364,4.251931,0.081021,0.418174,-0.029590,-35.558579,188.495749,1196.132493,-1.342463,0
0.013542,-16.331291,-141.000254,175.584519,3.680800,1.033175,3.385194,-3.855815,-0.765033,-3.379333,3.581751,0.077375,0.433401,-0.011006,-7.469059,188.570998,1195.068997,-1.558002,0
0.014583,47.694086,-179.007107,127.111501,2.757537,-0.801562,4.137410,-2.815827,1.069355,-4.207575,2.546018,0.077375,0.412938,-0.011006,18.751579,188.495689,1193.398805,-0.973112,0
0.015625,102.510024,-187.510494,52.475933,1.293828,-2.339071,4.280495,-1.350565,2.649284,-4.190320,1.019074,0.026329,0.409838,-0.003573,44.060293,188.495689,1192.346674,-0.460219,0
0.016667,158.263856,-157.537229,-11.283888,0.100342,-3.421565,3.679539,0.269342,3.758272,-3.711493,-0.610683,-0.010133,0.405428,-0.025873,67.556416,188.495622,1190.861676,0.111033,0
0.017708,179.835413,-104.743408,-72.905015,-1.138181,-4.041706,2.551215,1.881517,4.346948,-2.430305,-2.164282,-0.006487,0.405497,0.003860,77.373675,188.495781,1190.535994,0.481433,0
0.018750,183.699988,-28.506548,-129.580412,-2.219074,-4.023359,1.128545,3.199866,4.350746,-1.032647,-3.451333,-0.072118,0.414316,0.000144,81.190247,188.495635,1188.862387,0.614045,0
0.019792,152.749492,37.488664,-165.549360,-2.962187,-3.373862,-0.420858,3.903501,3.682314,0.533249,-4.102474,-0.072118,0.422308,-0.018440,66.363034,188.495705,1188.750342,0.247875,0
0.020833,81.424363,89.143218,-190.132192,-3.435078,-2.082208,-2.293222,4.367436,2.375835,2.418363,-4.555607,-0.075764,0.420999,-0.063040,36.055624,188.495094,1187.361239,-0.281908,0
0.021875,15.082502,140.692068,-175.623096,-3.119818,-0.640105,-3.335696,3.864840,0.887056,3.315625,-3.919697,-0.061180,0.409769,-0.048173,7.954846,188.570709,1186.624806,-0.080572,0
0.022917,-48.490878,178.839860,-126.554646,-2.140259,1.165276,-4.153322,2.762994,-0.992907,4.178377,-2.887772,-0.079410,0.407426,-0.037023,-19.143942,188.495417,1185.619080,-0.021600,0
0.023958,-102.278523,187.801303,-51.177826,-0.732846,2.783513,-4.284143,1.297732,-2.553847,4.191319,-1.372251,-0.053887,0.402603,-0.037023,-43.900997,188.495220,1185.644834,0.876531,0
0.025000,-157.840255,157.405217,12.278203,0.494418,3.858669,-3.662747,-0.326041,-3.716006,3.630530,0.234658,0.026329,0.399847,-0.022156,-67.059371,188.495311,1185.097601,1.306120,0
0.026042,-179.468313,104.118106,73.218837,1.642866,4.383404,-2.469012,-1.938216,-4.247713,2.379539,1.860607,0.033621,0.402121,-0.022156,-77.811071,188.495387,1184.441204,1.685180,0
0.027083,-183.671885,27.775541,129.481077,2.780056,4.405420,-1.050430,-3.256565,-4.281894,0.955997,3.136234,0.106545,0.392888,0.003860,-80.614394,188.495394,1183.834772,1.539956,0
0.028125,-152.235493,-38.301886,165.535087,3.489392,3.821974,0.474443,-3.971799,-3.583079,-0.532250,3.756912,0.124775,0.370633,-0.014723,-68.714345,188.495356,1183.067193,2.287745,0
0.029167,-80.322768,-89.486640,190.275890,3.984801,2.500964,2.310015,-4.420269,-2.287993,-2.438933,4.282394,0.066437,0.387376,-0.018440,-36.436728,188.495372,1182.986756,1.975384,0
0.030208,-14.116505,-140.730119,175.803249,3.692059,1.000150,3.348400,-3.859681,-0.806810,-3.357764,3.619830,0.081021,0.413420,0.000144,-8.268400,188.570781,1183.131332,3.305993,0
0.031250,49.083977,-178.713482,126.977832,2.791315,-0.750189,4.149674,-2.815827,0.993397,-4.207575,2.557442,0.051852,0.420104,-0.040740,19.505887,188.495285,1182.974963,4.622498,0
0.032292,102.193626,-187.651434,51.746833,1.316347,-2.361088,4.276407,-1.358297,2.611305,-4.198948,1.068576,0.040913,0.410182,-0.018440,44.747051,188.495314,1182.930853,5.623990,0
0.033333,157.585860,-157.678169,-11.478315,0.100342,-3.432574,3.671363,0.246146,3.784858,-3.689924,-0.545949,-0.017425,0.408460,-0.029590,66.486875,188.495334,1182.836766,6.016383,0
0.034375,179.406016,-104.649448,-73.062987,-1.093144,-4.001342,2.514421,1.838990,4.339352,-2.464815,-2.126204,-0.006487,0.411491,0.007577,78.657124,188.646098,1182.679664,6.783246,0
0.035417,183.756487,-28.717958,-129.410289,-2.219074,-3.960978,1.104016,3.153473,4.358342,-1.101667,-3.436101,-0.050241,0.396747,-0.022156,81.798197,188.495242,1182.796031,7.604636,0
0.036458,152.817292,37.288999,-165.464299,-2.928410,-3.406887,-0.396329,3.884171,3.670921,0.498739,-4.094858,-0.057533,0.407426,-0.025873,68.670990,188.495309,1182.527682,7.871294,0
0.037500,82.147559,89.166708,-189.548912,-3.446337,-2.096885,-2.276870,4.351972,2.406218,2.375225,-4.593685,-0.083057,0.392406,-0.025873,37.676823,188.495477,1182.826278,8.454845,0
0.038542,15.918696,140.774283,-175.489428,-3.153596,-0.680469,-3.331608,3.837777,0.932631,3.306997,-3.957776,-0.072118,0.419552,-0.048173,8.697895,188.720679,1183.232816,9.012570,0
0.039583,-47.948482,178.299590,-127.368808,-2.252852,1.102895,-4.116529,2.778458,-0.924545,4.139553,-2.891580,-0.075764,0.411422,-0.040740,-18.029367,188.495631,1182.591635,9.544070,0
0.040625,-102.391522,187.425463,-52.757544,-0.777883,2.721132,-4.267790,1.340259,-2.508272,4.148181,-1.383675,-0.013779,0.412456,-0.014723,-43.383115,188.495448,1181.879637,9.629180,0
0.041667,-157.975855,157.311257,10.734941,0.471899,3.755924,-3.666835,-0.306711,-3.647644,3.634843,0.227043,0.029975,0.411216,-0.037023,-66.395130,188.495385,1181.212275,9.750933,0
0.042708,-179.784710,105.492272,72.890742,1.642866,4.442115,-2.534422,-1.922751,-4.270500,2.405421,1.799681,0.033621,0.404808,0.007577,-76.820339,188.721520,1181.606903,10.238727,0
0.043750,-183.694485,29.924877,129.444622,2.780056,4.376065,-1.087223,-3.229502,-4.259106,0.977566,3.105771,0.077375,0.407839,0.007577,-81.244860,188.495392,1181.285924,10.084510,0
0.044792,-153.037787,-36.669330,165.826727,3.478132,3.777941,0.396769,-3.933137,-3.586877,-0.532250,3.772143,0.070083,0.419759,-0.018440,-66.811688,188.495408,1181.673644,9.518827,0
0.045833,-82.481053,-89.310465,189.729065,3.917245,2.475278,2.277310,-4.416403,-2.295589,-2.434619,4.259547,0.077375,0.419415,-0.003573,-35.637387,188.495417,1181.580067,9.098098,0
0.046875,-15.901893,-140.918039,175.973373,3.635763,1.077209,3.319784,-3.913807,-0.867577,-3.357764,3.566520,0.044560,0.414247,-0.022156,-7.187601,188.646156,1181.280132,9.055573,0
0.047917,48.428581,-178.384622,127.342382,2.768796,-0.709825,4.145586,-2.897015,1.050366,-4.203261,2.557442,0.048206,0.395851,0.011294,19.033037,188.495276,1181.342110,8.165930,0
0.048958,102.397025,-187.921570,52.196445,1.316347,-2.350079,4.354081,-1.373761,2.626497,-4.242085,1.011458,0.033621,0.407839,-0.007290,44.049034,188.495432,1181.842346,7.418735,0
0.050000,157.789259,-157.537229,-11.429708,0.066564,-3.432574,3.687715,0.257744,3.792454,-3.698551,-0.587836,-0.013779,0.405359,-0.044457,67.455091,188.495291,1182.032598,6.984362,0
0.051042,179.812813,-104.766898,-72.953622,-1.149440,-3.997672,2.575743,1.893115,4.339352,-2.490698,-2.152859,-0.057533,0.405359,-0.029590,77.351159,188.721472,1182.444826,6.916023,0
0.052083,183.564388,-28.318628,-129.300924,-2.252852,-3.990333,1.104016,3.219197,4.377331,-1.032647,-3.474180,-0.035656,0.407357,-0.022156,81.100181,188.495405,1182.704844,6.005019,0
0.053125,152.749492,37.723564,-165.354934,-2.905891,-3.421565,-0.441298,3.922832,3.705102,0.507366,-4.121513,-0.075764,0.421688,0.015011,66.441842,188.495314,1183.292621,6.157179,0
0.054167,81.141865,89.319393,-189.949917,-3.412560,-2.067530,-2.354544,4.386767,2.360643,2.439931,-4.620340,-0.061180,0.418381,-0.011006,35.976816,188.495302,1183.712610,5.353788,0
0.055208,14.743504,140.703813,-175.805371,-3.097299,-0.621757,-3.368401,3.860974,0.921237,3.380331,-3.980623,-0.086703,0.398400,-0.011006,7.797229,188.721436,1184.619990,5.124049,0
0.056250,-48.705577,178.804625,-126.506039,-2.185296,1.201971,-4.157411,2.762994,-0.981514,4.187005,-2.918235,-0.053887,0.402052,0.003860,-19.143942,188.495383,1185.555613,5.016600,0
0.057292,-102.188123,187.848283,-51.189978,-0.755365,2.794522,-4.259614,1.293866,-2.569038,4.256025,-1.402714,0.008098,0.404808,-0.007290,-43.844706,188.495327,1187.221600,5.222227,0
0.058333,-157.851555,157.405217,12.363265,0.460640,3.858669,-3.699540,-0.360836,-3.753985,3.643471,0.249890,-0.002841,0.400949,-0.011006,-67.115663,188.495358,1188.403036,4.812932,0
0.059375,-179.479612,103.883206,73.291747,1.642866,4.434776,-2.518069,-1.957547,-4.281894,2.409735,1.864415,0.048206,0.398745,-0.011006,-77.833588,188.646159,1188.585495,4.591569,0
0.060417,-183.909183,27.916481,129.456773,2.791315,4.438446,-1.054518,-3.299092,-4.335064,0.973252,3.208583,0.084667,0.398331,-0.022156,-80.749494,188.495483,1190.214968,4.484788,0
0.061458,-152.133793,-38.113966,165.571542,3.523169,3.851330,0.462179,-4.022058,-3.651441,-0.575388,3.806414,0.066437,0.388134,-0.007290,-68.770637,188.570774,1191.042971,4.824802,0
0.062500,-80.254968,-89.239995,190.676895,3.984801,2.460600,2.379513,-4.485993,-2.269004,-2.469129,4.297625,0.088314,0.421413,-0.014723,-36.560570,188.495405,1191.452713,4.729756,0
0.063542,-14.658902,-140.824079,175.475154,3.669540,1.011158,3.405634,-3.940869,-0.799214,-3.400902,3.623637,0.077375,0.408873,-0.048173,-8.696216,188.721482,1192.156397,4.339103,0
0.064583,48.451181,-179.394692,127.075046,2.735018,-0.786884,4.202820,-2.842890,1.095941,-4.263654,2.606944,0.055498,0.416590,-0.018440,19.224429,188.569027,1193.571409,4.232813,0
0.065625,102.374425,-187.334319,52.451630,1.327606,-2.423469,4.264142,-1.389226,2.740434,-4.207575,1.022881,0.040913,0.411216,-0.011006,44.690759,188.495061,1193.890227,3.215677,0
0.066667,158.444654,-157.948304,-11.053006,0.100342,-3.472938,3.753126,0.358263,3.876008,-3.741689,-0.606875,0.004452,0.411560,-0.025873,66.757075,188.495582,1195.381153,2.729611,0
0.067708,179.383416,-105.001798,-72.856409,-1.104403,-4.056384,2.551215,1.966572,4.392523,-2.451874,-2.206168,-0.017425,0.407839,-0.018440,78.713416,188.721407,1195.893938,1.642357,0
0.068750,184.253684,-29.516619,-129.859901,-2.241592,-4.034367,1.087663,3.281055,4.430502,-1.015392,-3.538913,-0.075764,0.405497,-0.033307,82.000847,188.570459,1197.361523,0.847057,0
0.069792,152.681693,36.783963,-165.634422,-2.950928,-3.443582,-0.465827,3.984690,3.746879,0.520308,-4.190054,-0.112226,0.419552,-0.033307,68.513374,188.570421,1198.518548,0.507077,0
0.070833,82.000660,88.790868,-190.606107,-3.446337,-2.104224,-2.399514,4.448625,2.387229,2.500324,-4.681266,-0.086703,0.419897,-0.025873,37.282781,188.570043,1199.967827,-0.122200,0
0.071875,16.427193,141.056163,-175.197788,-3.131077,-0.665791,-3.470604,3.888037,0.856673,3.376018,-3.999662,-0.057533,0.427820,-0.040740,8.596570,188.721790,1200.045181,-1.066583,0
0.072917,-47.360886,179.532816,-126.712618,-2.219074,1.212979,-4.251438,2.840316,-1.042280,4.234456,-2.914427,-0.068472,0.417692,-0.063040,-18.029367,188.569941,1200.868240,-2.250658,0
0.073958,-102.470621,187.214053,-52.320084,-0.777883,2.827547,-4.353641,1.243606,-2.622209,4.243084,-1.315133,-0.046595,0.411078,-0.037023,-43.304306,188.563463,1200.713874,-3.901772,0
0.075000,-158.732950,157.651862,11.585558,0.505677,3.972423,-3.748597,-0.384033,-3.841337,3.708177,0.318431,0.008098,0.406393,-0.033307,-66.530230,188.569798,1202.478119,-4.900983,0
0.076042,-179.626512,104.752337,72.878590,1.687904,4.475140,-2.518069,-2.031003,-4.342660,2.396794,1.971034,0.062790,0.407082,-0.025873,-76.865372,188.721480,1203.719298,-6.504006,0
0.077083,-184.327280,28.797356,129.711958,2.780056,4.515505,-1.025901,-3.411210,-4.361650,0.912860,3.277124,0.059144,0.415281,-0.033307,-81.526318,188.570691,1204.664310,-7.844971,0
0.078125,-152.461491,-37.432755,165.960395,3.478132,3.818305,0.539854,-4.091648,-3.613462,-0.622839,3.871147,0.073729,0.430232,-0.018440,-66.473938,188.495197,1205.259303,-9.106468,0
0.079167,-80.537466,-88.922880,191.357389,3.984801,2.493625,2.432659,-4.563316,-2.303185,-2.589915,4.358551,0.073729,0.419277,-0.018440,-34.928113,188.570736,1207.072338,-10.060175,0
0.080208,-15.302997,-141.176430,175.450851,3.725837,1.007489,3.471044,-3.913807,-0.753639,-3.478549,3.638869,0.066437,0.423204,-0.003573,-6.996209,188.721454,1207.991403,-11.132529,0
0.081250,48.225183,-180.158118,126.418855,2.768796,-0.819909,4.292759,-2.850622,1.213676,-4.341302,2.549826,0.048206,0.411491,-0.029590,19.021779,188.570716,1208.838350,-12.982442,0
0.082292,102.103227,-187.710160,51.443041,1.327606,-2.485850,4.358169,-1.304171,2.782211,-4.267968,0.954340,0.040913,0.405841,0.000144,43.970226,188.495360,1209.514733,-13.795469,0
0.083333,158.568954,-158.018774,-12.146657,0.077824,-3.656411,3.761302,0.393058,4.001338,-3.754630,-0.683032,-0.024718,0.402603,-0.025873,67.567675,188.646049,1210.997695,-14.997286,0
0.084375,179.519015,-103.662867,-72.856409,-1.126922,-4.129773,2.534862,2.043894,4.502662,-2.413050,-2.328019,-0.061180,0.388685,0.000144,77.373675,188.646065,1212.409658,-16.486353,0
0.085417,184.626581,-27.531712,-129.604716,-2.230333,-4.104087,1.079487,3.381574,4.495066,-0.998137,-3.679803,-0.079410,0.385791,-0.044457,81.595547,188.570664,1214.200423,-17.123920,0
0.086458,152.048897,38.158130,-165.646574,-2.962187,-3.472938,-0.551678,4.085209,3.758272,0.602269,-4.273826,-0.086703,0.415556,-0.029590,66.081576,188.495142,1215.293376,-17.820707,0
0.087500,79.277378,88.790868,-192.015701,-3.480115,-2.082208,-2.518069,4.529814,2.375835,2.634051,-4.742191,-0.075764,0.440980,-0.066757,35.436416,188.646627,1216.732042,-18.572656,0
0.088542,14.517506,141.138378,-175.173484,-3.153596,-0.537360,-3.523750,3.891903,0.799704,3.526999,-4.030125,-0.075764,0.416590,-0.037023,8.056171,188.646379,1218.310269,-19.501725,0
0.089583,-48.219680,180.707317,-125.704029,-2.230333,1.312055,-4.345465,2.832584,-1.118238,4.389752,-2.925850,-0.021072,0.398125,-0.011006,-18.975067,188.571151,1220.559862,-20.096975,0
0.090625,-101.860425,187.519423,-51.019855,-0.732846,2.963318,-4.406787,1.255205,-2.713359,4.325045,-1.326557,-0.028364,0.407150,-0.029590,-43.630798,188.495749,1222.047394,-20.440036,0
0.091667,-158.789449,158.133408,12.448327,0.483158,4.089846,-3.793567,-0.472954,-3.951476,3.777197,0.352701,0.044560,0.404394,0.011294,-67.543479,188.646589,1223.974084,-20.856720,0
0.092708,-179.344013,103.460386,72.902893,1.687904,4.599902,-2.473100,-2.135388,-4.426214,2.392480,2.070038,0.029975,0.406255,-0.022156,-77.856105,188.646504,1225.093399,-21.759713,0
0.093750,-185.016576,28.257086,129.869930,2.768796,4.596233,-1.017725,-3.519462,-4.475587,0.925801,3.414206,0.062790,0.407495,-0.022156,-81.334927,188.571105,1227.734449,-22.210445,0
0.094792,-151.783496,-37.561951,166.154822,3.545688,3.854999,0.588911,-4.192168,-3.704612,-0.670291,3.996806,0.091960,0.428165,-0.014723,-68.658053,188.495731,1229.909953,-22.433041,0
0.095833,-79.599573,-88.382609,192.584708,4.063616,2.489956,2.555303,-4.648371,-2.299387,-2.663248,4.438516,0.110191,0.405221,0.007577,-36.234078,188.646495,1231.377638,-23.071054,0
0.096875,-15.641995,-141.376095,174.891874,3.669540,0.919421,3.589600,-4.029790,-0.715660,-3.599335,3.726449,0.077375,0.414385,-0.029590,-8.977674,188.646505,1233.293491,-23.850813,0
0.097917,47.366388,-181.367854,126.528220,2.746278,-0.948340,4.394962,-2.850622,1.259251,-4.479342,2.584097,0.011744,0.422308,-0.011006,19.179395,188.571093,1235.524180,-24.591575,0
0.098958,102.227526,-187.028949,52.621753,1.316347,-2.599603,4.484901,-1.331234,2.839179,-4.332674,0.927685,0.011744,0.409906,-0.037023,44.398043,188.495769,1236.468515,-25.514886,0
0.100000,159.540747,-158.688240,-11.065158,0.055305,-3.704115,3.794007,0.431720,4.077297,-3.784826,-0.759188,-0.028364,0.411491,0.000144,67.038533,188.646485,1237.908970,-26.889550,0
0.101042,179.270417,-104.391058,-72.491859,-1.115662,-4.184816,2.498069,2.117351,4.548237,-2.408737,-2.396560,-0.061180,0.408873,-0.011006,78.769708,188.646525,1238.722258,-27.975425,0
0.102083,185.248077,-29.222993,-130.102934,-2.185296,-4.181146,0.989548,3.482093,4.540641,-0.903234,-3.717882,-0.053887,0.411284,-0.014723,82.473696,188.571147,1239.695392,-29.610842,0
0.103125,152.308795,36.701748,-165.998972,-2.894632,-3.498624,-0.604824,4.154799,3.716496,0.666975,-4.342368,-0.068472,0.427063,0.007577,68.164366,188.495781,1240.268763,-31.320387,0
0.104167,80.373470,88.015697,-192.647588,-3.491375,-2.100555,-2.571215,4.614868,2.360643,2.634051,-4.791693,-0.083057,0.421895,-0.022156,36.483440,188.646565,1240.971903,-31.922622,0
0.105208,16.235094,141.349788,-174.711721,-3.119818,-0.563046,-3.597336,3.969225,0.780714,3.539941,-4.041548,-0.028364,0.422929,-0.018440,8.393920,188.646353,1241.192923,-32.560999,0
0.106250,-47.010588,181.458998,-125.764787,-2.207814,1.363427,-4.419051,2.813254,-1.163813,4.411320,-2.906811,-0.050241,0.407219,0.007577,-18.096917,188.571136,1241.551858,-33.587433,0
0.107292,-102.041224,187.049622,-51.384405,-0.766624,2.989004,-4.451756,1.204945,-2.793115,4.320731,-1.284671,-0.042949,0.407771,-0.003573,-43.135431,188.495799,1241.825824,-34.801234,0
0.108333,-159.388345,158.333073,12.448327,0.483158,4.119202,-3.846713,-0.554143,-4.023636,3.798766,0.459321,0.033621,0.405221,0.003860,-66.496455,188.721857,1242.996311,-36.246457,0
0.109375,-179.423113,103.389916,72.732770,1.642866,4.647606,-2.513981,-2.189514,-4.441406,2.362284,2.111924,0.022683,0.405152,-0.018440,-76.977955,188.646551,1243.161662,-37.010140,0
0.110417,-185.434673,27.928226,129.930689,2.768796,4.610911,-0.940050,-3.581320,-4.505970,0.861095,3.459900,0.091960,0.408115,-0.025873,-81.920360,188.571129,1243.837050,-37.926115,0
0.111458,-151.783496,-37.785106,166.057608,3.511910,3.891694,0.613440,-4.234695,-3.659037,-0.765193,4.053924,0.081021,0.418312,-0.022156,-66.136189,188.495749,1244.217336,-39.484866,0
