1-Time,2-VGERA,3-VGERB,4-VGERC,5-VN,6-IGERAN,7-IGERBN,8-IGERCN,9-IGERAT,10-IGERBT,11-IGERCT,12-IN,13-IFD,14-IFAULT,15-VFAULT,16-Speed (rad/s),17-Active Power,18-Reactive Power,19-FAULT 
0.000000,80.983666,64.878027,-199.938591,-3.570190,-0.258480,-5.483101,5.449952,0.594889,5.556157,-5.886662,-0.039302,0.341075,-0.007290,75.099494,188.721536,1509.627744,-914.521727,0
0.001042,27.817518,142.782679,-175.307153,-3.153596,2.255109,-6.560937,3.949895,-1.880229,6.667322,-4.355910,-0.028364,0.339628,-0.033307,22.950934,188.570606,1508.113893,-914.983668,0
0.002083,-22.907847,184.888541,-120.648933,-2.083962,4.229286,-6.165592,1.595424,-3.888484,6.085283,-1.934122,0.000805,0.335012,-0.022156,-25.527412,188.570586,1507.293678,-914.325329,0
0.003125,-88.447414,195.823145,-56.074950,-0.822920,6.104386,-5.191794,-1.145660,-5.752233,5.154903,0.731367,0.044560,0.316960,-0.048173,-91.793910,188.721376,1505.969413,-913.640545,0
0.004167,-151.738296,158.380053,-4.126554,0.212935,6.687833,-3.294137,-3.415076,-6.270971,3.126587,2.951339,0.102898,0.318752,-0.014723,-150.168324,188.721480,1505.085250,-913.350328,0
0.005208,-199.480480,91.879806,45.634542,1.181235,6.262174,-0.747281,-5.301746,-5.878212,0.630876,4.813374,0.128422,0.321577,-0.037023,-197.138054,188.570555,1503.447034,-912.293264,0
0.006250,-184.564579,38.580950,118.666089,2.588648,5.124637,1.591499,-6.194821,-4.759222,-1.688460,5.593981,0.135714,0.344176,-0.018440,-176.163795,188.570611,1503.282971,-910.794010,0
0.007292,-137.534290,-10.243057,183.944869,3.872208,3.425671,3.747171,-6.461584,-3.069620,-3.813783,5.860530,0.150299,0.323368,-0.011006,-130.376189,188.721366,1502.498225,-909.636301,0
0.008333,-79.407474,-64.575474,200.361778,4.153690,0.827684,5.511659,-5.402265,-0.483344,-5.533443,4.710562,0.161237,0.353408,-0.022156,-74.084566,188.721463,1502.343417,-908.138402,0
0.009375,-26.456024,-142.503616,175.365789,3.759615,-1.575820,6.614465,-3.944736,1.984364,-6.596104,3.275005,0.128422,0.324470,-0.011006,-22.341306,188.570589,1501.754394,-907.113175,0
0.010417,23.105449,-185.126257,121.132878,2.712500,-3.605039,6.231604,-1.570934,3.962976,-6.058159,0.784677,0.051852,0.342040,0.026161,25.754257,188.495289,1500.707737,-906.676977,0
0.011458,88.260818,-195.802471,57.081417,1.451458,-5.399411,5.212029,1.116024,5.815610,-5.141007,-1.800848,-0.002841,0.319992,-0.007290,92.189631,188.721386,1500.028563,-905.439055,0
0.012500,151.913298,-159.052335,5.169475,0.393084,-6.037899,3.364310,3.377708,6.363989,-3.192060,-4.062706,-0.053887,0.324195,-0.007290,150.620335,188.721362,1500.465553,-904.727555,0
0.013542,199.271285,-93.362493,-45.247811,-0.563957,-5.634257,0.850746,5.275976,6.034220,-0.639027,-5.932356,-0.068472,0.328329,-0.051890,197.409932,188.570680,1499.626446,-904.392966,0
0.014583,185.044679,-39.957933,-118.522391,-1.982628,-4.540754,-1.529648,6.234775,4.885588,1.733222,-6.762466,-0.072118,0.336872,-0.014723,176.908523,188.495246,1499.390868,-904.910685,0
0.015625,138.308187,9.523795,-183.655351,-3.232411,-2.856466,-3.751905,6.466743,3.177460,3.858545,-7.048054,-0.101287,0.348103,0.000144,131.244759,188.721498,1499.204925,-905.133396,0
0.016667,80.237871,64.607892,-200.546175,-3.547671,-0.247471,-5.449809,5.434487,0.609710,5.600251,-5.890470,-0.079410,0.340800,0.003860,74.255119,188.721371,1499.662809,-905.323063,0
0.017708,27.071723,142.289389,-175.319304,-3.131077,2.247770,-6.565099,3.915100,-1.887640,6.623228,-4.397796,-0.021072,0.336046,-0.011006,22.365501,188.570644,1499.603544,-904.660847,0
0.018750,-22.975647,185.041226,-120.503113,-2.117740,4.240294,-6.203046,1.610888,-3.873663,6.116149,-1.953161,0.011744,0.313860,0.022444,-25.426087,188.495208,1500.125449,-904.380741,0
0.019792,-87.792018,195.705695,-55.831917,-0.822920,6.115395,-5.175148,-1.157258,-5.737412,5.168132,0.716136,0.044560,0.314135,-0.048173,-91.242253,188.721500,1499.999594,-904.061386,0
0.020833,-151.399298,158.638443,-4.260222,0.190417,6.709849,-3.285814,-3.391880,-6.285792,3.197137,2.928492,0.099252,0.319234,0.011294,-150.168324,188.646147,1500.732327,-903.652147,0
0.021875,-199.197982,92.302626,45.573784,1.181235,6.287860,-0.751442,-5.313344,-5.922675,0.688198,4.786719,0.172176,0.324057,-0.007290,-197.047987,188.570731,1501.411681,-903.098138,0
0.022917,-184.779277,39.426591,118.556724,2.611166,5.179679,1.603983,-6.202554,-4.774043,-1.644366,5.673946,0.150299,0.325022,-0.040740,-176.490287,188.495401,1502.288915,-903.642153,0
0.023958,-138.539983,-9.538356,183.616774,3.849689,3.410993,3.734686,-6.461584,-3.091852,-3.866696,5.849107,0.164883,0.352719,-0.022156,-131.592088,188.721529,1502.319039,-904.594940,0
0.025000,-81.181562,-64.258358,200.301019,4.176209,0.849701,5.515821,-5.421596,-0.472228,-5.546671,4.756256,0.150299,0.339697,-0.025873,-75.165365,188.646132,1502.785459,-905.592563,0
0.026042,-28.004113,-142.421401,175.718187,3.692059,-1.579490,6.614465,-3.925405,1.995480,-6.600513,3.263582,0.117483,0.338939,-0.014723,-22.746606,188.570740,1502.545690,-906.504453,0
0.027083,22.676052,-184.914847,121.667552,2.678722,-3.557336,6.223281,-1.601863,3.933334,-6.119891,0.780869,0.055498,0.336459,0.007577,25.641674,188.495349,1502.967756,-906.724978,0
0.028125,87.684522,-195.943412,56.959900,1.473977,-5.403080,5.228675,1.077363,5.863778,-5.127779,-1.865581,0.019036,0.318821,-0.033307,91.390290,188.721445,1502.679829,-907.968105,0
0.029167,151.540400,-159.169785,4.829228,0.415603,-6.026891,3.347664,3.377708,6.382515,-3.156785,-4.036051,-0.006487,0.320819,-0.040740,150.203777,188.646033,1502.461300,-907.903595,0
0.030208,198.807988,-92.775243,-44.858957,-0.575216,-5.630588,0.821616,5.283708,6.011989,-0.599342,-5.947587,-0.068472,0.323299,-0.018440,197.060924,188.570600,1501.663518,-908.171764,0
0.031250,185.010779,-39.135782,-117.659622,-1.971369,-4.496721,-1.500518,6.188382,4.848535,1.667081,-6.751042,-0.057533,0.329914,-0.033307,177.043623,188.495204,1501.110899,-907.191550,0
0.032292,138.330787,10.040575,-182.901948,-3.266189,-2.827111,-3.739420,6.513137,3.229333,3.876182,-7.029015,-0.104934,0.355889,-0.022156,131.346084,188.721427,1501.244220,-906.757979,0
0.033333,79.932773,64.255542,-200.509720,-3.558930,-0.229124,-5.420678,5.434487,0.620826,5.547338,-5.894278,-0.079410,0.308348,-0.033307,74.750486,188.721469,1500.921525,-906.070309,0
0.034375,27.071723,141.443748,-175.355759,-3.131077,2.207406,-6.490191,3.926698,-1.850587,6.592362,-4.367333,-0.024718,0.346656,-0.029590,23.266167,188.570635,1500.066785,-905.623664,0
0.035417,-22.670549,184.841561,-121.499551,-2.095221,4.152227,-6.161430,1.634085,-3.829200,6.120558,-1.979816,0.022683,0.329845,-0.014723,-25.009529,188.495240,1500.160946,-905.400141,0
0.036458,-87.068823,195.529520,-57.156449,-0.856698,6.042005,-5.137694,-1.157258,-5.674423,5.141675,0.685673,0.040913,0.320750,0.007577,-90.848211,188.721404,1499.195996,-905.143238,0
0.037500,-151.613997,159.765964,-5.171597,0.145379,6.665816,-3.244198,-3.337754,-6.230213,3.183909,2.894221,0.106545,0.320199,-0.022156,-149.841832,188.721529,1498.656173,-905.175188,0
0.038542,-198.271388,93.700282,45.112020,1.147457,6.232818,-0.768088,-5.220557,-5.896739,0.648513,4.771487,0.153945,0.326675,-0.014723,-196.383746,188.570645,1497.587574,-905.865273,0
0.039583,-185.751071,40.377936,118.131415,2.599907,5.187018,1.566529,-6.136829,-4.762927,-1.662004,5.514016,0.179468,0.335494,-0.033307,-177.165786,188.495159,1496.154964,-905.397380,0
0.040625,-139.172779,-9.491376,182.778309,3.793393,3.418332,3.668102,-6.434521,-3.106673,-3.796145,5.822452,0.168530,0.348654,0.003860,-131.400696,188.721458,1495.699407,-904.560759,0
0.041667,-80.921664,-63.917753,200.981513,4.187468,0.904743,5.478367,-5.394533,-0.479639,-5.489349,4.687715,0.117483,0.341833,-0.018440,-74.602449,188.646007,1494.743230,-904.017543,0
0.042708,-27.608616,-141.211665,175.499457,3.692059,-1.601507,6.552042,-3.875145,1.984364,-6.516735,3.195041,0.095606,0.335357,-0.022156,-22.465147,188.570615,1492.803646,-903.423982,0
0.043750,22.845550,-185.126257,121.509580,2.701241,-3.553666,6.206635,-1.613461,3.899987,-6.036112,0.845602,0.073729,0.330189,-0.025873,25.697965,188.570553,1492.468286,-902.178889,0
0.044792,86.791828,-195.567571,56.498136,1.440199,-5.329691,5.178737,1.092827,5.771146,-5.123370,-1.842734,0.000805,0.317374,-0.051890,90.861148,188.721456,1491.535258,-900.974206,0
0.045833,151.178802,-159.827506,4.586195,0.426862,-5.986527,3.355987,3.354511,6.338052,-3.192060,-4.005588,-0.017425,0.318545,-0.063040,149.888544,188.646044,1491.513539,-900.320649,0
0.046875,197.790994,-93.127593,-44.494407,-0.541438,-5.597563,0.863231,5.206386,5.974936,-0.652255,-5.840968,-0.075764,0.324126,-0.025873,196.475492,188.570794,1490.545328,-898.738142,0
0.047917,185.880873,-39.629072,-117.319375,-1.982628,-4.551763,-1.475548,6.180650,4.881882,1.649443,-6.678693,-0.097641,0.318958,-0.044457,177.842964,188.570709,1490.469873,-898.302219,0
0.048958,139.144382,9.559030,-182.245757,-3.221151,-2.838119,-3.627059,6.420350,3.184870,3.827679,-6.979513,-0.097641,0.339491,-0.011006,132.426883,188.721489,1489.250699,-898.199728,0
0.050000,81.458263,63.856212,-200.983635,-3.615227,-0.309852,-5.453971,5.411291,0.620826,5.512063,-5.871431,-0.046595,0.343073,-0.025873,76.225326,188.646121,1488.875396,-898.624186,0
0.051042,28.800611,141.103143,-175.477276,-3.187373,2.192728,-6.431930,3.949895,-1.824650,6.574725,-4.397796,-0.013779,0.334599,-0.040740,24.155575,188.570635,1488.795920,-898.793049,0
0.052083,-22.252451,184.865051,-122.131437,-2.095221,4.141218,-6.136461,1.641817,-3.784737,6.098511,-1.964585,0.022683,0.334185,-0.022156,-24.941979,188.495206,1488.284504,-898.730410,0
0.053125,-86.808925,195.177169,-57.217207,-0.856698,6.049344,-5.108564,-1.122463,-5.700359,5.097581,0.689481,0.040913,0.317098,-0.025873,-90.352845,188.721373,1487.730082,-899.049395,0
0.054167,-151.399298,159.953884,-4.879957,0.179157,6.673155,-3.306621,-3.364817,-6.211686,3.219184,2.852335,0.113837,0.319303,-0.033307,-149.504082,188.646056,1487.932308,-898.236476,0
0.055208,-197.717692,93.406657,44.990503,1.158716,6.243826,-0.780573,-5.197361,-5.874507,0.661741,4.725793,0.161237,0.322472,0.015011,-196.079771,188.570607,1487.325199,-897.429529,0
0.056250,-185.739771,39.403101,117.463073,2.588648,5.146654,1.574853,-6.202554,-4.755516,-1.675232,5.555903,0.168530,0.330534,-0.037023,-177.177044,188.570716,1487.374137,-897.618126,0
0.057292,-138.969380,-10.055137,182.109967,3.737096,3.477044,3.747171,-6.426789,-3.125199,-3.765280,5.826259,0.150299,0.334254,-0.018440,-131.524538,188.721366,1487.387304,-896.874956,0
0.058333,-80.458367,-63.588893,201.127333,4.198728,0.871718,5.474206,-5.421596,-0.490754,-5.524624,4.714370,0.143006,0.353408,-0.025873,-74.715032,188.646083,1487.870909,-897.042214,0
0.059375,-27.156619,-140.918039,175.681732,3.748356,-1.535456,6.514588,-3.906074,1.936195,-6.547601,3.233119,0.073729,0.303180,-0.007290,-22.802897,188.570765,1488.628513,-896.473265,0
0.060417,22.789051,-184.867867,122.141467,2.689981,-3.513302,6.223281,-1.667587,3.874050,-6.058159,0.872257,0.077375,0.327915,-0.014723,25.371474,188.495220,1488.970159,-896.282370,0
0.061458,86.328531,-195.638041,57.579635,1.496495,-5.329691,5.207868,1.081229,5.756325,-5.123370,-1.797040,0.004452,0.320681,-0.025873,90.478365,188.721516,1488.875212,-896.191241,0
0.062500,151.246602,-160.438246,5.594784,0.438121,-5.982857,3.385118,3.284921,6.375105,-3.222926,-4.013204,-0.050241,0.322610,-0.033307,149.832253,188.570656,1489.460174,-896.890990,0
0.063542,197.429397,-94.654445,-44.530862,-0.552697,-5.546190,0.925654,5.159992,5.989757,-0.700758,-5.852391,-0.042949,0.330258,-0.040740,196.171517,188.570658,1489.970308,-897.176402,0
0.064583,186.174671,-40.885788,-117.282920,-1.926332,-4.555432,-1.450579,6.165185,4.900409,1.609759,-6.663462,-0.090349,0.335288,-0.022156,178.045614,188.495251,1490.124645,-897.138227,0
0.065625,140.161375,9.147955,-181.468050,-3.232411,-2.867475,-3.602090,6.416483,3.218218,3.774766,-6.971897,-0.075764,0.348241,-0.014723,132.516949,188.721487,1490.075389,-896.724616,0
0.066667,81.639062,63.492116,-201.032242,-3.570190,-0.317191,-5.399871,5.403558,0.654173,5.485607,-5.875238,-0.053887,0.341006,0.003860,75.639893,188.570597,1490.079673,-896.301782,0
0.067708,28.359914,140.304482,-175.574490,-3.153596,2.174381,-6.465222,3.918966,-1.791303,6.552678,-4.413027,-0.039302,0.331912,-0.018440,23.525109,188.570669,1489.875042,-895.618286,0
0.068750,-22.399351,184.935521,-122.094982,-2.083962,4.144888,-6.148946,1.688211,-3.777326,6.076465,-2.029318,0.008098,0.336941,0.003860,-25.020787,188.570683,1490.221551,-894.897038,0
0.069792,-85.712832,195.341600,-56.864809,-0.856698,6.012649,-5.046141,-1.052873,-5.633665,5.181360,0.613324,0.033621,0.316271,-0.055607,-89.485954,188.721335,1490.792168,-893.482016,0
0.070833,-151.139400,160.658585,-4.527559,0.190417,6.676824,-3.335752,-3.299092,-6.237623,3.170681,2.825680,0.091960,0.319027,-0.022156,-149.076266,188.570682,1490.675690,-893.729648,0
0.071875,-197.005797,93.571087,44.771773,1.136198,6.229148,-0.838834,-5.185762,-5.848570,0.732292,4.661060,0.164883,0.324264,-0.029590,-195.674472,188.495323,1490.291336,-892.394502,0
0.072917,-186.485566,39.649746,117.147130,2.566129,5.209035,1.508268,-6.163892,-4.759222,-1.569407,5.533056,0.197699,0.333979,0.011294,-177.998902,188.570678,1490.572925,-891.356591,0
0.073958,-139.760375,-9.714532,181.283653,3.827171,3.410993,3.659779,-6.376529,-3.084441,-3.685911,5.807220,0.172176,0.351962,-0.003573,-132.470237,188.721518,1489.641867,-890.959609,0
0.075000,-81.701359,-63.365738,201.382518,4.142431,0.963455,5.449236,-5.437060,-0.557449,-5.493758,4.699138,0.143006,0.347552,-0.014723,-76.313714,188.570636,1489.770805,-890.605254,0
0.076042,-28.817708,-140.260319,175.827553,3.714578,-1.491422,6.481296,-3.906074,1.884322,-6.512326,3.233119,0.106545,0.334116,-0.014723,-23.996280,188.495318,1489.157253,-890.488384,0
0.077083,22.065856,-185.055787,123.004236,2.735018,-3.472938,6.273219,-1.713981,3.833292,-6.075797,0.902720,0.077375,0.338182,-0.025873,25.067499,188.570718,1489.479136,-890.429693,0
0.078125,85.820034,-195.156496,58.102157,1.451458,-5.329691,5.212029,1.085095,5.748915,-5.141007,-1.766577,0.040913,0.322059,-0.014723,89.937966,188.721492,1489.409186,-890.203312,0
0.079167,151.438701,-161.095967,5.363902,0.438121,-6.030560,3.447541,3.292653,6.341757,-3.249382,-3.994165,0.011744,0.322472,-0.037023,149.539536,188.570754,1489.620763,-889.776299,0
0.080208,196.785301,-94.443034,-44.251374,-0.541438,-5.568207,0.921492,5.144528,5.982347,-0.718396,-5.867623,-0.053887,0.325435,-0.022156,195.833767,188.495227,1489.382825,-889.679284,0
0.081250,186.750967,-40.192833,-116.456607,-1.960110,-4.595796,-1.421449,6.172917,4.885588,1.653853,-6.716772,-0.123164,0.329500,-0.033307,178.518464,188.570749,1489.424949,-890.585088,0
0.082292,139.799778,9.652990,-180.896922,-3.232411,-2.885822,-3.643705,6.420350,3.195986,3.832088,-7.013783,-0.086703,0.365466,-0.040740,132.393108,188.645993,1489.554984,-891.243126,0
0.083333,81.017566,63.198491,-201.700584,-3.603968,-0.342877,-5.383225,5.434487,0.661583,5.516473,-5.913317,-0.083057,0.335150,0.011294,75.459760,188.570685,1490.305614,-891.450582,0
0.084375,27.953117,139.987367,-175.647400,-3.108558,2.181720,-6.452738,3.942162,-1.795008,6.539450,-4.500608,-0.024718,0.332601,-0.018440,23.817825,188.495170,1491.063335,-890.921210,0
0.085417,-22.218552,184.994246,-122.483836,-2.106481,4.177913,-6.223853,1.742336,-3.784737,6.107330,-2.086436,0.011744,0.317512,0.007577,-24.570454,188.570660,1491.906038,-890.861689,0
0.086458,-85.543333,195.200659,-57.703274,-0.822920,6.005311,-5.141856,-1.037408,-5.659602,5.172541,0.601900,0.040913,0.320888,-0.029590,-89.474696,188.646053,1491.865608,-891.321727,0
0.087500,-151.229799,160.975700,-5.402479,0.179157,6.691502,-3.369044,-3.302959,-6.274676,3.245640,2.802833,0.073729,0.320543,-0.007290,-149.357724,188.570607,1492.880923,-891.288324,0
0.088542,-197.017097,94.933508,44.516588,1.147457,6.258504,-0.842996,-5.170298,-5.926381,0.727882,4.702946,0.153945,0.327984,-0.029590,-195.573147,188.495253,1493.877895,-892.544631,0
0.089583,-186.734165,41.294047,117.122827,2.566129,5.245730,1.470814,-6.214152,-4.811095,-1.591454,5.563518,0.172176,0.338388,0.000144,-178.100227,188.570631,1494.518855,-893.621298,0
0.090625,-140.494870,-9.021576,181.283653,3.793393,3.473374,3.630648,-6.449986,-3.188189,-3.734414,5.830067,0.186760,0.351341,0.000144,-132.729179,188.572438,1495.751408,-894.093390,0
0.091667,-82.345454,-63.001642,201.528338,4.209987,0.970794,5.482529,-5.471856,-0.568565,-5.484939,4.794334,0.150299,0.346174,-0.022156,-75.874639,188.571355,1496.824078,-894.287771,0
0.092709,-28.648209,-140.225084,175.985524,3.737096,-1.531787,6.514588,-3.967932,1.917669,-6.534373,3.275005,0.113837,0.338044,-0.018440,-23.332038,188.495638,1497.440612,-894.631416,0
0.093750,22.009356,-184.867867,122.639686,2.723759,-3.516971,6.273219,-1.671453,3.881460,-6.097844,0.887489,0.084667,0.336872,-0.018440,24.988691,188.571056,1497.541505,-895.211789,0
0.094792,85.164639,-195.555826,57.616090,1.440199,-5.333361,5.220352,1.054166,5.767441,-5.176282,-1.755154,0.055498,0.316202,-0.029590,89.352533,188.571036,1498.041846,-895.252663,0
0.095833,150.873704,-161.013752,5.242385,0.404343,-6.015882,3.439218,3.319716,6.375105,-3.271429,-3.982741,-0.039302,0.318132,-0.025873,149.246820,188.571132,1498.366359,-895.162975,0
0.096875,196.830501,-94.172899,-43.886823,-0.518919,-5.593893,0.913169,5.163858,6.019399,-0.736033,-5.829544,-0.093995,0.327089,-0.040740,195.754959,188.495504,1498.628658,-894.659036,0
0.097917,186.637968,-40.098873,-116.213573,-1.948850,-4.595796,-1.408964,6.134256,4.918935,1.578893,-6.686309,-0.072118,0.352788,-0.011006,178.518464,188.495678,1498.879802,-893.473296,0
0.098958,140.183975,9.277150,-180.714647,-3.187373,-2.845458,-3.556313,6.435814,3.251565,3.783585,-7.002360,-0.108580,0.318063,0.007577,133.237482,188.571141,1499.132949,-892.763673,0
0.100000,82.000660,62.869631,-201.384640,-3.603968,-0.368564,-5.404032,5.469282,0.668994,5.463560,-5.890470,-0.046595,0.341144,-0.022156,77.080959,188.571080,1498.452764,-892.545781,0
0.101042,29.501207,139.541057,-175.914736,-3.176114,2.115669,-6.461061,3.973091,-1.739429,6.543859,-4.443490,-0.064826,0.338457,-0.040740,25.258891,188.495752,1497.706275,-892.898644,0
0.102083,-21.359757,184.818071,-123.419515,-2.151518,4.122871,-6.228015,1.742336,-3.743979,6.133787,-2.071204,0.026329,0.338733,-0.025873,-24.097604,188.571178,1497.575961,-893.269451,0
0.103125,-84.797538,195.047974,-58.517436,-0.879217,5.964946,-5.121048,-1.041275,-5.626254,5.216635,0.643787,0.040913,0.316271,-0.022156,-88.742904,188.571042,1497.302540,-893.778366,0
0.104167,-151.150700,161.515970,-5.779181,0.156639,6.658477,-3.369044,-3.283628,-6.222802,3.245640,2.825680,0.110191,0.322335,-0.022156,-148.929908,188.571053,1496.806083,-894.038186,0
0.105208,-196.452100,94.933508,44.030521,1.169976,6.210801,-0.888773,-5.181896,-5.855981,0.745520,4.683907,0.150299,0.325848,-0.033307,-195.179105,188.495756,1495.702401,-893.577339,0
0.106250,-187.027963,40.577602,116.454485,2.521092,5.234721,1.520753,-6.163892,-4.796274,-1.578225,5.548287,0.139360,0.332394,-0.003573,-178.471752,188.571082,1495.362576,-893.193807,0
0.107292,-140.291471,-9.585337,180.615311,3.759615,3.451357,3.643133,-6.430655,-3.136315,-3.730005,5.826259,0.183114,0.349068,-0.025873,-132.312621,188.495749,1494.666218,-893.157408,0
0.108333,-81.407561,-62.813722,201.953647,4.187468,1.011158,5.432590,-5.440927,-0.579681,-5.480530,4.748640,0.153945,0.311173,-0.025873,-75.424306,188.571073,1494.223690,-892.754622,0
0.109375,-27.970214,-139.485148,176.009828,3.669540,-1.561142,6.472973,-3.967932,1.869500,-6.516735,3.263582,0.124775,0.364501,-0.014723,-23.500913,188.495779,1493.836050,-891.934944,0
0.110417,22.099755,-185.419883,122.979932,2.678722,-3.461929,6.231604,-1.744910,3.859229,-6.111072,0.917951,0.106545,0.316960,-0.014723,24.774783,188.571114,1494.452362,-891.652072,0
