1-Time,2-VGERA,3-VGERB,4-VGERC,5-VN,6-IGERAN,7-IGERBN,8-IGERCN,9-IGERAT,10-IGERBT,11-IGERCT,12-IN,13-IFD,14-IFAULT,15-VFAULT,16-Speed (rad/s),17-FAULT 
0.000000,-148.414167,-62.187652,162.596653,6.140088,5.074363,-2.404083,-2.785075,-5.083433,2.560031,2.673206,-0.150358,0.571158,0.001650,-24.936211,188.495560,0
0.001042,-72.805059,-121.561667,176.695744,6.422838,4.840045,-0.354389,-4.618671,-4.785697,0.473100,4.466254,-0.194194,0.553390,-0.020755,-17.324581,188.495463,0
0.002083,6.184115,-158.606791,164.936653,6.219258,3.892120,1.158118,-5.014382,-3.936599,-1.025623,4.964957,-0.230724,0.571158,-0.013287,-8.683741,188.495459,0
0.003125,77.380990,-175.844790,114.839381,5.223978,1.999822,3.211622,-5.124085,-2.084021,-3.007805,4.991605,-0.230724,0.555219,-0.017021,4.809088,188.570785,0
0.004167,126.947717,-182.462950,35.893927,3.674508,0.082672,4.526017,-4.403184,-0.062358,-4.446096,4.416764,-0.223418,0.558420,-0.013287,14.252938,188.495535,0
0.005208,169.017052,-148.685470,-32.013345,2.328618,-1.940987,5.230838,-3.027988,1.856383,-5.147111,3.069123,-0.186888,0.562601,-0.024490,22.984258,188.495493,0
0.006250,176.911432,-98.356668,-102.083344,0.948798,-3.645120,4.941290,-0.974988,3.642798,-4.937612,1.051468,-0.157664,0.553847,-0.054364,25.845688,188.495530,0
0.007292,178.726232,-13.895208,-148.280617,0.021378,-4.603695,4.061217,0.827264,4.550708,-4.123790,-0.711125,-0.113828,0.556329,-0.020755,29.657158,188.570928,0
0.008333,148.112823,62.077485,-162.746071,-0.295302,-4.994226,2.548710,2.723546,5.002825,-2.625067,-2.587925,-0.095563,0.563188,-0.017021,29.080348,188.495477,0
0.009375,72.991442,121.333107,-177.341526,-0.634602,-4.763458,0.403770,4.576731,4.763902,-0.534106,-4.396200,-0.048074,0.565475,-0.013287,22.203868,188.495631,0
0.010417,-4.920193,159.218820,-164.506980,-0.351852,-3.808433,-1.055399,4.976361,3.896425,0.964617,-4.906324,-0.015197,0.566063,-0.050629,14.897608,188.495513,0
0.011458,-76.752249,176.575212,-114.433344,0.632118,-1.862881,-3.082234,5.035130,1.992386,2.946799,-4.932972,-0.007891,0.560706,-0.031958,-0.925082,188.570933,0
0.012500,-127.362486,182.376462,-36.267891,2.170278,0.061370,-4.427108,4.318147,-0.003546,4.437464,-4.308641,-0.048074,0.559073,-0.031958,-8.627191,188.495452,0
0.013542,-169.828808,148.883124,32.537563,3.493548,2.074378,-5.090020,2.876346,-1.970073,5.082076,-2.911511,-0.059033,0.560837,-0.043161,-18.975841,188.495595,0
0.014583,-177.303516,98.234662,102.654835,4.895988,3.799813,-4.777614,0.850772,-3.771190,4.860491,-0.871014,-0.099216,0.546139,-0.046895,-20.853301,188.496317,0
0.015625,-179.243084,12.979969,148.237562,5.812098,4.715785,-3.874681,-0.971070,-4.649694,3.974149,0.872544,-0.143052,0.537254,-0.050629,-24.370711,188.571026,0
0.016667,-147.983152,-63.134795,162.537562,6.140088,5.067262,-2.266929,-2.886942,-5.065054,2.471397,2.802640,-0.168623,0.537908,-0.028224,-24.314161,188.495598,0
0.017708,-70.672669,-121.419596,178.326653,6.456768,4.818743,-0.163897,-4.767552,-4.796724,0.356264,4.542391,-0.223418,0.554566,-0.039427,-16.691221,188.571158,0
0.018750,6.966747,-159.400023,164.180289,6.162708,3.796263,1.241935,-5.104495,-3.885138,-1.146488,5.025867,-0.230724,0.563058,-0.020755,-7.213441,188.495980,0
0.019792,77.936773,-177.336540,113.480290,5.167428,1.875562,3.333537,-5.112331,-1.955370,-3.084353,5.056322,-0.234377,0.555219,-0.028224,5.182318,188.495812,0
0.020833,127.265307,-182.190647,34.936654,3.651888,-0.020286,4.606024,-4.344415,-0.010898,-4.562932,4.363467,-0.216112,0.559334,-0.043161,13.902328,188.495673,0
0.021875,169.708944,-148.874898,-33.502436,2.283378,-2.132702,5.307035,-2.898696,1.988710,-5.203515,2.992985,-0.164970,0.561686,-0.005818,23.730718,188.571151,0
0.022917,176.525787,-97.326651,-103.005163,0.903558,-3.811983,4.914621,-0.822188,3.808207,-4.925526,0.883965,-0.172276,0.552671,-0.017021,25.777828,188.495671,0
0.023958,179.225302,-12.569208,-148.706071,-0.046482,-4.713754,4.053597,0.999653,4.675684,-4.067386,-0.909083,-0.091910,0.564495,-0.024490,29.996458,188.495765,0
0.025000,147.534356,63.060146,-162.734253,-0.317922,-5.051031,2.388697,2.903772,5.098395,-2.524346,-2.732587,-0.055380,0.562209,-0.009553,28.186858,188.495667,0
0.026042,70.359982,121.120000,-179.267889,-0.634602,-4.749257,0.247566,4.698187,4.734496,-0.340723,-4.559897,-0.062686,0.563776,-0.043161,20.552608,188.571205,0
0.027083,-5.657456,159.822623,-163.478798,-0.306612,-3.705475,-1.238272,5.070392,3.764098,1.182173,-4.993883,-0.040768,0.560575,-0.009553,14.580928,188.495658,0
0.028125,-77.103867,178.469498,-113.050617,0.666048,-1.720870,-3.249867,5.003787,1.849032,3.160326,-4.955814,-0.055380,0.556983,-0.031958,-1.151282,188.571114,0
0.029167,-127.793501,181.796337,-35.086072,2.136348,0.217582,-4.526164,4.169266,-0.165279,4.509983,-4.209662,-0.029809,0.557375,-0.017021,-8.559331,188.495734,0
0.030208,-170.838291,149.415892,34.251200,3.561408,2.258992,-5.131929,2.723546,-2.153860,5.154595,-2.774462,-0.080951,0.556983,-0.009553,-19.484791,188.646491,0
0.031250,-176.509541,96.920501,103.647563,4.941228,3.916972,-4.769994,0.623531,-3.866760,4.836318,-0.722546,-0.088257,0.552214,-0.020755,-21.034261,188.495698,0
0.032292,-180.343306,11.689487,148.663017,5.834718,4.825844,-3.813724,-1.198310,-4.782021,3.901630,1.081923,-0.124787,0.555284,-0.024490,-24.302851,188.495721,0
0.033333,-147.007697,-64.366081,162.313017,6.117468,5.088564,-2.148823,-3.098510,-5.116515,2.334417,2.954916,-0.183235,0.557309,-0.031958,-24.777871,188.495740,0
0.034375,-67.859729,-120.732917,180.631198,6.502008,4.779690,0.007546,-4.845911,-4.748940,0.207197,4.668019,-0.212459,0.527129,-0.028224,-16.544191,188.646574,0
0.035417,7.477160,-159.838076,162.880289,6.106158,3.711056,1.443856,-5.147592,-3.712378,-1.327785,5.094391,-0.212459,0.527652,-0.005818,-8.638501,188.495731,0
0.036458,77.880060,-179.230826,112.097563,5.178738,1.715800,3.470691,-5.084905,-1.789961,-3.281765,5.048709,-0.194194,0.548033,-0.039427,5.465068,188.571093,0
0.037500,127.560212,-181.267183,34.026654,3.595338,-0.201350,4.678411,-4.250384,0.180241,-4.603220,4.260681,-0.219765,0.557179,-0.031958,14.196388,188.495694,0
0.038542,170.434864,-149.573416,-35.086072,2.238138,-2.239210,5.341323,-2.753732,2.172498,-5.288120,2.836902,-0.132093,0.559857,-0.013287,22.633648,188.646563,0
0.039583,175.788524,-96.095365,-103.950617,0.926178,-3.922042,4.880333,-0.673306,3.914803,-4.949699,0.731689,-0.135746,0.554043,-0.039427,25.981408,188.495617,0
0.040625,180.257470,-11.468155,-149.155162,-0.012552,-4.798961,4.004069,1.105438,4.756550,-3.966665,-1.023290,-0.110175,0.561033,-0.043161,30.098248,188.571062,0
0.041667,146.592928,64.113842,-162.604253,-0.295302,-5.022628,2.312500,3.001720,5.105746,-2.423625,-2.854407,-0.055380,0.561033,-0.024490,28.944628,188.495669,0
0.042708,68.318332,120.741143,-181.040616,-0.691152,-4.724405,0.110412,4.835315,4.760226,-0.235973,-4.689331,-0.018850,0.563450,-0.058098,21.774088,188.571011,0
0.043750,-6.326663,160.390909,-162.497889,-0.340542,-3.662872,-1.337327,5.078227,3.716313,1.242606,-5.035759,-0.004238,0.566389,-0.046895,14.592238,188.495731,0
0.044792,-77.217292,179.819176,-111.904253,0.699978,-1.628562,-3.356543,5.023376,1.724056,3.248961,-4.944393,-0.026156,0.558354,-0.020755,-1.716782,188.571009,0
0.045833,-128.303914,181.085980,-34.093345,2.204208,0.320540,-4.537594,4.141840,-0.227767,4.546242,-4.186821,-0.026156,0.559922,-0.073035,-8.672431,188.495627,0
0.046875,-171.065141,149.652678,35.563018,3.617958,2.369051,-5.173837,2.676531,-2.253105,5.182797,-2.702131,-0.069992,0.559334,-0.031958,-18.681781,188.571069,0
0.047917,-176.169266,95.937841,104.392108,4.918608,4.005729,-4.735705,0.525583,-3.984384,4.792001,-0.619759,-0.143052,0.552606,-0.058098,-21.000331,188.495671,0
0.048958,-180.751636,10.339809,148.982108,5.823408,4.907500,-3.802294,-1.245326,-4.826130,3.837169,1.169482,-0.128440,0.540325,-0.031958,-24.732631,188.571111,0
0.050000,-146.213722,-65.088277,162.431198,6.162708,5.113416,-2.095486,-3.137690,-5.164299,2.241754,3.031054,-0.183235,0.585334,-0.039427,-24.099271,188.495622,0
0.051042,-66.317149,-120.709239,181.848471,6.547248,4.800992,0.091363,-4.908598,-4.785697,0.082304,4.778419,-0.219765,0.543722,-0.009553,-16.035241,188.646466,0
0.052083,8.373217,-160.382684,162.100289,6.140088,3.689754,1.531483,-5.206361,-3.756487,-1.428506,5.147688,-0.238030,0.547315,-0.039427,-6.930691,188.495732,0
0.053125,78.311075,-180.142451,111.211199,5.110878,1.644794,3.531649,-5.159346,-1.720122,-3.402630,5.018253,-0.252642,0.562078,-0.017021,5.634718,188.495609,0
0.054167,127.923172,-181.018558,33.258472,3.617958,-0.307859,4.739368,-4.187697,0.272135,-4.647537,4.245454,-0.205153,0.557048,-0.028224,13.834468,188.495723,0
0.055208,170.922592,-149.656291,-36.267891,2.226828,-2.352819,5.367992,-2.726306,2.264392,-5.280062,2.783606,-0.190541,0.560706,-0.035692,23.289628,188.646491,0
0.056250,175.811209,-95.195579,-104.458799,0.903558,-4.025000,4.865093,-0.563604,3.980967,-4.857036,0.659358,-0.143052,0.552606,-0.058098,25.936168,188.495633,0
0.057292,180.575060,-10.390780,-149.486071,0.021378,-4.862866,3.931682,1.222976,4.841092,-3.970694,-1.183180,-0.102869,0.542089,-0.043161,30.448858,188.495763,0
0.058333,145.810296,64.658449,-162.970617,-0.295302,-5.086533,2.194395,3.083997,5.113098,-2.306789,-2.953387,-0.055380,0.561163,-0.031958,27.915418,188.495727,0
0.059375,66.480847,120.705625,-182.222435,-0.702462,-4.727955,0.015166,4.878413,4.716117,-0.163454,-4.719786,-0.022503,0.563776,-0.020755,20.349028,188.646431,0
0.060417,-6.939159,160.959195,-161.741526,-0.306612,-3.556363,-1.413524,5.109571,3.606040,1.339297,-5.012917,-0.029809,0.570766,-0.054364,14.399968,188.495727,0
0.061458,-77.863814,180.541373,-111.076981,0.643428,-1.571758,-3.467028,5.054720,1.635838,3.301335,-4.940586,-0.029809,0.554762,-0.035692,-1.818572,188.495703,0
0.062500,-128.723586,180.671605,-33.112436,2.181588,0.398647,-4.590931,4.110497,-0.330688,4.594588,-4.091648,-0.029809,0.554762,-0.039427,-8.570641,188.495662,0
0.063542,-171.382731,150.197285,36.815745,3.595338,2.464908,-5.177647,2.578583,-2.326620,5.166681,-2.629800,-0.059033,0.554631,-0.035692,-19.269901,188.646507,0
0.064583,-175.874361,94.848626,104.983017,4.963848,4.058983,-4.747135,0.486403,-4.039520,4.759770,-0.566463,-0.121134,0.553782,-0.035692,-21.045571,188.495586,0
0.065625,-181.228021,9.534737,149.277562,5.846028,4.918151,-3.760386,-1.323684,-4.837158,3.837169,1.276075,-0.154011,0.546400,-0.035692,-24.664771,188.495674,0
0.066667,-145.170212,-65.917027,162.620289,6.106158,5.074363,-2.023099,-3.243474,-5.068730,2.197437,3.099578,-0.190541,0.508446,-0.024490,-24.562981,188.495631,0
0.067708,-64.559061,-120.555328,182.829380,6.513318,4.751288,0.156130,-4.947778,-4.704831,0.054102,4.846943,-0.245336,0.527717,-0.035692,-16.069171,188.646529,0
0.068750,8.974370,-160.868094,161.249380,6.083538,3.693305,1.584820,-5.175018,-3.664593,-1.428506,5.090584,-0.252642,0.554892,-0.046895,-8.446231,188.495693,0
0.069792,78.742090,-180.805451,110.466653,5.144808,1.602191,3.619275,-5.104495,-1.664985,-3.455005,5.060129,-0.219765,0.554631,-0.028224,5.951398,188.495716,0
0.070833,128.444927,-180.189808,32.513927,3.606648,-0.318510,4.746988,-4.207287,0.316244,-4.651566,4.199771,-0.201500,0.557962,-0.017021,14.207698,188.495758,0
0.071875,171.001989,-149.928595,-37.414254,2.181588,-2.388322,5.348943,-2.679291,2.323204,-5.255889,2.734116,-0.168623,0.561033,-0.017021,22.577098,188.646487,0
0.072917,175.300797,-94.236597,-105.203344,0.880938,-3.975296,4.830805,-0.536179,3.991994,-4.889266,0.640323,-0.135746,0.553324,-0.054364,26.071888,188.495676,0
0.073958,180.824595,-9.656744,-149.805162,-0.012552,-4.873517,3.924063,1.234730,4.815362,-3.950550,-1.118463,-0.121134,0.560510,-0.024490,30.290518,188.495662,0
0.075000,145.004978,65.534556,-162.816980,-0.306612,-5.047480,2.182965,3.142766,5.080016,-2.306789,-2.957193,-0.069992,0.558942,-0.028224,28.741048,188.495810,0
0.076042,65.437337,120.871375,-182.576980,-0.725082,-4.685352,0.064694,4.878413,4.723468,-0.139281,-4.708366,-0.040768,0.557048,-0.039427,21.513958,188.646478,0
0.077083,-7.631051,161.219659,-161.032435,-0.250062,-3.563464,-1.394475,5.097817,3.650149,1.323182,-5.039565,-0.011544,0.566063,-0.005818,14.264248,188.495667,0
0.078125,-78.351542,180.884712,-110.308799,0.711288,-1.585959,-3.444169,5.023376,1.639514,3.333566,-4.963428,-0.026156,0.557962,-0.013287,-2.270972,188.571036,0
0.079167,-129.302054,180.055962,-32.438800,2.204208,0.373795,-4.571882,4.110497,-0.308634,4.570415,-4.122104,-0.059033,0.558681,-0.024490,-8.842081,188.495725,0
0.080208,-171.450786,149.948660,37.749381,3.629268,2.429406,-5.154788,2.590336,-2.330296,5.194883,-2.694518,-0.066339,0.556787,-0.039427,-18.591301,188.721924,0
0.081250,-175.670196,94.221144,105.727563,4.963848,4.005729,-4.693797,0.502075,-4.024817,4.800058,-0.585497,-0.106522,0.553063,-0.028224,-21.079501,188.495770,0
0.082292,-181.001171,8.753345,149.608471,5.812098,4.879098,-3.764196,-1.308013,-4.807752,3.861342,1.188516,-0.172276,0.528305,-0.046895,-24.800491,188.571049,0
0.083333,-144.557717,-66.532670,162.454835,6.128778,5.088564,-2.019289,-3.216049,-5.087109,2.217581,3.031054,-0.186888,0.527652,-0.050629,-23.929621,188.495714,0
0.084375,-63.719716,-121.088096,182.853016,6.558558,4.751288,0.110412,-4.900762,-4.723209,0.046044,4.797453,-0.238030,0.552736,-0.024490,-15.741181,188.721880,0
0.085417,9.632235,-161.081201,160.587562,6.106158,3.661352,1.558151,-5.151510,-3.682972,-1.376131,5.094391,-0.219765,0.552802,-0.054364,-6.715801,188.495758,0
0.086458,79.468010,-180.852808,109.698472,5.110878,1.634143,3.615465,-5.096659,-1.690716,-3.406659,5.003026,-0.248989,0.555807,-0.013287,5.962708,188.495703,0
0.087500,128.875942,-179.929343,31.923018,3.584028,-0.325610,4.724129,-4.168108,0.305217,-4.623364,4.188350,-0.208806,0.555611,-0.031958,13.936258,188.495790,0
0.088542,171.194812,-149.561577,-38.135163,2.204208,-2.374121,5.329894,-2.706717,2.275419,-5.304235,2.737923,-0.183235,0.559465,-0.031958,23.221768,188.721920,0
0.089583,175.312139,-93.538079,-105.806072,0.903558,-4.010799,4.865093,-0.587112,3.966264,-4.869122,0.678392,-0.143052,0.554500,-0.009553,26.015338,188.495640,0
0.090625,180.484320,-8.875351,-150.065162,-0.012552,-4.820262,3.943112,1.222976,4.756550,-3.958608,-1.118463,-0.117481,0.563384,-0.017021,30.494098,188.495712,0
0.091667,144.426511,65.913413,-162.994253,-0.340542,-5.004877,2.190585,3.131012,5.072665,-2.294703,-2.934352,-0.102869,0.560314,-0.020755,27.768388,188.495731,0
0.092708,64.371142,121.297590,-182.695162,-0.713772,-4.674701,0.053264,4.823561,4.672008,-0.139281,-4.727400,-0.015197,0.562731,-0.031958,20.145448,188.721891,0
0.093750,-8.232204,161.657713,-160.311526,-0.238752,-3.556363,-1.432573,5.031212,3.613392,1.315124,-4.993883,-0.029809,0.566847,-0.039427,14.173768,188.571102,0
0.094792,-78.975379,180.896551,-109.847890,0.745218,-1.571758,-3.451789,4.995951,1.646866,3.333566,-4.929165,-0.026156,0.556264,-0.043161,-2.259662,188.495655,0
0.095833,-129.506219,179.594230,-31.871527,2.272068,0.398647,-4.549023,4.094825,-0.327012,4.554300,-4.114490,-0.055380,0.555545,-0.024490,-8.683741,188.495721,0
0.096875,-171.598238,149.913142,38.659381,3.640578,2.450707,-5.150978,2.562911,-2.396460,5.190854,-2.622187,-0.106522,0.558746,-0.073035,-19.235971,188.721809,0
0.097917,-175.545428,93.285841,106.377563,4.952538,4.041232,-4.701417,0.474650,-3.984384,4.767828,-0.581690,-0.117481,0.552214,-0.013287,-21.045571,188.571156,0
0.098958,-181.035199,8.244255,149.915744,5.857338,4.903950,-3.779435,-1.339356,-4.804076,3.821054,1.215164,-0.132093,0.549274,-0.035692,-24.721321,188.495785,0
0.100000,-143.831797,-67.053598,162.691198,6.128778,5.045961,-2.038338,-3.192541,-5.068730,2.189379,3.046281,-0.179582,0.547837,-0.020755,-24.404641,188.495727,0
0.101042,-62.608151,-121.348560,183.207562,6.581178,4.769039,0.064694,-4.916434,-4.737912,0.017843,4.816488,-0.238030,0.546073,-0.031958,-15.809041,188.646594,0
0.102083,10.199360,-161.590291,159.937562,6.083538,3.629400,1.520053,-5.159346,-3.671945,-1.396275,5.056322,-0.223418,0.557309,-0.005818,-8.208721,188.571216,0
0.103125,79.921710,-181.113272,109.249381,5.110878,1.634143,3.577367,-5.135839,-1.661310,-3.418745,5.014447,-0.256295,0.540586,-0.017021,6.290698,188.495669,0
0.104167,129.431725,-179.230826,31.332109,3.617958,-0.322060,4.705080,-4.203369,0.275811,-4.643508,4.199771,-0.219765,0.555219,-0.058098,14.388658,188.495655,0
0.105208,171.160784,-149.478702,-39.033345,2.181588,-2.391872,5.337513,-2.687127,2.319528,-5.300207,2.730309,-0.172276,0.561425,-0.009553,22.622338,188.721867,0
0.106250,174.847097,-92.898758,-106.562435,0.824388,-3.925592,4.826995,-0.555768,3.933182,-4.844949,0.659358,-0.161317,0.552214,-0.024490,26.094508,188.571064,0
0.107292,180.393580,-8.449137,-150.360617,-0.035172,-4.784760,3.939302,1.195550,4.808011,-3.982781,-1.099428,-0.113828,0.560053,-0.031958,30.267898,188.495736,0
0.108333,143.768646,66.588253,-162.864253,-0.351852,-5.026179,2.175346,3.107504,5.028556,-2.339020,-2.949580,-0.051727,0.559988,-0.031958,28.605328,188.495626,0
0.109375,63.690592,121.688286,-182.801526,-0.736392,-4.671151,0.095173,4.776546,4.705090,-0.191656,-4.685524,-0.022503,0.566716,-0.028224,21.310378,188.721873,0
0.110417,-8.822014,161.918177,-159.756071,-0.283992,-3.567014,-1.356377,5.066474,3.661177,1.258721,-4.944393,-0.022503,0.568937,-0.020755,13.958878,188.571031,0
0.111458,-79.440422,181.109658,-109.327890,0.733908,-1.585959,-3.390832,5.007705,1.679947,3.297306,-4.936779,-0.026156,0.555807,-0.002084,-2.576341,188.495807,0
0.112500,-130.084686,179.191694,-31.363345,2.260758,0.359593,-4.522354,4.086989,-0.286579,4.546242,-4.110683,-0.037115,0.556133,-0.050629,-8.977801,188.495665,0
0.113542,-171.813746,149.534285,39.333018,3.640578,2.411654,-5.128119,2.594254,-2.275160,5.162652,-2.629800,-0.091910,0.554174,-0.043161,-18.591301,188.721784,0
0.114583,-175.227838,92.800430,107.074835,5.009088,3.984428,-4.689987,0.498157,-3.929247,4.739626,-0.600725,-0.110175,0.554500,-0.035692,-21.113431,188.571013,0
0.115625,-180.706266,7.616773,150.293926,5.846028,4.871997,-3.809914,-1.268833,-4.840833,3.865371,1.180902,-0.106522,0.554304,-0.024490,-24.777871,188.495631,0
0.116667,-143.423467,-67.657402,162.490289,6.128778,5.081464,-2.065007,-3.161198,-5.076081,2.209524,2.996792,-0.186888,0.565671,-0.054364,-23.782591,188.571098,0
0.117708,-62.154451,-121.952364,183.172107,6.490698,4.729986,0.045645,-4.865501,-4.715858,0.046044,4.774612,-0.241683,0.550646,-0.035692,-15.514981,188.721911,0
0.118752,10.868567,-161.803398,159.405744,6.072228,3.682654,1.481955,-5.120167,-3.664593,-1.307641,5.052515,-0.212459,0.554958,-0.031958,-6.455671,188.571120,0
0.119792,80.579575,-181.054076,108.575744,5.099568,1.701599,3.520219,-5.092741,-1.738500,-3.370399,5.010640,-0.241683,0.555284,-0.024490,6.211528,188.495645,0
0.120833,129.840055,-179.065076,30.741200,3.538788,-0.240404,4.678411,-4.199451,0.275811,-4.603220,4.237840,-0.216112,0.557505,-0.024490,14.105908,188.571232,0
0.121875,171.410319,-149.111684,-39.612436,2.170278,-2.335068,5.295605,-2.683209,2.260716,-5.243803,2.772185,-0.164970,0.560314,-0.020755,23.267008,188.646514,0
0.122917,174.847097,-92.389669,-106.999708,0.801768,-3.929143,4.853664,-0.598866,3.907452,-4.832863,0.724075,-0.172276,0.552083,-0.050629,26.060578,188.571084,0
0.123958,180.019277,-7.774298,-150.691526,-0.057792,-4.774109,3.924063,1.144617,4.760226,-3.938464,-1.046132,-0.124787,0.557309,-0.039427,30.460168,188.495703,0
0.125000,143.144808,67.014467,-162.982435,-0.329232,-5.019078,2.171536,3.048735,5.050610,-2.334991,-2.896283,-0.073645,0.555676,-0.017021,27.598738,188.571038,0
0.126042,62.941987,122.090822,-182.777889,-0.702462,-4.653399,0.118032,4.776546,4.686711,-0.187627,-4.685524,-0.029809,0.562339,-0.009553,20.009728,188.646580,0
0.127083,-9.207659,162.225998,-159.236071,-0.250062,-3.598967,-1.348757,5.003787,3.635446,1.238577,-4.929165,-0.018850,0.564756,-0.009553,13.958878,188.571113,0
