1-Time,2-VGERA,3-VGERB,4-VGERC,5-VN,6-IGERAN,7-IGERBN,8-IGERCN,9-IGERAT,10-IGERBT,11-IGERCT,12-IN,13-IFD,14-IFAULT,15-VFAULT,16-Speed (rad/s),17-Active Power,18-Reactive Power,19-FAULT 
0.000000,-130.169720,189.765703,-31.319490,2.373858,2.186396,-7.602997,4.235842,-1.989152,6.877087,-4.479601,-0.037115,0.595655,-0.043161,-82.266600,188.495660,1634.718739,878.984606,0
0.001042,-168.617220,162.586073,45.399942,3.844158,4.557304,-7.534974,2.011937,-4.245059,6.950212,-2.216575,-0.106522,0.593957,-0.054364,-111.231509,188.571053,1635.658424,878.706031,0
0.002083,-183.973470,87.571259,104.426304,4.884678,6.370352,-6.276544,-0.796214,-5.952527,5.833025,0.635300,-0.161317,0.588143,-0.031958,-127.393499,188.571031,1637.562815,878.989108,0
0.003125,-184.348845,8.475889,151.286360,5.789478,7.210913,-4.520693,-2.861807,-6.745934,4.273025,2.921418,-0.179582,0.590168,-0.005818,-128.015549,188.571058,1639.020690,878.621355,0
0.004167,-139.497220,-62.927815,181.640301,6.388908,6.833980,-1.799763,-4.904784,-6.409559,1.977712,4.953524,-0.227071,0.599183,-0.050629,-103.257959,188.495627,1642.558714,878.644293,0
0.005208,-59.394470,-116.167629,199.778482,6.671658,5.646641,0.976436,-6.084584,-5.385809,-0.675100,6.331352,-0.256295,0.610614,-0.028224,-50.112270,188.646495,1644.748670,878.732284,0
0.006250,8.002405,-166.831518,167.285545,6.196638,3.630049,3.306233,-6.212741,-3.579621,-2.690100,6.400629,-0.281866,0.621981,-0.035692,-0.031592,188.571098,1647.620337,879.655425,0
0.007292,78.334030,-187.318555,118.620326,5.156118,0.912362,5.227889,-5.251562,-0.983684,-4.554788,5.523129,-0.263601,0.605258,-0.031958,51.598557,188.571071,1649.869018,879.476240,0
0.008333,130.488405,-189.737999,32.726708,3.516168,-1.714861,6.112192,-3.510132,1.524504,-5.318538,3.764280,-0.219765,0.600228,-0.039427,87.372087,188.495671,1652.558221,879.495573,0
0.009375,168.879030,-162.486148,-44.499654,2.045868,-4.025460,6.010157,-1.263611,3.762129,-5.391663,1.512800,-0.172276,0.599052,0.001650,115.488746,188.571098,1654.515701,879.571021,0
0.010417,184.212530,-87.651889,-103.958760,0.914868,-5.895048,4.679452,1.529463,5.425723,-4.201350,-1.431443,-0.106522,0.585726,-0.043161,132.815666,188.571062,1656.155433,877.887631,0
0.011458,184.212530,-8.556518,-151.177376,-0.023862,-6.577297,2.949110,3.572440,6.281285,-2.706350,-3.652134,-0.066339,0.574490,-0.031958,133.279376,188.571138,1658.638249,876.547867,0
0.012500,139.531530,63.292555,-181.580774,-0.578052,-6.219210,0.300455,5.547568,5.868129,-0.350100,-5.591871,-0.007891,0.602057,-0.035692,105.943106,188.495600,1660.494812,875.698636,0
0.013542,59.303655,116.412000,-199.793139,-0.906042,-5.111027,-2.467241,6.704753,4.822441,2.229587,-6.973548,-0.022503,0.606891,-0.046895,55.229067,188.571199,1660.717488,874.176695,0
0.014583,-8.775720,166.690703,-167.052920,-0.363162,-3.083128,-4.767278,6.810294,2.961410,4.224275,-7.019733,0.003068,0.615579,-0.024490,4.175728,188.571120,1660.608832,873.170552,0
0.015625,-78.788845,187.779592,-117.274929,0.609498,-0.406903,-6.718695,5.898116,0.449566,6.064587,-6.184568,-0.004238,0.594544,-0.043161,-47.759791,188.571100,1659.646615,872.333503,0
0.016667,-130.078720,190.018481,-30.923838,2.283378,2.212781,-7.539225,4.190610,-1.978184,6.787712,-4.441114,-0.048074,0.591148,-0.009553,-82.221360,188.495709,1658.405997,871.762160,0
0.017708,-168.526220,162.453666,45.931600,3.776298,4.549766,-7.441442,1.993090,-4.241402,6.897400,-2.139601,-0.088257,0.583374,-0.054364,-110.100509,188.571196,1657.910894,870.649674,0
0.018750,-183.802845,86.283296,104.475760,4.862058,6.355275,-6.225526,-0.837677,-5.857465,5.780212,0.723820,-0.168623,0.575143,-0.046895,-127.970309,188.571140,1656.607612,869.434003,0
0.019792,-184.155470,6.995333,151.051441,5.755548,7.120449,-4.499436,-2.895731,-6.643559,4.268962,2.898326,-0.208806,0.535033,-0.054364,-127.314329,188.571125,1654.827156,869.451361,0
0.020833,-138.746470,-64.119481,181.083916,6.321048,6.784978,-1.799763,-4.901014,-6.299871,1.937087,4.872701,-0.238030,0.559596,-0.031958,-101.437049,188.495685,1652.555380,868.651356,0
0.021875,-57.233220,-116.348185,200.124677,6.716898,5.620255,0.972185,-6.058199,-5.312684,-0.679163,6.315958,-0.263601,0.610353,-0.028224,-48.913410,188.571187,1651.559899,868.424226,0
0.022917,10.254655,-166.458370,167.198996,6.162708,3.599894,3.310484,-6.205203,-3.491871,-2.677913,6.323655,-0.274560,0.598399,-0.009553,0.262468,188.495716,1650.103937,867.630044,0
0.023958,79.050655,-187.727814,117.557011,5.167428,0.916131,5.257650,-5.232715,-0.888621,-4.546663,5.503885,-0.245336,0.591736,-0.002084,51.836067,188.571087,1650.035842,867.019643,0
0.025000,129.840030,-189.882444,31.292469,3.516168,-1.741246,6.073929,-3.528978,1.528160,-5.294163,3.718096,-0.234377,0.597353,-0.050629,88.129857,188.495678,1649.284122,866.592709,0
0.026042,168.571905,-162.209296,-45.266230,2.102418,-4.036768,5.967642,-1.267380,3.816973,-5.395725,1.420432,-0.164970,0.595786,-0.031958,115.025036,188.571129,1649.863135,865.526176,0
0.027083,184.030530,-86.688926,-104.255499,1.005348,-5.913895,4.755978,1.529463,5.440348,-4.274475,-1.446838,-0.150358,0.591931,-0.050629,132.759116,188.495709,1650.193484,866.458803,0
0.028125,184.178405,-8.075037,-151.325746,0.066618,-6.656453,3.025637,3.610133,6.284941,-2.759163,-3.690621,-0.077298,0.584680,-0.024490,132.374576,188.571136,1650.592178,867.058819,0
0.029167,139.122030,63.412926,-181.902242,-0.544122,-6.283289,0.296203,5.619186,5.890066,-0.346038,-5.664996,-0.040768,0.607936,-0.028224,106.565156,188.495683,1651.594491,867.188518,0
0.030208,59.201280,116.628666,-199.694226,-0.849492,-5.148721,-2.526762,6.798986,4.855348,2.286462,-7.035127,-0.000585,0.605976,-0.061832,55.862427,188.571156,1652.855778,867.255039,0
0.031250,-8.252470,167.449036,-167.052920,-0.306612,-3.098205,-4.848055,6.870603,2.939473,4.313650,-7.112101,0.043251,0.610484,-0.009553,4.560268,188.495758,1655.030577,867.164777,0
0.032292,-78.493095,187.502740,-118.264059,0.677358,-0.437058,-6.803724,5.950887,0.405691,6.162087,-6.246147,-0.007891,0.605780,-0.039427,-47.680621,188.571103,1657.121575,866.815233,0
0.033333,-130.658845,189.958296,-32.259164,2.238138,2.261782,-7.637009,4.152916,-2.084215,6.905525,-4.425720,-0.029809,0.598595,-0.043161,-82.391010,188.495691,1659.729454,865.965758,0
0.034375,-168.776470,162.790703,45.016654,3.719748,4.625152,-7.475453,1.913934,-4.314527,6.954275,-2.124207,-0.117481,0.598660,-0.028224,-111.288059,188.571147,1661.384944,865.587140,0
0.035417,-184.815220,87.342555,104.018287,4.862058,6.438200,-6.191514,-0.928141,-5.915965,5.776150,0.758458,-0.157664,0.583701,-0.024490,-128.072099,188.495752,1662.952377,864.973241,0
0.036458,-184.235095,8.909222,151.397637,5.789478,7.143065,-4.452670,-2.952271,-6.738621,4.273025,3.025333,-0.201500,0.590494,-0.028224,-127.845899,188.571094,1665.762437,864.096546,0
0.037500,-138.939845,-62.614852,182.233780,6.388908,6.769901,-1.731740,-4.946246,-6.318152,1.876150,4.965070,-0.263601,0.563515,-0.020755,-102.545429,188.495783,1667.795168,863.004485,0
0.038542,-58.859845,-116.035222,199.741389,6.660348,5.552407,1.014699,-6.103431,-5.327309,-0.695413,6.304412,-0.300131,0.610027,-0.031958,-49.049130,188.571192,1668.175974,862.414652,0
0.039583,9.105780,-167.048185,167.248453,6.094848,3.501892,3.340244,-6.114739,-3.429715,-2.763225,6.381385,-0.274560,0.606956,-0.046895,1.732768,188.495707,1670.070530,861.360263,0
0.040625,78.823155,-187.005592,117.519918,5.201358,0.885977,5.176872,-5.172406,-0.921527,-4.489788,5.469247,-0.230724,0.597811,-0.050629,52.175367,188.571103,1668.748250,861.196770,0
0.041667,130.067530,-190.279666,30.971001,3.470928,-1.756324,6.048420,-3.408360,1.568379,-5.286038,3.629576,-0.183235,0.589188,-0.009553,87.089337,188.495720,1668.868521,860.011855,0
0.042708,168.060030,-161.992629,-45.983350,1.989318,-4.051846,5.937882,-1.214610,3.795035,-5.359163,1.408885,-0.175929,0.588861,-0.039427,115.081586,188.495709,1668.023762,859.836587,0
0.043750,184.610655,-85.653740,-103.946396,0.948798,-5.906356,4.704961,1.589772,5.498848,-4.270413,-1.493022,-0.099216,0.553455,-0.061832,133.154966,188.495689,1668.851212,859.551409,0
0.044792,183.825780,-6.618556,-150.732267,0.021378,-6.618759,2.927853,3.606364,6.241066,-2.734788,-3.667529,-0.048074,0.587032,-0.039427,133.222826,188.495662,1667.543058,859.458065,0
0.045833,138.314405,64.327741,-181.766236,-0.555432,-6.238057,0.215426,5.600339,5.838879,-0.301350,-5.661147,-0.022503,0.607348,-0.054364,105.705596,188.495600,1666.818384,858.926383,0
0.046875,57.142405,116.712925,-199.879688,-0.849492,-5.073334,-2.484247,6.765062,4.840723,2.241775,-7.012035,0.021333,0.571550,-0.035692,54.889767,188.495649,1665.567456,859.705161,0
0.047917,-10.163470,166.943481,-167.201290,-0.295302,-3.060512,-4.839552,6.844218,2.943129,4.285212,-7.058220,0.017680,0.577233,-0.046895,4.085248,188.495624,1664.290116,860.059881,0
0.048958,-79.118720,187.815703,-117.151288,0.677358,-0.357902,-6.714443,5.890578,0.413004,6.109275,-6.215358,-0.029809,0.602122,-0.017021,-47.465731,188.571080,1663.076801,860.445770,0
0.050000,-130.135595,190.054592,-30.886746,2.396478,2.224089,-7.577488,4.171763,-2.007434,6.852712,-4.464206,-0.059033,0.594544,-0.061832,-82.266600,188.495682,1661.538130,861.604869,0
0.051042,-168.719595,162.333296,45.573040,3.776298,4.557304,-7.509465,1.970474,-4.292590,6.946150,-2.108812,-0.088257,0.592715,-0.039427,-110.564219,188.495747,1661.008682,861.700297,0
0.052083,-184.098595,86.957370,104.413939,4.895988,6.404276,-6.259538,-0.799983,-5.937902,5.808650,0.673787,-0.124787,0.591997,-0.043161,-128.219129,188.495667,1660.534112,863.028348,0
0.053125,-184.223720,8.415704,151.459458,5.800788,7.135526,-4.567459,-2.876884,-6.720340,4.301462,2.913721,-0.168623,0.589057,-0.050629,-127.370879,188.571004,1659.155027,864.234751,0
0.054167,-139.440345,-62.988000,181.417747,6.400218,6.769901,-1.782757,-4.889706,-6.354715,1.949275,4.880399,-0.234377,0.585007,-0.046895,-101.878139,188.495658,1658.076407,865.481244,0
0.055208,-58.973595,-116.155592,199.778482,6.728208,5.624025,0.955179,-6.061968,-5.312684,-0.638538,6.323655,-0.267254,0.585791,-0.046895,-50.010480,188.495729,1657.863664,865.913694,0
0.056250,8.207155,-166.602814,167.273181,6.117468,3.592356,3.284975,-6.171279,-3.532090,-2.673850,6.373688,-0.285519,0.613815,-0.061832,-0.970322,188.495712,1656.887368,867.105665,0
0.057292,78.129280,-187.595407,118.422500,5.178738,0.953825,5.172621,-5.217638,-0.969059,-4.518225,5.550070,-0.241683,0.606303,-0.028224,51.236637,188.495702,1658.114358,868.048661,0
0.058333,130.374655,-189.509296,32.578338,3.504858,-1.654552,6.052671,-3.513901,1.469660,-5.277913,3.787372,-0.208806,0.604670,-0.024490,88.175097,188.495687,1657.730240,870.221405,0
0.059375,169.061030,-162.582444,-44.425469,2.068488,-4.051846,5.976145,-1.293766,3.740191,-5.375413,1.451221,-0.172276,0.595328,-0.046895,115.047656,188.495703,1657.833060,870.717499,0
0.060417,183.848530,-87.627814,-104.119494,0.880938,-5.849816,4.641189,1.525693,5.418410,-4.201350,-1.392957,-0.113828,0.587685,-0.043161,132.465056,188.495682,1656.210720,870.460154,0
0.061458,184.326280,-8.688926,-151.226833,-0.012552,-6.558450,2.974619,3.557362,6.219129,-2.730725,-3.613647,-0.051727,0.594610,-0.031958,132.306716,188.495703,1656.173460,870.204111,0
0.062500,139.451905,63.461074,-181.568410,-0.555432,-6.241826,0.274946,5.517414,5.842535,-0.411038,-5.584174,-0.011544,0.606107,-0.043161,106.214546,188.495633,1655.332665,871.190326,0
0.063542,59.019280,116.592555,-199.929145,-0.872112,-5.077103,-2.441733,6.716061,4.822441,2.188962,-6.981246,0.014027,0.614861,-0.046895,54.923697,188.495801,1655.083098,870.903257,0
0.064583,-8.787095,166.967555,-167.090013,-0.340542,-3.052973,-4.767278,6.787678,2.976035,4.240525,-6.962002,0.021333,0.594153,-0.043161,3.644158,188.495703,1653.845927,870.435801,0
0.065625,-78.822970,187.659222,-117.237837,0.609498,-0.399365,-6.654923,5.890578,0.471504,6.032087,-6.153779,0.006721,0.593499,-0.009553,-48.325290,188.420307,1652.209920,870.368072,0
0.066667,-130.260720,189.874036,-30.540550,2.294688,2.197704,-7.496711,4.141608,-1.959902,6.747087,-4.418022,-0.029809,0.587751,-0.065566,-82.300530,188.495658,1650.323230,869.981948,0
0.067708,-168.514845,162.345333,46.067605,3.753678,4.500764,-7.424436,1.940320,-4.182902,6.836462,-2.135753,-0.059033,0.584092,-0.039427,-110.948759,188.420224,1647.937879,870.063140,0
0.068750,-184.030345,86.379592,104.426304,4.839438,6.355275,-6.229778,-0.841446,-5.798965,5.768025,0.689182,-0.157664,0.562535,-0.031958,-127.416119,188.495689,1645.966351,869.559089,0
0.069792,-184.200970,6.826815,150.927800,5.766858,7.097833,-4.499436,-2.831652,-6.621621,4.256775,2.871385,-0.183235,0.556787,-0.046895,-127.879829,188.420292,1643.971355,869.167694,0
0.070833,-138.530345,-64.119481,181.232285,6.377598,6.739746,-1.821020,-4.848244,-6.321809,1.973650,4.841912,-0.238030,0.564364,-0.035692,-102.613289,188.495731,1642.664387,869.749029,0
0.071875,-57.369720,-116.179666,199.815574,6.671658,5.578793,0.916916,-6.005428,-5.327309,-0.634475,6.250530,-0.289172,0.591278,-0.028224,-48.890790,188.420292,1641.332547,870.195737,0
0.072917,10.129530,-166.494481,167.137176,6.117468,3.637588,3.246712,-6.114739,-3.462621,-2.612913,6.346747,-0.281866,0.611660,-0.039427,1.246438,188.495709,1639.962410,870.188801,0
0.073958,79.096155,-187.318555,117.470462,5.167428,0.972671,5.100346,-5.187483,-0.976371,-4.441038,5.457701,-0.227071,0.604735,-0.043161,52.050957,188.420432,1637.878962,869.954927,0
0.075000,129.953780,-189.725962,31.403746,3.550098,-1.631936,5.967642,-3.510132,1.444066,-5.237288,3.725793,-0.205153,0.597288,-0.020755,87.292917,188.495759,1636.773236,869.529701,0
0.076042,168.435405,-162.088925,-45.192045,2.125038,-3.938766,5.916625,-1.346536,3.696316,-5.367288,1.497405,-0.175929,0.592715,-0.069301,115.533986,188.420291,1635.689057,870.357081,0
0.077083,183.439030,-87.206518,-104.342048,0.971418,-5.808353,4.730469,1.423921,5.363566,-4.274475,-1.300588,-0.091910,0.580957,-0.076769,132.453746,188.495660,1634.578601,872.169683,0
0.078125,184.132905,-7.978741,-150.991914,-0.023862,-6.588605,3.089408,3.478206,6.149660,-2.742913,-3.540522,-0.077298,0.593107,-0.065566,133.437716,188.420209,1632.836133,872.624144,0
0.079167,139.827280,63.605518,-180.752377,-0.544122,-6.260673,0.389735,5.464643,5.857160,-0.427288,-5.476410,-0.018850,0.595590,-0.080503,106.429436,188.495685,1631.481518,873.011421,0
0.080208,59.519780,116.580518,-199.471672,-0.872112,-5.133643,-2.339698,6.685906,4.873629,2.099587,-6.935062,0.014027,0.611529,-0.069301,56.179107,188.495673,1630.428881,874.121917,0
0.081250,-7.717845,166.425888,-167.102377,-0.250062,-3.169822,-4.665243,6.780139,3.049160,4.130837,-7.027430,-0.026156,0.623614,-0.039427,5.940088,188.495653,1629.999060,875.484912,0
0.082292,-77.992595,187.887925,-118.165146,0.609498,-0.501137,-6.569894,5.935809,0.570223,5.975212,-6.226904,0.003068,0.591278,-0.069301,-47.002021,188.420305,1629.801911,876.867785,0
0.083333,-130.158345,189.079592,-32.766094,2.249448,2.028084,-7.462699,4.247150,-1.890434,6.795837,-4.483450,-0.022503,0.603559,-0.076769,-82.289220,188.495636,1630.202244,877.551352,0
0.084375,-169.561345,162.742555,44.188257,3.731058,4.414070,-7.449945,2.072246,-4.091496,6.950212,-2.301246,-0.084604,0.598595,-0.043161,-110.666009,188.420336,1630.511420,880.339278,0
0.085417,-182.733595,88.678666,104.834320,4.884678,6.181886,-6.217023,-0.713289,-5.707559,5.784275,0.577570,-0.179582,0.583570,-0.084238,-127.144679,188.495759,1629.100408,881.041487,0
0.086458,-184.485345,9.041630,151.311088,5.766858,6.977214,-4.618477,-2.737419,-6.577746,4.338025,2.775168,-0.212459,0.603886,-0.050629,-127.676249,188.420359,1628.422146,881.916336,0
0.087500,-140.623345,-63.313000,179.884595,6.298428,6.649282,-1.969821,-4.652239,-6.310840,2.071150,4.634083,-0.259948,0.601012,-0.073035,-102.093029,188.495714,1625.944386,882.604479,0
0.088542,-59.314845,-116.275963,199.679569,6.716898,5.624025,0.789372,-5.903656,-5.330965,-0.508538,6.150464,-0.256295,0.606891,-0.039427,-49.264020,188.420242,1624.362689,883.146780,0
0.089583,8.457405,-165.627814,167.087719,6.072228,3.701666,3.025637,-5.990351,-3.572309,-2.470725,6.235135,-0.281866,0.612509,-0.050629,-0.336962,188.495676,1621.810482,883.651708,0
0.090625,78.334030,-187.932444,117.458098,5.088258,1.074443,4.977054,-5.168637,-1.049496,-4.311038,5.480793,-0.252642,0.597157,-0.058098,51.790827,188.420242,1620.292536,884.652332,0
0.091667,129.760405,-188.835221,31.613936,3.448308,-1.496240,5.823093,-3.536517,1.305129,-5.107288,3.775826,-0.194194,0.591801,-0.069301,87.926277,188.495752,1617.439113,885.707477,0
0.092708,169.072405,-161.944481,-45.241502,2.034558,-3.825686,5.920876,-1.406845,3.604910,-5.261663,1.616714,-0.150358,0.586379,-0.073035,114.753596,188.420347,1615.286253,886.943287,0
0.093750,182.130905,-87.543555,-105.009711,0.926178,-5.638733,4.721966,1.363612,5.268504,-4.205413,-1.212068,-0.110175,0.544310,-0.035692,131.006066,188.495727,1612.882093,887.028588,0
0.094804,183.564155,-5.282444,-151.511208,0.066618,-6.441601,3.055397,3.410358,6.120410,-2.734788,-3.475095,-0.066339,0.565410,-0.061832,131.662046,188.420303,1611.205727,888.260532,0
0.095841,138.689780,65.856444,-180.665828,-0.487572,-6.166440,0.402490,5.359102,5.795004,-0.463850,-5.395588,-0.004238,0.595786,-0.028224,105.660356,188.495693,1608.969688,889.300171,0
0.096875,57.824905,116.989777,-199.780775,-0.883422,-5.133643,-2.301435,6.599212,4.884598,2.014275,-6.811904,0.010374,0.575470,-0.039427,54.923697,188.420267,1606.502080,890.539719,0
0.097917,-9.833595,166.112925,-166.694360,-0.329232,-3.177361,-4.524945,6.757523,3.045504,4.041462,-6.931213,0.032292,0.577429,-0.058098,4.650748,188.495702,1603.905272,891.008679,0
0.098958,-79.016345,188.056444,-117.274929,0.722598,-0.584062,-6.527379,5.905655,0.599473,5.885837,-6.180720,-0.022503,0.594740,-0.039427,-48.076470,188.420341,1602.046000,891.576746,0
0.100000,-129.976345,189.019407,-31.628594,2.317308,2.024314,-7.407430,4.284843,-1.758809,6.751150,-4.491147,-0.033462,0.595198,-0.065566,-82.300530,188.495678,1600.096943,892.870991,0
0.101042,-169.254220,162.176814,45.115567,3.866778,4.319836,-7.437190,2.128786,-4.069559,6.808025,-2.332035,-0.095563,0.591148,-0.043161,-111.491639,188.344858,1598.073129,892.541338,0
0.102083,-182.335470,88.558296,105.304157,4.963848,6.166808,-6.276544,-0.585131,-5.696590,5.828962,0.431320,-0.157664,0.590690,-0.043161,-126.183329,188.495702,1597.074018,894.642035,0
0.103125,-184.576345,8.415704,151.125626,5.834718,7.029985,-4.648237,-2.650724,-6.581402,4.427400,2.690497,-0.190541,0.594544,-0.046895,-128.117339,188.420377,1596.228505,896.451725,0
0.104167,-140.657470,-63.625963,179.711497,6.400218,6.724669,-2.029342,-4.610776,-6.314496,2.115837,4.680267,-0.259948,0.599183,-0.061832,-103.947869,188.495698,1596.577665,896.951350,0
0.105211,-59.428595,-116.757444,199.333373,6.694278,5.650410,0.738355,-5.899887,-5.360215,-0.419163,6.158162,-0.234377,0.603494,-0.050629,-49.965240,188.420307,1596.033503,898.231255,0
0.106250,7.956905,-165.928740,166.926986,6.174018,3.746898,2.961865,-6.012967,-3.656402,-2.401663,6.200497,-0.296478,0.612182,-0.031958,-0.563162,188.495727,1595.019242,899.309398,0
0.107292,78.106530,-187.462999,118.224674,5.223978,1.172446,4.968551,-5.225177,-1.181121,-4.286663,5.488491,-0.241683,0.605258,-0.050629,51.575937,188.420282,1594.303402,900.487006,0
0.108333,130.374655,-188.425962,33.072904,3.516168,-1.394468,5.831596,-3.589288,1.213723,-5.115413,3.848951,-0.248989,0.600358,-0.039427,87.564357,188.495691,1594.095473,901.863299,0
0.109375,169.823155,-162.221333,-43.794899,2.023248,-3.701298,5.899619,-1.470924,3.455004,-5.294163,1.701385,-0.164970,0.601404,-0.043161,115.726256,188.344934,1593.023529,903.412960,0
0.110422,182.130905,-88.626889,-105.454820,0.858318,-5.570886,4.670949,1.235455,5.199035,-4.221663,-1.142792,-0.069992,0.584811,-0.046895,131.481086,188.420392,1592.207063,904.234684,0
