1-Time,2-VGERA,3-VGERB,4-VGERC,5-VN,6-IGERAN,7-IGERBN,8-IGERCN,9-IGERAT,10-IGERBT,11-IGERCT,12-IN,13-IFD,14-IFAULT,15-VFAULT,16-Speed (rad/s),17-Active Power,18-Reactive Power,19-FAULT 
0.000000,163.676520,-162.082548,-21.065984,-0.158622,-4.981147,4.691751,0.639627,4.869718,-4.799518,-0.563728,-0.112733,0.463924,-0.078573,-159.231275,188.646889,1532.511436,35.109476,0
0.001042,184.705681,-96.557136,-77.182404,-1.273292,-5.527899,2.949913,2.800826,5.359363,-3.070476,-2.668185,-0.061686,0.464131,-0.063706,-182.997598,188.571580,1533.500159,35.599780,0
0.002083,189.033552,-23.244783,-135.947888,-2.376704,-5.498543,1.208074,4.254242,5.392006,-1.286477,-4.314658,-0.047102,0.470607,-0.097156,-181.241300,188.496170,1532.765279,35.437687,0
0.003125,145.461040,41.235322,-174.748176,-3.086040,-4.500446,-0.936037,5.287530,4.459867,0.793446,-5.241981,-0.014286,0.476326,-0.071140,-136.061643,188.722355,1532.674994,35.512411,0
0.004167,71.118831,91.280810,-200.351748,-3.547671,-2.761116,-3.216921,5.586540,2.853106,3.127019,-5.707536,-0.010640,0.484939,-0.082290,-64.323598,188.571569,1532.597831,36.063169,0
0.005208,9.635938,149.547805,-171.758865,-3.063521,-0.757584,-4.564533,4.886327,0.970693,4.416402,-4.927827,-0.010640,0.457034,-0.100873,-4.384278,188.571556,1532.214655,36.732813,0
0.006250,-52.852649,187.331503,-122.508139,-2.117740,1.462447,-5.433441,3.512394,-1.205507,5.380269,-3.610649,-0.036163,0.447939,-0.071140,55.915309,188.496129,1531.210409,37.353422,0
0.007292,-108.888979,188.365064,-44.664530,-0.552697,3.447632,-5.348964,1.510162,-3.120563,5.316857,-1.612171,-0.098148,0.461857,-0.063706,111.869182,188.722348,1530.825886,38.191967,0
0.008333,-163.535418,161.574696,21.707900,0.742122,4.944777,-4.725442,-0.450436,-4.574990,4.725009,0.427941,-0.149195,0.466749,-0.089723,159.795870,188.571567,1530.563494,38.513336,0
0.009375,-184.361180,96.648280,77.714955,1.845534,5.531893,-2.927285,-2.683549,-5.064635,3.080516,2.536183,-0.203887,0.468885,-0.112023,183.078085,188.571554,1530.437866,39.743824,0
0.010417,-188.824651,24.428213,136.687018,2.903908,5.513545,-1.209582,-4.083976,-5.191580,1.355702,4.152376,-0.211179,0.478393,-0.086006,181.727086,188.496156,1531.011707,40.562757,0
0.011458,-145.952734,-40.568673,175.001239,3.647022,4.478754,0.934529,-5.090769,-4.223171,-0.766496,5.060775,-0.236703,0.472743,-0.082290,137.087829,188.722319,1531.494439,41.291463,0
0.012500,-72.085122,-91.401077,200.458991,4.164950,2.809144,3.251617,-5.416274,-2.594648,-3.116979,5.583104,-0.225764,0.481356,-0.059989,65.496143,188.496033,1531.734957,41.383717,0
0.013542,-10.342330,-149.715052,171.829653,3.613244,0.761578,4.595206,-4.644147,-0.690473,-4.368315,4.810965,-0.222118,0.477566,-0.063706,4.993906,188.571527,1531.248562,42.208539,0
0.014583,53.072851,-187.639689,122.797657,2.678722,-1.454784,5.444000,-3.304279,1.496608,-5.404049,3.490002,-0.214826,0.467851,-0.067423,-55.834822,188.496150,1530.932620,43.038032,0
0.015625,109.402979,-188.591035,44.237100,1.158716,-3.506019,5.415841,-1.336111,3.415291,-5.315272,1.465030,-0.167425,0.459514,-0.100873,-111.563528,188.646902,1530.681431,43.135372,0
0.016667,163.371422,-161.530532,-22.706460,-0.181140,-4.959130,4.752092,0.639627,4.891480,-4.748788,-0.541018,-0.079917,0.458136,-0.086006,-159.028625,188.496145,1530.197869,43.565861,0
0.017708,184.490982,-94.748405,-77.899352,-1.250774,-5.593949,2.982094,2.865170,5.399260,-3.040884,-2.675755,-0.047102,0.464269,-0.112023,-182.907532,188.571527,1530.193541,43.873597,0
0.018750,188.807554,-22.634043,-136.190922,-2.354185,-5.542576,1.204051,4.284522,5.460919,-1.307614,-4.299518,-0.025225,0.473226,-0.082290,-181.072425,188.496074,1530.806388,44.748011,0
0.019792,145.031643,41.023912,-175.307153,-3.142336,-4.548149,-0.988333,5.321595,4.514272,0.789219,-5.276046,-0.021578,0.471296,-0.093440,-136.320584,188.646940,1531.715555,45.152992,0
0.020833,72.192324,91.433495,-200.133018,-3.615227,-2.834505,-3.233012,5.628175,2.900257,3.152384,-5.779451,-0.006994,0.473363,-0.056273,-66.034864,188.496020,1533.114752,45.204087,0
0.021875,11.206627,150.510896,-171.248494,-3.074780,-0.768592,-4.632919,4.890112,0.974320,4.454449,-4.965677,-0.036163,0.456758,-0.082290,-5.206136,188.496082,1534.073905,44.955013,0
0.022917,-52.547551,186.955662,-123.261543,-2.140259,1.462447,-5.461600,3.466975,-1.227269,5.443681,-3.648498,-0.090856,0.471434,-0.086006,56.140475,188.496147,1535.176882,44.588398,0
0.023958,-109.860773,188.400299,-44.603772,-0.608994,3.568725,-5.405282,1.434464,-3.174968,5.392951,-1.619741,-0.083563,0.462133,-0.052556,112.612231,188.571630,1536.678616,44.654311,0
0.025000,-163.117321,161.586441,23.178253,0.697085,5.010827,-4.705328,-0.526134,-4.669292,4.775738,0.473361,-0.160133,0.461857,-0.086006,159.210437,188.496150,1538.108701,44.383199,0
0.026042,-185.400773,94.369748,78.055202,1.777978,5.583265,-2.903148,-2.755463,-5.133548,3.004422,2.691368,-0.178364,0.461099,-0.089723,184.305243,188.496094,1539.211689,42.746193,0
0.027083,-188.598652,21.879546,136.492591,2.948945,5.531893,-1.161310,-4.163460,-5.169818,1.296517,4.239431,-0.222118,0.453382,-0.078573,181.074103,188.496141,1539.307448,42.166211,0
0.028125,-143.771848,-41.672704,176.216406,3.714578,4.522788,1.067279,-5.189178,-4.186901,-0.872183,5.204605,-0.243995,0.449317,-0.074856,135.579214,188.420676,1540.731245,41.127034,0
0.029167,-69.847737,-91.729937,200.373929,4.153690,2.761441,3.303912,-5.488188,-2.460449,-3.218438,5.643664,-0.233057,0.430301,-0.074856,65.045810,188.496136,1541.041864,39.593041,0
0.030208,-9.133238,-150.983513,171.343586,3.658281,0.735892,4.683706,-4.757695,-0.643322,-4.499367,4.860170,-0.229410,0.471985,-0.082290,5.185298,188.496089,1542.940995,39.226131,0
0.031250,53.468348,-186.899754,123.210814,2.701241,-1.531843,5.540546,-3.323203,1.525624,-5.509736,3.531637,-0.214826,0.466887,-0.059989,-55.846080,188.496201,1544.442578,39.021979,0
0.032292,110.340872,-188.767210,45.342902,1.158716,-3.590417,5.528478,-1.275552,3.491458,-5.442096,1.434750,-0.167425,0.466198,-0.082290,-112.599294,188.496125,1546.711270,38.190456,0
0.033333,163.382722,-161.741942,-22.232544,-0.214918,-5.028850,4.736001,0.760745,4.974901,-4.816428,-0.586438,-0.109087,0.467851,-0.074856,-158.904784,188.496154,1548.311645,37.459063,0
0.034375,185.779174,-94.948070,-77.644167,-1.273292,-5.652661,2.949913,2.971148,5.460919,-3.040884,-2.789305,-0.076271,0.466749,-0.067423,-184.416147,188.496035,1550.070921,36.135510,0
0.035417,188.536356,-22.998138,-136.494713,-2.387963,-5.634313,1.151756,4.401855,5.482681,-1.248430,-4.386572,-0.043455,0.475430,-0.052556,-180.430700,188.496177,1550.990076,34.842030,0
0.036458,144.093749,41.223577,-176.400803,-3.164855,-4.584844,-1.068787,5.412433,4.543288,0.877996,-5.412306,-0.006994,0.480598,-0.086006,-134.721902,188.345196,1553.116819,33.935773,0
0.037500,70.192238,91.868061,-200.193776,-3.649005,-2.808819,-3.345648,5.666024,2.860360,3.220023,-5.824871,-0.032517,0.469781,-0.059989,-63.546774,188.496073,1553.644931,33.638506,0
0.038542,8.765844,150.828011,-171.212039,-3.108558,-0.680525,-4.729464,4.954456,0.901780,4.572819,-5.014882,-0.025225,0.447250,-0.071140,-3.269704,188.420775,1555.217054,33.215529,0
0.039583,-53.632344,187.026132,-121.973466,-2.095221,1.576201,-5.521941,3.493470,-1.267166,5.507094,-3.629574,-0.032517,0.427752,-0.067423,56.703391,188.496165,1555.774444,33.187039,0
0.040625,-109.905972,188.799629,-43.497970,-0.518919,3.653123,-5.501827,1.453388,-3.265643,5.460591,-1.547826,-0.090856,0.461719,-0.045123,112.949981,188.345377,1557.005199,32.106181,0
0.041667,-163.252920,161.410265,23.153949,0.775900,5.098895,-4.749578,-0.563984,-4.705562,4.856061,0.511211,-0.152841,0.466267,-0.067423,159.615737,188.496092,1558.174843,32.049112,0
0.042708,-185.954470,94.545923,77.872927,1.868052,5.686010,-2.899126,-2.823592,-5.227850,3.042469,2.698938,-0.185656,0.467162,-0.041406,185.127100,188.420781,1559.736671,32.173452,0
0.043750,-188.361354,23.805727,137.355360,2.926427,5.586935,-1.104992,-4.254298,-5.227850,1.266925,4.318916,-0.211179,0.458068,-0.112023,180.848937,188.496190,1561.330370,30.992261,0
0.044792,-144.189946,-40.369008,177.164236,3.692059,4.559482,1.107506,-5.253522,-4.252187,-0.867956,5.272735,-0.265872,0.478600,-0.067423,135.455372,188.270031,1563.013454,30.846233,0
0.045833,-71.102029,-91.929602,200.386081,4.164950,2.772449,3.332071,-5.526037,-2.569259,-3.235348,5.673944,-0.233057,0.480322,-0.059989,64.674285,188.496208,1564.309988,31.521327,0
0.046875,-9.314037,-151.347608,171.392192,3.658281,0.655163,4.784274,-4.719845,-0.588917,-4.592371,4.875310,-0.247641,0.475913,-0.056273,3.834299,188.420683,1565.453633,30.388114,0
0.047917,53.592647,-187.263849,122.262984,2.667463,-1.619910,5.580773,-3.273999,1.605418,-5.526646,3.440797,-0.185656,0.467162,-0.082290,-56.307671,188.496201,1565.169560,28.981755,0
0.048958,110.555571,-189.119561,42.961174,1.136198,-3.627112,5.572728,-1.260412,3.553117,-5.412504,1.393115,-0.156487,0.462684,-0.059989,-112.858236,188.269903,1565.079842,28.742642,0
0.050000,163.009824,-161.342612,-23.994537,-0.203659,-5.124257,4.764160,0.817519,5.025679,-4.816428,-0.673492,-0.105440,0.463855,-0.056273,-158.848492,188.496168,1565.534054,28.083739,0
0.051042,186.468469,-92.599068,-77.802139,-1.216996,-5.704033,2.925776,3.024137,5.547967,-2.998609,-2.921779,-0.079917,0.487970,-0.097156,-185.553238,188.420730,1566.789889,26.966864,0
0.052083,188.174758,-21.870617,-136.871415,-2.387963,-5.641652,1.111528,4.481339,5.573356,-1.252657,-4.492552,-0.068979,0.478531,-0.097156,-180.025400,188.496170,1568.657387,27.041621,0
0.053125,142.816858,40.965187,-178.114189,-3.142336,-4.581175,-1.125105,5.529766,4.583185,0.979456,-5.488006,-0.025225,0.453176,-0.115740,-134.384152,188.269946,1570.323912,26.269169,0
0.054167,70.847633,91.962021,-200.047956,-3.615227,-2.783133,-3.401966,5.734153,2.838598,3.317256,-5.908140,-0.014286,0.466129,-0.093440,-64.931548,188.422197,1571.908853,25.039287,0
0.055208,9.963636,152.307883,-170.981158,-3.074780,-0.643830,-4.846123,5.011230,0.818359,4.678506,-5.075442,-0.021578,0.475499,-0.089723,-3.933945,188.423975,1573.907883,23.662834,0
0.056250,-53.236847,186.591567,-122.641808,-2.151518,1.656929,-5.614463,3.455620,-1.397738,5.608553,-3.622004,-0.076271,0.473501,-0.071140,56.680875,188.495808,1575.438282,21.593631,0
0.057292,-111.250663,189.210704,-43.315695,-0.586475,3.759537,-5.542054,1.332270,-3.396215,5.519776,-1.472126,-0.123671,0.463924,-0.086006,114.064555,188.269510,1577.238198,20.137671,0
0.058333,-162.665324,161.281070,24.126083,0.719604,5.201640,-4.729464,-0.666177,-4.886912,4.805331,0.636116,-0.189302,0.462753,-0.086006,159.041562,188.344880,1578.579369,17.648623,0
0.059375,-187.683358,91.738866,77.885079,1.766719,5.796095,-2.858899,-2.997699,-5.362049,2.974829,2.922253,-0.225764,0.458894,-0.056273,187.029757,188.420265,1580.971686,15.426784,0
0.060417,-187.931957,21.421490,137.185237,2.960204,5.605282,-1.056719,-4.367846,-5.267747,1.161238,4.432466,-0.222118,0.439947,-0.097156,179.655555,188.495714,1581.859899,14.330563,0
0.061458,-141.511863,-41.261629,179.339386,3.725837,4.599847,1.220142,-5.454123,-4.270322,-1.049738,5.450629,-0.269518,0.489693,-0.086006,133.462649,188.269556,1584.548748,12.872808,0
0.062500,-68.808144,-92.070542,200.228109,4.164950,2.721076,3.517116,-5.601736,-2.551124,-3.412903,5.715579,-0.247641,0.459308,-0.093440,63.942494,188.344988,1585.699122,11.784015,0
0.063543,-7.811147,-153.074125,171.149159,3.613244,0.567096,4.921047,-4.856103,-0.465599,-4.744561,4.947225,-0.254934,0.461788,-0.063706,3.710457,188.420437,1588.204169,10.706179,0
0.064585,54.202843,-186.371228,122.360197,2.633685,-1.729994,5.689387,-3.266429,1.696093,-5.606968,3.444582,-0.185656,0.458825,-0.063706,-56.532838,188.299297,1589.248095,9.696978,0
0.065625,111.640364,-190.023927,43.945460,1.113679,-3.828933,5.616978,-1.173359,3.745348,-5.522418,1.328770,-0.141902,0.466336,-0.078573,-114.107910,188.287731,1592.366404,7.451053,0
0.066666,162.795126,-161.483552,-23.083161,-0.226178,-5.234341,4.707842,0.847798,5.159878,-4.833338,-0.787042,-0.112733,0.467093,-0.082290,-158.769684,188.289659,1593.968789,5.138765,0
0.067708,188.445956,-92.434638,-77.303921,-1.284552,-5.843473,2.905663,3.228524,5.678539,-2.990154,-3.050469,-0.003348,0.465371,-0.059989,-187.422120,188.440349,1596.699157,3.566242,0
0.068750,187.564562,-22.352162,-137.685577,-2.365445,-5.663669,1.075324,4.549467,5.602372,-1.189245,-4.621242,-0.003348,0.475017,-0.093440,-178.933343,188.290191,1598.114323,2.041287,0
0.069791,141.867664,40.601092,-179.730361,-3.198633,-4.610530,-1.233719,5.624390,4.554169,1.093598,-5.616696,-0.039809,0.473639,-0.093440,-132.661629,188.269689,1599.872146,0.304232,0
0.070833,69.423843,92.138196,-199.829226,-3.626486,-2.746438,-3.486443,5.760648,2.787820,3.418715,-5.881645,0.000299,0.481769,-0.067423,-62.724916,188.194202,1599.684859,-0.715513,0
0.071875,7.590651,153.000838,-170.981158,-3.097299,-0.530077,-4.954737,5.075574,0.749446,4.805331,-5.075442,-0.068979,0.456414,-0.033973,-1.839897,188.420399,1600.986740,-1.340472,0
0.072916,-54.253840,186.591567,-121.305124,-2.083962,1.785361,-5.662736,3.444266,-1.415873,5.680421,-3.584154,-0.076271,0.431748,-0.052556,57.277566,188.495705,1601.398440,-1.303897,0
0.073973,-113.160351,190.455675,-40.520810,-0.473882,3.946680,-5.622509,1.271711,-3.508652,5.549368,-1.381287,-0.101794,0.459032,-0.048839,116.732778,188.271724,1602.873646,-1.830612,0
0.075010,-162.461925,159.848179,25.487070,0.809678,5.271360,-4.729464,-0.806220,-4.937690,4.796876,0.692891,-0.152841,0.466680,-0.074856,159.390570,188.269395,1602.961444,-2.074604,0
0.076056,-189.988543,89.624764,78.589876,1.811756,5.939204,-2.814649,-3.145311,-5.449097,2.928327,3.043373,-0.196595,0.467576,-0.071140,189.675463,188.420359,1604.872215,-2.927450,0
0.077096,-186.462966,22.090956,139.202414,2.960204,5.645646,-0.952128,-4.466255,-5.307644,1.089370,4.504381,-0.233057,0.465440,-0.086006,177.842964,188.495754,1605.946856,-3.793726,0
0.078134,-140.472270,-40.392498,182.109967,3.759615,4.574160,1.381051,-5.495758,-4.263068,-1.155425,5.541469,-0.269518,0.480873,-0.048839,131.875225,188.269509,1607.795753,-5.186467,0
0.079166,-70.186735,-92.258463,199.972924,4.142431,2.721076,3.577457,-5.601736,-2.518481,-3.497452,5.795064,-0.240349,0.480942,-0.097156,63.841169,188.269637,1609.305900,-6.603002,0
0.080208,-8.116245,-153.637885,171.064097,3.624503,0.508384,5.025637,-4.859888,-0.472853,-4.875613,4.985075,-0.269518,0.477704,-0.074856,2.472042,188.420305,1611.146125,-7.114121,0
0.081250,54.338442,-186.711834,121.303002,2.644944,-1.770358,5.737659,-3.205870,1.797649,-5.666153,3.433227,-0.196595,0.463442,-0.056273,-56.780521,188.495763,1612.014581,-8.079736,0
0.082291,111.979361,-190.446747,41.709552,1.079901,-3.968373,5.633068,-1.124155,3.861412,-5.577376,1.256855,-0.160133,0.460066,-0.071140,-114.366851,188.269575,1613.295747,-8.924687,0
0.083334,162.343129,-160.203346,-25.063884,-0.203659,-5.359103,4.752092,0.980271,5.210656,-4.812201,-0.904377,-0.149195,0.463304,-0.063706,-158.567034,188.194071,1613.339493,-9.810393,0
0.084375,189.609848,-89.427915,-77.316072,-1.239515,-5.938879,2.889572,3.304223,5.729317,-2.918287,-3.179159,-0.050748,0.475017,-0.011672,-188.683052,188.420289,1614.026908,-10.942690,0
0.085416,187.044765,-21.154171,-137.746336,-2.376704,-5.689355,1.023029,4.651661,5.664031,-1.130060,-4.708297,-0.028871,0.461788,-0.071140,-178.302877,188.495597,1615.147784,-11.555230,0
0.086458,140.104876,40.366191,-181.468050,-3.288707,-4.654564,-1.354400,5.745508,4.615828,1.190830,-5.734031,-0.017932,0.443047,-0.056273,-132.008646,188.269445,1617.372666,-12.122368,0
0.087500,69.469042,92.361351,-199.634800,-3.570190,-2.684057,-3.582989,5.828776,2.834971,3.511720,-5.976270,-0.010640,0.447181,-0.067423,-63.783199,188.194202,1619.335492,-12.345514,0
0.088541,8.528545,154.621650,-170.835338,-3.018484,-0.486043,-5.131737,5.064219,0.669652,4.936383,-5.158711,-0.017932,0.470883,-0.074856,-2.402813,188.420227,1621.908624,-13.611450,0
0.089583,-53.948742,186.121767,-121.657522,-2.083962,1.847742,-5.715031,3.387491,-1.550072,5.756515,-3.576584,-0.054394,0.471985,-0.071140,57.063658,188.495778,1623.093798,-15.543089,0
0.090625,-112.798753,190.631850,-42.015466,-0.541438,4.093459,-5.706986,1.214937,-3.639224,5.680421,-1.369932,-0.087210,0.462546,-0.071140,115.764562,188.269613,1625.645973,-17.126957,0
0.091666,-162.202027,160.036099,24.915942,0.753382,5.366766,-4.717396,-0.874349,-5.017484,4.843378,0.787516,-0.171072,0.462822,-0.071140,158.985271,188.194024,1626.967342,-18.635413,0
0.092708,-190.971637,89.096238,77.362557,1.732941,6.089652,-2.762353,-3.255075,-5.554280,2.953692,3.145567,-0.225764,0.463855,-0.067423,190.362221,188.420215,1628.926429,-19.731194,0
0.093750,-186.406467,20.763770,138.254584,2.926427,5.711697,-0.859606,-4.545738,-5.333033,1.038640,4.625500,-0.229410,0.449248,-0.093440,177.887998,188.420341,1629.830439,-20.855620,0
0.094791,-139.093679,-40.404243,182.814764,3.860949,4.614524,1.461505,-5.650940,-4.292084,-1.265340,5.677729,-0.243995,0.480805,-0.074856,131.402375,188.269789,1631.779164,-21.970660,0
0.095833,-67.621652,-92.446383,199.632677,4.176209,2.647687,3.694116,-5.666080,-2.413298,-3.560865,5.810204,-0.240349,0.452556,-0.097156,62.659045,188.194128,1631.326115,-22.754719,0
0.096875,-6.240457,-155.152992,171.100552,3.613244,0.431325,5.202637,-4.931802,-0.331400,-5.032030,5.015355,-0.254934,0.447870,-0.048839,1.999192,188.420195,1633.488407,-24.234910,0
0.097916,54.846939,-185.889683,121.120727,2.667463,-1.880443,5.822136,-3.221010,1.873816,-5.784523,3.406732,-0.192949,0.474397,-0.097156,-56.769263,188.420338,1634.646683,-25.367896,0
0.098958,113.324053,-191.386348,42.183467,1.079901,-4.115151,5.753750,-1.078735,3.959341,-5.708428,1.200080,-0.178364,0.467438,-0.082290,-115.751625,188.269510,1637.372100,-26.407968,0
0.100000,162.309229,-160.003681,-24.091750,-0.214918,-5.410475,4.731979,1.033260,5.355736,-4.867158,-0.964937,-0.120025,0.468403,-0.056273,-158.792200,188.269561,1639.342850,-27.814272,0
0.101041,191.722935,-89.745030,-77.000129,-1.250774,-6.081989,2.861413,3.448050,5.878024,-2.947879,-3.311634,-0.058040,0.465715,-0.067423,-190.574451,188.420423,1642.743432,-29.156872,0
0.102083,186.174671,-21.929342,-138.366071,-2.376704,-5.744397,0.934529,4.791703,5.656777,-1.045510,-4.825632,-0.039809,0.476395,-0.067423,-177.143269,188.420318,1643.500869,-31.087678,0
0.103125,139.166982,39.908136,-183.302953,-3.277448,-4.683920,-1.471059,5.851486,4.557796,1.309200,-5.858936,-0.032517,0.494240,-0.086006,-130.488772,188.269510,1645.078282,-33.095032,0
0.104166,68.350350,92.678466,-199.379614,-3.536412,-2.610668,-3.667466,5.866626,2.780566,3.570905,-6.017905,-0.025225,0.448284,-0.056273,-61.711667,188.269534,1645.477729,-33.706177,0
0.105208,6.415459,155.114940,-170.835338,-3.063521,-0.361281,-5.188055,5.120993,0.626128,5.046298,-5.170066,-0.068979,0.456483,-0.082290,-0.410089,188.420307,1646.737477,-33.974735,0
0.106250,-54.660637,185.898611,-120.004895,-2.106481,1.906453,-5.827668,3.353427,-1.611731,5.845292,-3.516024,-0.021578,0.435882,-0.097156,57.468957,188.420258,1647.169432,-34.652124,0
0.107291,-112.923052,191.418766,-40.362839,-0.473882,4.130154,-5.775372,1.207367,-3.729899,5.705785,-1.332082,-0.109087,0.458136,-0.086006,115.978470,188.269583,1648.192520,-35.238922,0
0.108333,-161.942128,159.378379,25.426312,0.854715,5.451164,-4.757624,-0.912198,-5.111786,4.872971,0.851860,-0.145548,0.464337,-0.071140,159.142887,188.269386,1649.279437,-35.992561,0
0.109375,-192.067729,88.638183,77.253192,1.811756,6.104330,-2.798558,-3.308064,-5.565161,2.936782,3.236407,-0.196595,0.466336,-0.078573,191.352954,188.420349,1650.094187,-36.975907,0
0.110416,-185.751071,22.102701,139.020139,3.005242,5.730044,-0.891787,-4.587373,-5.452724,1.064005,4.689845,-0.233057,0.483216,-0.093440,177.516473,188.420343,1652.129351,-36.967917,0
