1-Time,2-VGERA,3-VGERB,4-VGERC,5-VN,6-IGERAN,7-IGERBN,8-IGERCN,9-IGERAT,10-IGERBT,11-IGERCT,12-IN,13-IFD,14-IFAULT,15-VFAULT,16-Speed (rad/s),17-Active Power,18-Reactive Power,19-FAULT 
0.000000,94.803475,88.332813,-176.728898,-3.187373,-0.199824,-0.167697,0.321692,0.306952,-0.030914,0.081883,-0.127317,0.274242,-0.086006,265.331405,190.003607,-0.116605,-1.478302,0
0.001042,25.591432,131.883310,-161.126152,-2.838335,-0.075062,-0.260220,0.382251,0.325087,0.007134,0.134873,-0.149195,0.272589,-0.078573,175.602558,189.852659,-0.073015,-1.832613,0
0.002083,-40.671330,170.125063,-126.311613,-2.196555,0.046031,-0.336652,0.287627,0.386746,-0.030914,0.093238,-0.120025,0.221741,-0.093440,80.514748,189.928302,-0.293429,-1.142463,0
0.003125,-104.662807,162.432081,-71.629090,-1.149440,0.145106,-0.324583,0.189219,0.296071,0.002906,0.115948,-0.127317,0.291950,-0.078573,-35.333412,190.003738,0.004801,-1.076020,0
0.004167,-151.263699,153.130033,1.523974,0.235454,0.233174,-0.296424,0.041606,0.350476,-0.018231,0.085668,-0.134610,0.286507,-0.041406,-152.532572,189.777460,-0.190180,-1.116835,0
0.005208,-162.461925,111.846323,69.779914,1.597829,0.251521,-0.199879,-0.030307,0.325087,-0.009776,0.093238,-0.130964,0.285542,-0.089723,-226.218306,189.928329,-0.068558,-1.001023,0
0.006250,-172.699657,45.334331,130.489665,2.802574,0.291885,-0.071152,-0.132501,0.332341,0.007134,0.104593,-0.130964,0.284026,-0.074856,-301.198748,190.003819,0.287907,-0.668671,0
0.007292,-141.037267,-19.063560,157.320557,3.354280,0.225835,0.033439,-0.170350,0.357730,0.028271,0.078098,-0.109087,0.283544,-0.063706,-284.457620,189.852894,-0.541963,0.048938,0
0.008333,-92.504087,-91.095707,178.403707,3.782133,0.119420,0.146075,-0.204415,0.379492,0.002906,0.112163,-0.138256,0.261771,-0.082290,-264.429060,190.003824,-0.624701,-0.163790,0
0.009375,-22.444550,-132.767002,159.155459,3.286724,0.042361,0.190325,-0.185490,0.310579,0.019816,0.108378,-0.138256,0.296015,-0.074856,-171.300199,189.928263,-0.835992,0.536476,0
0.010417,43.241916,-171.760436,126.965681,2.735018,-0.078731,0.266757,-0.113576,0.361357,-0.005549,0.100808,-0.138256,0.251850,-0.056273,-80.152803,189.928349,-0.498668,0.238701,0
0.011458,104.916908,-161.236907,71.177356,1.654126,-0.196154,0.234575,-0.022738,0.375865,-0.005549,0.115948,-0.120025,0.282855,-0.086006,38.250997,189.852796,0.057237,0.244037,0
0.012500,153.314488,-154.107686,-2.704808,0.269232,-0.276883,0.238598,0.109735,0.317833,-0.047824,0.100808,-0.109087,0.284853,-0.074856,156.080623,189.928327,-0.346216,0.489606,0
0.013542,161.540834,-109.124297,-71.714152,-1.070625,-0.324586,0.150098,0.200574,0.372238,-0.009776,0.131088,-0.141902,0.284646,-0.089723,228.629267,190.003605,0.251920,0.752896,0
0.014583,174.535748,-41.625724,-132.193022,-2.286629,-0.317247,0.033439,0.249778,0.335968,0.053636,0.093238,-0.149195,0.282924,-0.052556,301.583210,189.777370,-0.071829,0.107682,0
0.015625,138.116089,21.597665,-157.602167,-2.793298,-0.254866,-0.034947,0.351971,0.335968,-0.018231,0.108378,-0.141902,0.289814,-0.071140,285.044731,189.928260,-0.524101,0.221744,0
0.016667,91.176199,93.277462,-179.523783,-3.142336,-0.174138,-0.183788,0.336832,0.332341,-0.039369,0.089453,-0.145548,0.284440,-0.074856,264.396964,190.003696,-0.512498,0.539344,0
0.017708,21.105362,133.304456,-157.261920,-2.815817,-0.075062,-0.228038,0.359541,0.314206,-0.018231,0.112163,-0.120025,0.302422,-0.059989,170.547570,189.852809,-0.513422,0.687428,0
0.018750,-43.338112,172.603260,-127.684751,-2.196555,0.042361,-0.292402,0.314122,0.339595,-0.001321,0.100808,-0.116379,0.276240,-0.067423,79.231299,189.928254,-0.136464,0.049865,0
0.019792,-106.097897,159.989119,-67.983588,-1.048106,0.145106,-0.264243,0.185434,0.317833,0.002906,0.115948,-0.105440,0.286162,-0.089723,-43.315565,189.928254,-0.277597,0.236082,0
0.020833,-154.913575,153.893459,5.582632,0.303010,0.225835,-0.284356,0.052961,0.379492,-0.018231,0.078098,-0.149195,0.284922,-0.048839,-158.443192,190.003762,-0.549930,0.478232,0
0.021875,-160.913835,105.480527,74.944374,1.710422,0.229504,-0.183788,-0.026523,0.335968,-0.026686,0.104593,-0.138256,0.282786,-0.067423,-231.588527,189.777317,-0.732799,0.232797,0
0.022917,-175.773237,39.027260,133.284550,2.802574,0.262530,-0.095288,-0.106006,0.332341,-0.043596,0.138658,-0.138256,0.294981,-0.082290,-303.472930,189.928313,-0.604592,-0.562348,0
0.023958,-135.635902,-23.667604,158.572179,3.297983,0.218496,0.025393,-0.193060,0.401254,-0.030914,0.127303,-0.130964,0.244409,-0.082290,-283.782120,190.003656,-0.384209,-1.677794,0
0.025000,-91.227196,-93.315513,180.068486,3.782133,0.086395,0.154121,-0.147641,0.343222,-0.022459,0.085668,-0.134610,0.280168,-0.100873,-263.595944,189.852843,-0.337408,-1.579292,0
0.026042,-20.851261,-133.612643,155.716536,3.309243,-0.016350,0.242620,-0.193060,0.343222,0.015589,0.074313,-0.138256,0.274931,-0.089723,-166.808127,190.003667,-0.695526,-2.108625,0
0.027083,45.761799,-173.064132,126.880619,2.791315,-0.111757,0.290893,-0.124931,0.321460,0.007134,0.108378,-0.127317,0.282304,-0.097156,-74.242182,190.003594,-0.877877,-1.597084,0
0.028125,108.498984,-158.723475,64.639757,1.519014,-0.196154,0.294916,-0.015168,0.343222,-0.022459,0.085668,-0.134610,0.282028,-0.100873,49.407997,189.928314,-1.032384,-1.601886,0
0.029167,156.150770,-153.332515,-7.529022,0.190417,-0.287891,0.250666,0.075671,0.346849,-0.001321,0.112163,-0.116379,0.280030,-0.089723,160.887927,189.928351,-1.192115,-1.891829,0
0.030208,160.252642,-102.688031,-76.647730,-1.149440,-0.298900,0.174234,0.193004,0.354103,-0.014004,0.112163,-0.120025,0.283406,-0.093440,233.785579,189.928387,-1.268729,-2.020275,0
0.031250,175.801340,-37.503225,-133.019335,-2.275370,-0.309908,0.061598,0.264918,0.332341,0.015589,0.104593,-0.105440,0.282441,-0.104590,299.984528,190.003700,-1.297053,-1.549721,0
0.032292,134.025516,23.371162,-158.440632,-2.759520,-0.240188,-0.022879,0.329262,0.383119,0.002906,0.089453,-0.105440,0.245235,-0.089723,284.189099,189.852936,-0.656772,-1.537497,0
0.033333,91.334398,93.606322,-179.450873,-3.243670,-0.174138,-0.147584,0.351971,0.335968,-0.030914,0.093238,-0.112733,0.289883,-0.067423,261.244633,189.928324,-0.632079,-1.582462,0
0.034375,18.528979,134.326272,-153.750087,-2.759520,-0.067723,-0.252174,0.310337,0.325087,0.002906,0.089453,-0.123671,0.282924,-0.063706,163.139592,190.003768,-0.203815,-1.496986,0
0.035417,-48.716877,172.450575,-125.740484,-2.230333,0.046031,-0.288379,0.306552,0.314206,-0.022459,0.112163,-0.101794,0.282166,-0.082290,71.001464,189.852889,-0.436673,-1.800809,0
0.036458,-110.267570,157.816292,-61.628264,-0.980551,0.148776,-0.312515,0.196789,0.332341,-0.009776,0.089453,-0.141902,0.281959,-0.067423,-53.155340,190.003695,-0.562678,-1.421037,0
0.037500,-156.992761,152.519293,9.544077,0.415603,0.225835,-0.280333,0.075671,0.321460,0.002906,0.093238,-0.130964,0.280926,-0.086006,-161.370357,190.003793,0.189806,-1.782532,0
0.038542,-160.088941,100.970443,77.532680,1.755459,0.277208,-0.219993,-0.037877,0.361357,0.032499,0.138658,-0.112733,0.280443,-0.041406,-234.358075,189.928273,0.449610,-1.578299,0
0.039583,-176.055735,37.159804,133.163033,2.813834,0.251521,-0.059084,-0.121146,0.314206,-0.018231,0.081883,-0.134610,0.282648,-0.067423,-300.320599,190.003660,0.244123,-0.836567,0
0.040625,-132.528423,-24.524989,159.131156,3.365539,0.211157,0.061598,-0.215769,0.357730,0.002906,0.097023,-0.141902,0.286231,-0.082290,-283.162912,189.928269,0.248186,-0.070232,0
0.041667,-89.374008,-95.758476,178.950532,3.703318,0.104742,0.134007,-0.166565,0.335968,0.007134,0.112163,-0.130964,0.280719,-0.108307,-257.505191,190.003514,0.413343,0.281162,0
0.042708,-15.167398,-135.820705,152.265461,3.275465,-0.012681,0.238598,-0.166565,0.328714,-0.001321,0.093238,-0.138256,0.284440,-0.063706,-158.634584,189.852896,0.767488,0.422469,0
0.043750,52.112357,-171.819161,124.936351,2.701241,-0.100748,0.294916,-0.155210,0.397627,-0.001321,0.119733,-0.152841,0.249507,-0.089723,-66.518972,189.928307,1.171113,-0.301437,0
0.044792,112.544358,-157.819109,59.390234,1.496495,-0.221841,0.282848,-0.018953,0.310579,-0.005549,0.112163,-0.098148,0.280374,-0.082290,56.996108,190.003758,0.871734,0.222792,0
0.045833,157.133863,-151.782174,-8.756341,0.224195,-0.254866,0.230552,0.052961,0.364984,-0.009776,0.081883,-0.130964,0.284784,-0.063706,160.201170,189.852925,1.137718,-0.157988,0
0.046875,160.772439,-100.186344,-78.020869,-1.239515,-0.335594,0.182280,0.189219,0.346849,-0.018231,0.100808,-0.127317,0.284715,-0.071140,237.973676,190.003633,1.138318,-0.226256,0
0.047917,175.507542,-35.870669,-132.776302,-2.264111,-0.306239,0.017348,0.280057,0.368611,-0.001321,0.055388,-0.134610,0.270384,-0.056273,297.124914,190.003684,1.959182,-0.304289,0
0.048958,130.545139,28.257086,-161.101849,-2.905891,-0.221841,-0.071152,0.359541,0.317833,-0.030914,0.127303,-0.130964,0.283199,-0.078573,285.506323,190.003634,0.951200,-0.249878,0
0.050000,87.458524,97.846271,-176.643837,-3.153596,-0.166799,-0.187811,0.359541,0.321460,-0.014004,0.100808,-0.149195,0.284508,-0.100873,253.194931,189.928327,0.886616,-0.540966,0
0.051042,12.314020,138.131655,-151.745061,-2.725742,-0.060384,-0.296424,0.329262,0.357730,-0.005549,0.066743,-0.112733,0.276861,-0.056273,157.296522,189.928194,1.077109,-0.023429,0
0.052083,-54.479839,169.995868,-124.172918,-2.106481,0.035022,-0.300447,0.249778,0.368611,0.002906,0.134873,-0.134610,0.263081,-0.078573,65.721309,190.003788,1.005920,0.298984,0
0.053125,-113.940046,159.178713,-58.638953,-0.901736,0.181801,-0.320561,0.121090,0.354103,0.045181,0.108378,-0.105440,0.271969,-0.078573,-58.435495,189.852967,1.367425,0.387775,0
0.054167,-156.156567,151.051166,8.912190,0.404343,0.196479,-0.284356,0.037821,0.357730,-0.018231,0.112163,-0.123671,0.287058,-0.119457,-160.390882,190.003811,0.835308,0.244907,0
0.055208,-162.495825,98.022446,80.837935,1.777978,0.251521,-0.191834,-0.060587,0.292444,-0.005549,0.112163,-0.127317,0.286782,-0.100873,-243.330960,190.003757,1.224673,0.103553,0
0.056250,-174.383346,32.825895,133.357460,2.802574,0.266199,-0.055061,-0.098436,0.364984,0.007134,0.085668,-0.105440,0.284026,-0.097156,-295.941111,189.928318,0.782035,0.178416,0
0.057292,-129.906840,-31.384075,163.797398,3.489392,0.178132,0.065621,-0.174135,0.404881,-0.014004,0.085668,-0.160133,0.267146,-0.067423,-288.195383,190.003558,0.298450,-0.284089,0
0.058333,-85.724132,-99.751779,175.414396,3.703318,0.093734,0.125961,-0.166565,0.354103,-0.022459,0.165153,-0.127317,0.275551,-0.115740,-249.725688,190.003587,0.959771,-0.690624,0
0.059375,-10.319730,-140.542199,152.617860,3.309243,0.013005,0.214461,-0.193060,0.390373,0.002906,0.093238,-0.156487,0.244271,-0.115740,-158.792200,190.003664,0.866818,-1.332326,0
0.060417,54.632240,-169.035593,124.255858,2.667463,-0.097079,0.286870,-0.102221,0.357730,-0.005549,0.093238,-0.138256,0.294292,-0.056273,-63.490482,189.928174,0.586757,-1.146199,0
0.061458,115.459738,-161.060732,57.154327,1.395162,-0.207163,0.246643,-0.026523,0.328714,0.015589,0.119733,-0.138256,0.289952,-0.048839,63.818653,189.928174,0.521265,-1.260354,0
0.062500,156.342868,-149.468407,-11.101613,0.066564,-0.254866,0.266757,0.113520,0.335968,-0.014004,0.100808,-0.127317,0.290020,-0.071140,163.612442,190.003605,0.266785,-0.881608,0
0.063542,164.467515,-95.793711,-83.829368,-1.329589,-0.335594,0.138030,0.223283,0.328714,0.007134,0.127303,-0.149195,0.286300,-0.097156,249.063126,189.928366,-0.212474,-0.827924,0
0.064583,172.987658,-29.857224,-133.955014,-2.331667,-0.302569,0.057575,0.280057,0.321460,-0.026686,0.066743,-0.130964,0.276723,-0.074856,294.512982,190.003594,-0.739857,-0.633447,0
0.065625,129.313447,33.894691,-165.938214,-2.939669,-0.251197,-0.079197,0.340616,0.325087,-0.001321,0.097023,-0.112733,0.280374,-0.074856,291.135485,190.003607,-0.300877,-0.999887,0
0.066667,84.995140,100.712053,-174.164896,-3.131077,-0.174138,-0.143561,0.393606,0.350476,0.015589,0.081883,-0.127317,0.271624,-0.097156,249.254517,190.003623,0.229445,-0.969889,0
0.067708,11.443926,142.019254,-153.665025,-2.782039,-0.064053,-0.264243,0.325477,0.328714,-0.001321,0.127303,-0.127317,0.278928,-0.119457,160.133620,190.003656,-0.355498,-1.604293,0
0.068750,-56.095728,168.116666,-122.860538,-2.072703,0.038692,-0.300447,0.261133,0.354103,0.002906,0.108378,-0.105440,0.288642,-0.089723,59.135189,190.003724,-0.113753,-1.536763,0
0.069792,-117.804620,162.420336,-53.887649,-0.845439,0.167123,-0.284356,0.185434,0.375865,-0.022459,0.093238,-0.109087,0.263081,-0.093440,-68.793153,190.003674,-0.926361,-1.344214,0
0.070833,-157.128360,147.844779,14.429049,0.460640,0.229504,-0.252174,0.045391,0.325087,-0.001321,0.100808,-0.163779,0.289056,-0.082290,-166.931969,190.003709,-0.466183,-1.278364,0
0.071875,-166.586398,93.488872,86.998832,1.924349,0.269869,-0.179765,-0.030307,0.343222,0.007134,0.104593,-0.116379,0.289607,-0.082290,-254.364118,190.003738,-0.984614,-1.048235,0
0.072917,-171.682664,27.340975,134.900722,2.903908,0.266199,-0.047016,-0.155210,0.303325,-0.009776,0.127303,-0.120025,0.282648,-0.071140,-293.250371,190.003616,-0.025115,-1.314854,0
0.073958,-129.070646,-35.025028,168.390729,3.523169,0.200149,0.013325,-0.193060,0.339595,0.036726,0.146228,-0.141902,0.282786,-0.071140,-294.804020,189.928338,1.046149,-0.527470,0
0.075000,-85.091336,-101.255140,172.947606,3.601985,0.112081,0.142052,-0.170350,0.339595,-0.009776,0.074313,-0.116379,0.287471,-0.067423,-245.436267,190.003585,0.036499,-0.348999,0
0.076042,-8.952439,-144.547247,153.808723,3.320502,0.001997,0.234575,-0.177920,0.350476,0.002906,0.108378,-0.127317,0.269144,-0.071140,-156.371660,190.003651,0.218399,0.161039,0
0.077083,59.389509,-166.569141,120.343020,2.599907,-0.104418,0.298939,-0.098436,0.317833,-0.035141,0.127303,-0.120025,0.287816,-0.045123,-52.727524,190.003733,0.636956,0.803740,0
0.078125,121.245300,-164.396315,50.288632,1.260050,-0.181477,0.286870,-0.026523,0.350476,-0.047824,0.059173,-0.120025,0.269626,-0.071140,75.347177,190.003842,1.252998,0.134195,0
0.079167,156.647966,-144.582482,-16.484804,-0.000992,-0.273213,0.218484,0.071886,0.328714,-0.056278,0.104593,-0.127317,0.283268,-0.112023,168.993921,190.003629,1.550610,0.471362,0
0.080208,169.066584,-91.682957,-88.434852,-1.374626,-0.309908,0.162166,0.193004,0.328714,0.007134,0.104593,-0.127317,0.285335,-0.048839,257.878394,190.003749,1.664736,0.253030,0
0.081250,168.648487,-27.238087,-133.906407,-2.241592,-0.280552,0.033439,0.291412,0.357730,-0.001321,0.108378,-0.138256,0.286851,-0.071140,290.403694,190.003775,1.639856,0.408850,0
0.082292,129.550745,36.455103,-170.859641,-3.041003,-0.247527,-0.067129,0.374681,0.332341,-0.001321,0.100808,-0.160133,0.281477,-0.100873,296.539481,190.000794,1.661492,0.474676,0
0.083333,82.384857,102.908370,-169.608019,-2.995965,-0.174138,-0.171720,0.389821,0.328714,-0.005549,0.085668,-0.109087,0.278170,-0.056273,239.178317,190.003758,1.382546,0.445939,0
0.084375,5.963462,147.281018,-154.199699,-2.804557,-0.056715,-0.268265,0.317907,0.350476,-0.018231,0.108378,-0.116379,0.266732,-0.063706,154.729624,190.003609,1.429775,0.882142,0
0.085417,-62.175088,163.876718,-116.894067,-2.027666,0.053370,-0.304470,0.245993,0.368611,-0.039369,0.127303,-0.109087,0.260600,-0.100873,47.494082,190.003602,0.793163,0.950868,0
0.086458,-123.341583,166.566325,-46.912590,-0.665290,0.156115,-0.284356,0.196789,0.364984,0.002906,0.100808,-0.098148,0.261358,-0.063706,-78.430279,190.003667,1.116647,0.848032,0
0.087500,-155.670670,141.432003,17.406209,0.584492,0.203818,-0.236084,0.041606,0.328714,0.032499,0.108378,-0.130964,0.289056,-0.093440,-168.012768,190.078987,1.381604,0.989864,0
0.088542,-171.976462,91.633160,89.040313,1.980645,0.251521,-0.147584,-0.041662,0.328714,0.028271,0.078098,-0.156487,0.286231,-0.089723,-260.668780,190.003629,1.522763,1.432496,0
0.089583,-166.010102,25.485264,133.867830,2.847611,0.247852,-0.055061,-0.147641,0.361357,0.024044,0.089453,-0.152841,0.287678,-0.056273,-287.418559,190.003633,0.654744,1.839814,0
0.090625,-129.262744,-40.263303,173.178488,3.601985,0.233174,0.049530,-0.196845,0.339595,0.011361,0.100808,-0.152841,0.284508,-0.104590,-298.744434,190.003647,0.230418,1.724316,0
0.091667,-79.000676,-104.860858,167.406444,3.523169,0.130429,0.134007,-0.181705,0.368611,-0.035141,0.104593,-0.152841,0.256122,-0.071140,-233.615026,190.003614,0.584467,1.251968,0
0.092708,-3.065178,-150.090892,155.424896,3.286724,0.013005,0.218484,-0.181705,0.354103,0.024044,0.093238,-0.116379,0.275345,-0.056273,-153.072971,190.078883,0.243628,1.256940,0
0.093750,64.790873,-162.059057,114.097060,2.442277,-0.086070,0.274802,-0.109791,0.379492,-0.039369,0.085668,-0.134610,0.236485,-0.056273,-42.921523,190.002923,0.230197,0.250364,0
0.094792,124.827377,-169.223514,46.813254,1.226272,-0.214502,0.278825,0.003757,0.328714,0.024044,0.097023,-0.123671,0.290089,-0.082290,79.062424,190.153960,-0.560703,0.648442,0
0.095833,154.659179,-139.355953,-17.165297,-0.023510,-0.324586,0.222507,0.124875,0.306952,-0.030914,0.100808,-0.120025,0.288987,-0.074856,169.534321,190.078190,-0.997171,0.546334,0
0.096875,174.716547,-91.177922,-90.500636,-1.464701,-0.313578,0.129984,0.223283,0.343222,-0.026686,0.112163,-0.116379,0.291330,-0.078573,264.565839,190.003065,-0.690538,0.919804,0
0.097917,163.371422,-22.199477,-134.428929,-2.354185,-0.269544,0.049530,0.276273,0.357730,-0.026686,0.089453,-0.116379,0.289056,-0.104590,286.868580,190.153624,-0.488835,1.059117,0
0.098958,129.324747,43.138014,-174.906148,-3.142336,-0.247527,-0.087243,0.333047,0.361357,0.011361,0.104593,-0.112733,0.274036,-0.097156,299.050087,190.002954,-0.269320,1.158242,0
0.100000,76.181198,106.948654,-165.561512,-2.939669,-0.159460,-0.171720,0.321692,0.368611,-0.026686,0.104593,-0.123671,0.237174,-0.093440,230.149140,190.003768,-0.429811,1.719070,0
0.101042,1.353093,152.178687,-156.034601,-2.759520,-0.023689,-0.272288,0.329262,0.335968,0.028271,0.093238,-0.127317,0.247854,-0.093440,154.211741,190.078182,0.137645,1.387848,0
0.102083,-65.610265,161.198855,-112.956925,-1.881295,0.068048,-0.340674,0.234638,0.325087,-0.018231,0.097023,-0.160133,0.278928,-0.063706,42.180153,190.003045,0.739213,1.163897,0
0.103125,-125.669368,171.299564,-45.685271,-0.676550,0.170793,-0.292402,0.147585,0.303325,-0.009776,0.100808,-0.120025,0.291123,-0.078573,-81.638902,190.078325,1.076613,0.640496,0
0.104167,-155.184773,137.450445,19.763633,0.607011,0.229504,-0.272288,0.037821,0.325087,-0.001321,0.108378,-0.145548,0.292432,-0.071140,-173.101531,190.002332,0.815959,0.405000,0
0.105208,-177.468226,88.931808,94.216925,2.081979,0.262530,-0.195856,-0.026523,0.328714,-0.005549,0.119733,-0.109087,0.289883,-0.082290,-269.101265,190.154728,0.852471,-0.311159,0
0.106250,-161.411032,18.931548,136.030828,2.926427,0.262530,-0.087243,-0.162780,0.335968,-0.005549,0.097023,-0.101794,0.284026,-0.093440,-286.045043,190.079076,1.130591,-0.574302,0
0.107292,-129.307944,-47.263329,177.030568,3.725837,0.203818,0.025393,-0.193060,0.368611,0.024044,0.066743,-0.152841,0.245098,-0.071140,-302.054381,190.003612,0.500273,-0.558714,0
0.108333,-73.260314,-109.065572,164.745228,3.421836,0.123090,0.150098,-0.211984,0.401254,-0.022459,0.089453,-0.156487,0.248749,-0.119457,-228.402421,190.229816,0.108646,-0.792306,0
0.109375,-1.132891,-154.389566,157.551438,3.320502,0.035022,0.254689,-0.170350,0.343222,-0.009776,0.093238,-0.123671,0.270522,-0.089723,-154.491520,190.078967,0.428688,-0.852829,0
0.110417,66.316363,-160.755361,110.803957,2.397239,-0.115426,0.290893,-0.109791,0.350476,-0.001321,0.047818,-0.112733,0.286024,-0.100873,-36.312887,190.003600,-0.350114,-0.831732,0
0.111458,128.013956,-173.533932,42.110557,1.113679,-0.221841,0.246643,0.022682,0.332341,-0.030914,0.108378,-0.127317,0.291743,-0.048839,87.652526,190.154495,0.291501,-0.587290,0
0.112500,156.071670,-134.329089,-23.192526,-0.147362,-0.265874,0.274802,0.109735,0.343222,-0.018231,0.100808,-0.145548,0.288987,-0.078573,178.450914,190.003705,0.547578,-0.835352,0
0.113542,179.891913,-86.667838,-97.001780,-1.577294,-0.309908,0.150098,0.204359,0.317833,0.007134,0.119733,-0.101794,0.286851,-0.104590,271.973816,190.079128,0.044066,-1.081272,0
