1-Time,2-VGERA,3-VGERB,4-VGERC,5-VN,6-IGERAN,7-IGERBN,8-IGERCN,9-IGERAT,10-IGERBT,11-IGERCT,12-IN,13-IFD,14-IFAULT,15-VFAULT,16-Speed (rad/s),17-Active Power,18-Reactive Power,19-FAULT 
0.000000,175.493619,-133.128670,1.624621,2.894118,-5.473514,0.319962,5.225980,6.039387,-0.292536,-4.961093,0.010374,0.183977,-0.028224,162.549655,188.495282,932.853338,-1265.058322,0
0.001042,193.618935,-77.471945,-56.789205,1.819668,-3.861687,-2.168340,5.860313,4.488220,2.154136,-5.590831,0.010374,0.189791,-0.050629,175.103755,188.419956,933.217282,-1265.165003,0
0.002083,169.879082,-28.411394,-142.938826,0.111858,-2.228559,-3.894674,5.856581,2.819430,3.941927,-5.633526,0.003068,0.178751,-0.039427,158.568535,188.495264,934.011794,-1264.831950,0
0.003125,120.051477,18.607484,-191.516478,-0.713772,0.061370,-4.736014,4.319257,0.617656,4.873593,-4.199713,-0.033462,0.210760,-0.017021,113.249366,188.419862,934.934738,-1265.377006,0
0.004167,63.860730,84.581301,-198.521213,-0.939972,2.546565,-5.799595,2.822977,-1.948018,5.893389,-2.758785,-0.051727,0.194625,-0.091706,59.492937,188.495282,935.148546,-1265.822635,0
0.005208,18.161795,154.396845,-160.838447,-0.182202,4.343006,-5.275742,0.569230,-3.738108,5.511490,-0.638309,-0.124787,0.177118,-0.002084,19.218028,188.419867,935.616561,-1265.303363,0
0.006250,-29.317912,205.644040,-94.939773,1.084518,5.702762,-3.934360,-1.956907,-5.017269,4.168549,1.823721,-0.143052,0.159545,-0.035692,-21.203911,188.495206,936.205809,-1264.891734,0
0.007292,-102.862685,182.472866,-46.817614,1.989318,6.235304,-2.081032,-4.050206,-5.700959,2.397544,3.883714,-0.190541,0.174047,-0.020755,-89.267490,188.419824,937.289096,-1264.908493,0
0.008333,-175.840333,133.351911,-1.243750,2.848878,5.720514,-0.144363,-5.341260,-5.193705,0.425099,5.239254,-0.227071,0.184434,-0.043161,-157.376308,188.495170,938.575254,-1265.321040,0
0.009375,-193.863567,77.719348,57.108523,3.968568,4.083835,2.395531,-5.979324,-3.587403,-2.050950,5.787162,-0.259948,0.190379,-0.061832,-170.111368,188.419768,939.404610,-1264.887648,0
0.010417,-170.429961,28.936657,143.196591,5.551968,2.493311,4.169488,-5.979324,-1.933315,-3.943659,5.844088,-0.219765,0.190836,-0.046895,-154.752388,188.495260,940.416534,-1265.594819,0
0.011458,-120.284766,-18.106383,191.515720,6.479388,0.182080,5.042576,-4.423343,0.224350,-4.808177,4.431623,-0.197847,0.211413,-0.073035,-108.223049,188.419838,941.588561,-1265.888926,0
0.012500,-64.320869,-84.358061,198.705114,6.671658,-2.324417,6.078377,-2.983034,2.834133,-5.890924,3.001368,-0.190541,0.195343,-0.031958,-54.613650,188.495237,943.119854,-1265.888325,0
0.013542,-18.689989,-154.016553,160.702273,5.947818,-4.138609,5.546586,-0.662122,4.672008,-5.425091,0.848871,-0.110175,0.189987,-0.017021,-14.553631,188.419875,943.493569,-1265.617238,0
0.014583,29.232076,-205.674499,95.135985,4.715028,-5.533868,4.201237,1.845358,5.991602,-4.170280,-1.595370,-0.077298,0.178228,-0.046895,26.298088,188.495273,945.300309,-1265.900228,0
0.015625,102.629396,-182.177140,47.001515,3.787608,-5.991854,2.379657,3.972239,6.620156,-2.403472,-3.687383,-0.037115,0.173851,-0.035692,93.988436,188.495218,946.147204,-1266.373584,0
0.016667,175.618387,-133.092427,1.242992,2.939358,-5.551620,0.335836,5.244637,6.131281,-0.389060,-4.964650,0.021333,0.186982,-0.043161,162.312145,188.495305,948.110646,-1266.204605,0
0.017708,193.426113,-77.169923,-56.900000,1.808358,-3.886539,-2.132623,5.860313,4.554384,2.137349,-5.576600,-0.000585,0.194494,-0.046895,176.212135,188.419869,948.894904,-1265.806060,0
0.018750,170.151302,-28.556365,-143.074243,0.179718,-2.338618,-3.894674,5.893895,2.852512,3.975501,-5.654873,0.024986,0.192665,-0.028224,158.953075,188.495287,949.414686,-1266.373347,0
0.019792,120.119532,18.402109,-191.368751,-0.736392,0.029418,-4.763794,4.345376,0.665440,4.844216,-4.231734,-0.069992,0.213242,-0.035692,113.317226,188.495284,949.990829,-1265.848335,0
0.020833,64.223690,84.605463,-198.779735,-0.860802,2.528813,-5.819438,2.893873,-1.907585,5.943750,-2.819269,-0.048074,0.195670,-0.058098,59.979267,188.495284,951.213506,-1266.074108,0
0.021875,18.626838,154.336441,-160.900000,-0.159582,4.339455,-5.291616,0.580424,-3.752811,5.540867,-0.638309,-0.091910,0.190379,-0.039427,19.319818,188.425209,951.335699,-1266.555412,0
0.022917,-29.170459,205.789011,-95.062879,1.039278,5.734715,-4.001826,-1.919594,-5.065054,4.227302,1.781027,-0.146705,0.175811,-0.058098,-21.022951,188.497956,952.439184,-1266.907488,0
0.023958,-102.930740,182.569513,-46.805303,1.944078,6.224653,-2.132623,-4.057669,-5.653174,2.422724,3.887272,-0.212459,0.173264,-0.054364,-89.007360,188.495763,952.405361,-1266.508688,0
0.025000,-175.965101,133.001564,-1.132955,2.860188,5.745366,-0.140394,-5.311409,-5.201057,0.399918,5.182328,-0.230724,0.182670,-0.058098,-157.602508,188.495568,952.270274,-1265.928517,0
0.026042,-193.897594,77.042817,56.997727,3.991188,4.112238,2.367751,-5.971861,-3.638863,-2.034163,5.783605,-0.248989,0.192142,-0.035692,-169.953028,188.420359,952.973291,-1265.567756,0
0.027083,-170.248481,28.537987,143.381250,5.597208,2.574967,4.169488,-5.983056,-1.995803,-3.897495,5.872551,-0.245336,0.203444,-0.046895,-154.605358,188.495711,954.107200,-1264.912221,0
0.028125,-120.352821,-18.009736,191.601895,6.502008,0.221133,4.998922,-4.393492,0.231702,-4.799784,4.463643,-0.212459,0.215333,-0.043161,-108.607589,188.495455,954.367172,-1265.048139,0
0.029167,-64.853966,-84.406384,198.754357,6.626418,-2.271163,6.098220,-3.005422,2.804727,-5.911908,3.022716,-0.201500,0.198087,-0.061832,-55.088670,188.495741,954.846758,-1265.136312,0
0.030208,-18.984894,-154.306495,160.850000,5.936508,-4.113757,5.542618,-0.703167,4.657305,-5.483845,0.916470,-0.139399,0.189464,-0.065566,-15.096511,188.420202,956.134580,-1265.150441,0
0.031251,29.288788,-206.036926,95.271402,4.726338,-5.526768,4.248860,1.822970,6.032035,-4.140903,-1.570465,-0.073645,0.183062,-0.050629,26.411188,188.495680,956.234088,-1265.429139,0
0.032296,103.241891,-181.875118,46.767614,3.810228,-5.998955,2.379657,3.949851,6.671616,-2.424456,-3.680268,-0.059033,0.174309,-0.043161,94.316426,188.427530,957.095568,-1265.571602,0
0.033333,176.378335,-132.693757,1.550758,2.928048,-5.572921,0.399333,5.263293,6.157011,-0.351290,-5.021576,0.003068,0.183912,-0.005818,162.968125,188.495177,957.209753,-1266.615133,0
0.034375,193.539538,-76.517554,-56.887690,1.819668,-3.918492,-2.104843,5.934940,4.576438,2.120562,-5.633526,-0.022503,0.190248,-0.039427,175.137685,188.419880,957.954040,-1266.871541,0
0.035417,169.890424,-27.867753,-143.542046,0.179718,-2.391872,-3.894674,5.957328,2.918675,3.988091,-5.722472,0.021333,0.193776,-0.035692,158.772115,188.495246,959.507772,-1267.069784,0
0.036458,119.688517,18.631646,-191.664205,-0.702462,-0.009635,-4.807449,4.423735,0.694846,4.881986,-4.345585,-0.044421,0.214680,-0.035692,113.373776,188.495039,961.245979,-1267.553179,0
0.037500,64.541280,85.149104,-198.767425,-0.917352,2.507512,-5.922621,2.994620,-1.856124,6.015093,-2.854847,-0.055380,0.204881,-0.058098,60.454287,188.495273,962.522078,-1267.772267,0
0.038542,19.001140,154.807596,-160.530682,-0.170892,4.303953,-5.390831,0.655051,-3.745460,5.608014,-0.723697,-0.110175,0.193841,-0.039427,19.828768,188.419916,964.084798,-1267.681348,0
0.039583,-29.510734,206.441380,-95.272159,1.005348,5.738265,-4.101041,-1.893474,-5.101812,4.336416,1.763238,-0.161317,0.189138,-0.050629,-21.373561,188.495251,965.819199,-1268.312393,0
0.040625,-103.236988,182.146682,-47.396212,1.966698,6.313410,-2.200089,-4.087520,-5.752419,2.540232,3.908619,-0.190541,0.175942,-0.031958,-89.471070,188.495130,967.655927,-1269.136305,0
0.041670,-177.621106,132.590814,-1.120644,2.871498,5.851874,-0.188017,-5.374842,-5.333384,0.433492,5.249928,-0.256295,0.185022,-0.035692,-158.348968,188.495296,969.907158,-1270.454095,0
0.042709,-193.670744,76.801199,57.182387,3.957258,4.250698,2.363782,-6.068877,-3.745460,-2.063540,5.904571,-0.263601,0.190575,-0.020755,-170.179228,188.495302,971.567262,-1271.923794,0
0.043750,-170.316536,28.151398,143.972160,5.597208,2.631772,4.161551,-6.080071,-2.120778,-3.931069,5.979286,-0.278213,0.200700,-0.091706,-154.775008,188.495260,974.065335,-1272.656099,0
0.044792,-119.184543,-18.215111,191.946591,6.502008,0.245985,5.054482,-4.516627,0.136132,-4.845948,4.566821,-0.183235,0.227287,-0.024490,-107.748029,188.495278,976.271710,-1272.451795,0
0.045834,-64.218786,-85.022510,199.111364,6.637728,-2.278263,6.205371,-3.102438,2.782672,-5.995841,3.143682,-0.175929,0.205861,-0.035692,-55.450590,188.495213,978.685056,-1272.782984,0
0.046875,-19.427252,-154.668922,160.271402,5.947818,-4.145710,5.673581,-0.792720,4.686711,-5.555189,0.976954,-0.113828,0.191489,-0.043161,-15.424501,188.440876,979.934738,-1273.180124,0
0.047917,29.458926,-206.737618,95.505303,4.771578,-5.572921,4.395697,1.785657,6.079820,-4.283591,-1.542002,-0.095563,0.176595,-0.035692,26.388568,188.520148,982.112788,-1273.946034,0
0.048958,103.049069,-181.585176,47.838637,3.810228,-6.137416,2.494746,3.998359,6.756158,-2.462226,-3.698057,-0.048074,0.178947,-0.043161,94.440836,188.372747,982.703241,-1274.984496,0
0.050000,177.115597,-132.778324,1.846212,2.916738,-5.672329,0.486642,5.300607,6.259932,-0.502371,-5.064270,-0.004238,0.189595,-0.020755,163.194325,188.511267,985.314660,-1275.214513,0
0.051042,193.131208,-76.722929,-56.986174,1.774428,-4.032101,-2.081032,6.013299,4.660981,2.099579,-5.683336,0.014027,0.195082,-0.039427,176.336545,188.440599,986.532166,-1275.564682,0
0.052083,170.117274,-28.073129,-143.874432,0.213648,-2.438026,-3.918486,6.050612,2.973811,3.975501,-5.864786,-0.022503,0.218142,-0.039427,158.964385,188.498009,988.482220,-1276.478235,0
0.053125,118.871857,18.559161,-191.898107,-0.736392,-0.069990,-4.843166,4.498363,0.768361,4.898773,-4.395395,-0.037115,0.196911,-0.035692,112.333256,188.501836,989.727281,-1276.067904,0
0.054167,63.475085,85.439045,-199.272160,-0.894732,2.422305,-5.926589,3.039397,-1.834070,6.048667,-2.943794,-0.062686,0.195605,-0.046895,60.386427,188.571288,991.420775,-1275.860643,0
0.055209,19.057853,154.892162,-160.185985,-0.148272,4.335905,-5.486077,0.725948,-3.738108,5.691948,-0.791296,-0.106522,0.191228,-0.069301,20.179378,188.495247,992.915172,-1275.836680,0
0.056261,-30.486190,207.685713,-94.558144,1.027968,5.802170,-4.089135,-1.889743,-5.138569,4.369990,1.773911,-0.117481,0.187831,-0.069301,-22.176571,188.495265,994.084160,-1276.276748,0
0.057312,-105.074473,180.080847,-46.115909,2.000628,6.366664,-2.239775,-4.139759,-5.803880,2.502461,3.969103,-0.183235,0.181037,-0.020755,-92.128920,188.495275,994.491475,-1276.391801,0
0.058347,-179.311139,131.720989,-1.059091,2.848878,5.894477,-0.176111,-5.400962,-5.362790,0.479656,5.246370,-0.248989,0.191424,-0.076769,-159.389488,188.495302,995.811904,-1276.109293,0
0.059384,-193.080934,76.330044,58.290341,3.979878,4.250698,2.407437,-6.132310,-3.738108,-2.055147,5.929476,-0.238030,0.195735,-0.035692,-169.828618,188.495217,996.212166,-1275.909027,0
0.060428,-170.123713,28.030589,145.523296,5.642448,2.685026,4.173456,-6.195744,-2.157536,-3.931069,6.050443,-0.238030,0.205991,-0.031958,-154.288678,188.495200,997.779072,-1276.371264,0
0.061461,-118.844268,-18.360082,192.192804,6.547248,0.288588,5.114011,-4.583792,0.125105,-4.854341,4.595284,-0.234377,0.192992,-0.017021,-106.854539,188.495161,998.320800,-1276.388492,0
0.062502,-63.674346,-85.602394,199.357576,6.615108,-2.299565,6.225214,-3.143483,2.790024,-6.042005,3.225513,-0.168623,0.193253,-0.020755,-54.726750,188.495231,999.851804,-1276.686015,0
0.063542,-19.211744,-154.983025,159.889773,5.925198,-4.152810,5.733110,-0.815108,4.642602,-5.655909,1.012532,-0.146705,0.227418,-0.035692,-15.978691,188.495148,1001.358602,-1276.455957,0
0.064583,29.368186,-207.389987,95.308334,4.748958,-5.604874,4.443320,1.770731,6.094523,-4.388508,-1.474403,-0.066339,0.194951,-0.039427,26.139748,188.495269,1003.242520,-1276.327076,0
0.065625,103.332631,-181.343558,48.146402,3.832848,-6.201321,2.574117,3.990896,6.796592,-2.571340,-3.623342,-0.077298,0.182148,-0.061832,94.520006,188.495193,1004.997332,-1275.595588,0
0.066667,178.658177,-132.367573,2.584848,2.916738,-5.757536,0.534265,5.311801,6.318744,-0.540141,-5.089175,-0.037115,0.193776,-0.031958,164.144365,188.495215,1006.253673,-1276.135897,0
0.067708,193.017783,-77.085356,-57.170834,1.740498,-4.120858,-2.092937,6.065538,4.774929,2.011448,-5.761608,0.035945,0.199590,-0.039427,175.273405,188.495265,1008.448001,-1276.293526,0
0.068750,170.219357,-28.749659,-144.588447,0.145788,-2.505481,-3.942297,6.121508,3.117166,3.988091,-5.943058,0.010374,0.204750,-0.039427,158.772115,188.495251,1010.734198,-1276.823459,0
0.069792,118.599637,18.402109,-192.341288,-0.770322,-0.080641,-4.894758,4.602841,0.738955,4.974314,-4.473668,-0.015197,0.221604,-0.031958,111.541556,188.495284,1011.601614,-1278.166458,0
0.070833,63.690592,85.946443,-199.370645,-0.872112,2.479110,-6.045647,3.162532,-1.889206,6.166174,-3.068318,-0.051727,0.207298,-0.046895,59.820927,188.495211,1013.683854,-1279.782518,0
0.071875,19.420813,155.556612,-159.201137,-0.148272,4.406911,-5.597197,0.781918,-3.796920,5.822045,-0.862453,-0.102869,0.177118,-0.039427,20.552608,188.495237,1015.681828,-1280.662806,0
0.072917,-29.476707,208.048140,-94.742803,1.061898,5.862525,-4.299470,-1.822578,-5.215760,4.508481,1.688523,-0.194194,0.172937,-0.050629,-21.237841,188.492164,1017.843768,-1281.318867,0
0.073958,-103.747400,181.059400,-47.937879,1.944078,6.494474,-2.382644,-4.143490,-5.928855,2.640952,3.919293,-0.194194,0.183585,-0.028224,-90.285390,188.494160,1019.672867,-1282.379250,0
0.075000,-179.492619,132.542490,-2.499432,2.803638,6.043589,-0.299138,-5.464395,-5.495117,0.592966,5.331758,-0.223418,0.193188,-0.050629,-159.140668,188.570419,1021.717222,-1283.901883,0
0.076042,-193.137647,77.429406,57.477841,3.957258,4.445964,2.316159,-6.262908,-3.907193,-2.034163,6.046885,-0.238030,0.199851,-0.020755,-170.541148,188.495074,1023.908453,-1285.507022,0
0.077083,-170.724866,29.311165,145.092425,5.642448,2.819936,4.232985,-6.289028,-2.300890,-3.977232,6.206988,-0.248989,0.209519,-0.013287,-154.989898,188.498599,1026.326793,-1287.241557,0
0.078125,-118.299828,-17.695632,192.734470,6.513318,0.327641,5.252911,-4.736778,0.069969,-4.976045,4.709135,-0.216112,0.221865,-0.069301,-105.983669,188.495562,1028.267536,-1288.617479,0
0.079167,-64.162074,-85.783607,199.554546,6.649038,-2.260512,6.368083,-3.236767,2.756942,-6.159512,3.285996,-0.194194,0.203966,0.016587,-55.077360,188.496201,1029.924569,-1289.563421,0
0.080208,-20.107802,-155.659556,158.597160,5.891268,-4.220265,5.860105,-0.919587,4.734496,-5.723056,1.055226,-0.117481,0.193318,-0.002084,-16.193581,188.496174,1030.848964,-1290.617530,0
0.081250,29.345501,-208.404783,94.569697,4.692408,-5.697181,4.574283,1.729686,6.201120,-4.493425,-1.506423,-0.124787,0.199524,-0.039427,26.151058,188.496181,1032.483190,-1292.211737,0
0.082292,103.219206,-180.425409,47.887879,3.844158,-6.336231,2.629677,4.020747,6.917891,-2.651077,-3.722962,-0.018850,0.183193,-0.013287,95.356946,188.496156,1033.732699,-1293.751773,0
0.083333,179.644975,-132.053470,3.015720,2.916738,-5.828541,0.573951,5.371503,6.495180,-0.569518,-5.114080,-0.011544,0.195997,-0.031958,164.268775,188.571746,1035.982236,-1294.847886,0
0.084375,192.473343,-77.254489,-57.441667,1.751808,-4.255768,-2.069126,6.192404,4.833741,2.040825,-5.882575,0.046904,0.202725,-0.046895,176.675845,188.496156,1037.006593,-1296.322236,0
0.085417,170.548289,-29.486595,-145.376326,0.111858,-2.619090,-3.978015,6.218524,3.164950,4.030058,-6.010657,-0.004238,0.211544,-0.020755,159.009625,188.496196,1038.183225,-1297.537056,0
0.086460,117.975799,17.967196,-192.956819,-0.781632,-0.130345,-4.990004,4.681200,0.738955,5.041461,-4.519920,-0.048074,0.224021,-0.058098,110.501036,188.495595,1038.883705,-1298.411605,0
0.087500,63.860730,86.417599,-199.432198,-0.906042,2.461358,-6.125019,3.203577,-1.845097,6.245911,-3.164380,-0.044421,0.206318,-0.009553,60.284637,188.571666,1040.888616,-1298.700543,0
0.088542,20.180760,156.100253,-158.228599,-0.125652,4.449514,-5.680537,0.845351,-3.859408,5.859816,-0.873127,-0.113828,0.198152,-0.050629,20.948458,188.496176,1041.237463,-1299.482008,0
0.089583,-29.522077,208.785075,-94.213447,1.073208,5.990335,-4.327250,-1.822578,-5.303978,4.588218,1.699197,-0.150358,0.181299,-0.039427,-20.853301,188.494853,1042.618537,-1300.643858,0
0.090625,-103.361755,180.431193,-47.519318,1.944078,6.569030,-2.390581,-4.154684,-5.991343,2.716493,3.969103,-0.183235,0.182017,-0.039427,-90.421110,188.496181,1043.556975,-1301.201826,0
0.091667,-180.331964,131.527694,-3.139583,2.803638,6.118145,-0.346761,-5.486783,-5.645823,0.634933,5.338874,-0.223418,0.195866,-0.013287,-159.446038,188.495468,1045.510956,-1301.639525,0
0.092709,-192.820057,77.211950,57.502462,4.002498,4.463715,2.328065,-6.289028,-3.988059,-2.021573,6.100253,-0.281866,0.200177,-0.046895,-170.394118,188.488214,1046.701845,-1301.977023,0
0.093750,-170.668153,30.217233,145.806440,5.619828,2.841238,4.248860,-6.359924,-2.330296,-3.939462,6.274587,-0.267254,0.208082,-0.028224,-154.616668,188.495309,1047.710867,-1302.273520,0
0.094792,-118.220431,-17.127830,193.091478,6.547248,0.366694,5.272754,-4.785286,0.040563,-5.001225,4.787408,-0.216112,0.223107,-0.054364,-105.644369,188.495039,1048.794171,-1302.768594,0
0.095834,-64.763226,-86.266843,199.566857,6.671658,-2.274713,6.435549,-3.285275,2.771645,-6.251840,3.353595,-0.179582,0.208212,-0.050629,-55.575000,188.494554,1050.190305,-1303.922744,0
0.096875,-20.845064,-156.324006,157.957008,5.857338,-4.255768,5.939476,-0.915855,4.763902,-5.802794,1.108594,-0.164970,0.199720,-0.054364,-17.087071,188.496248,1051.472233,-1304.504650,0
0.097917,29.277446,-208.984666,94.397349,4.692408,-5.835642,4.613969,1.733417,6.285662,-4.610933,-1.495750,-0.106522,0.188876,-0.031958,25.834378,188.496018,1053.300746,-1305.628386,0
0.098959,103.502769,-180.050901,47.777083,3.832848,-6.403687,2.724923,4.069255,6.954649,-2.684651,-3.808350,-0.000585,0.184499,-0.043161,95.390876,188.496201,1053.702097,-1306.627661,0
0.100000,180.733855,-130.929945,3.446591,2.950668,-5.952801,0.597762,5.453593,6.542965,-0.607288,-5.160332,-0.015197,0.195343,-0.069301,164.822965,188.496235,1054.793478,-1306.969620,0
0.101042,192.382603,-76.179289,-57.466288,1.808358,-4.330324,-2.136592,6.289420,4.881526,2.103776,-5.925269,0.017680,0.201680,-0.024490,175.703185,188.496190,1055.270943,-1307.635971,0
0.102084,170.344124,-29.546999,-145.954925,0.111858,-2.693646,-4.005795,6.326734,3.253168,4.067828,-6.131624,0.024986,0.207037,-0.024490,158.772115,188.496107,1057.353945,-1308.661956,0
0.103125,117.420017,17.363151,-193.781629,-0.826872,-0.119694,-5.105093,4.800603,0.749983,5.142181,-4.615981,-0.004238,0.234081,-0.024490,109.878986,188.496275,1058.784371,-1310.108477,0
0.104167,64.688732,86.864592,-199.321402,-0.894732,2.468459,-6.240107,3.278205,-1.863476,6.388599,-3.214190,-0.051727,0.206253,-0.035692,60.838827,188.420788,1060.215631,-1311.824033,0
0.105209,21.190243,157.537880,-156.960607,-0.103032,4.481467,-5.803563,0.875202,-3.896166,6.015093,-0.933610,-0.091910,0.208082,-0.046895,21.966358,188.496208,1062.454724,-1312.837062,0
0.106250,-29.578789,209.219988,-94.213447,1.061898,6.036488,-4.398685,-1.848698,-5.421602,4.701529,1.681407,-0.146705,0.193972,-0.024490,-21.034261,188.496098,1064.390192,-1314.248657,0
0.107292,-104.201100,179.790906,-47.753220,1.944078,6.668438,-2.489796,-4.229312,-6.142049,2.737476,4.001123,-0.212459,0.182932,-0.046895,-91.416390,188.496187,1065.759181,-1315.670318,0
0.108334,-181.023856,131.237752,-3.385795,2.814948,6.242405,-0.382478,-5.576336,-5.715662,0.697884,5.445609,-0.227071,0.195670,-0.002084,-159.547828,188.420830,1067.294047,-1316.878538,0
0.109375,-192.525152,76.064264,57.797917,3.979878,4.563123,2.391562,-6.464402,-4.072602,-2.067737,6.228335,-0.252642,0.199916,-0.028224,-171.231058,188.496139,1068.778461,-1318.194433,0
