1-Time,2-VGERA,3-VGERB,4-VGERC,5-VN,6-IGERAN,7-IGERBN,8-IGERCN,9-IGERAT,10-IGERBT,11-IGERCT,12-IN,13-IFD,14-IFAULT,15-VFAULT,16-Speed (rad/s),17-Active Power,18-Reactive Power,19-FAULT 
0.000000,72.651167,66.097518,-198.164205,-0.804252,2.127632,-5.990087,3.311787,-1.543686,5.943750,-3.210632,-0.077298,0.204946,-0.035692,13.608268,188.778246,993.694797,-1284.275723,0
0.001042,28.959856,145.601947,-168.951137,-0.340542,4.151291,-5.874998,1.143861,-3.649890,5.994110,-1.239585,-0.088257,0.188419,-0.058098,8.292568,188.572106,993.661322,-1284.991116,0
0.002083,-13.347671,195.326948,-103.274053,0.903558,5.660159,-4.589177,-1.445710,-5.054027,4.680545,1.290044,-0.197847,0.191359,-0.054364,19.930558,188.667693,993.454738,-1285.346415,0
0.003126,-88.990807,189.238173,-55.225758,1.830978,6.490924,-2.993806,-3.714383,-6.068534,3.220096,3.463889,-0.223418,0.175615,-0.043161,21.118108,188.733202,994.747425,-1285.313479,0
0.004167,-159.155515,141.832705,-12.975758,2.667918,6.139446,-0.763462,-5.262901,-5.642147,1.008439,5.015110,-0.248989,0.188615,-0.058098,11.776048,188.797282,995.550487,-1285.036197,0
0.005208,-198.491307,85.837715,41.621780,3.708438,4.676732,1.704997,-6.076340,-4.296822,-1.492790,5.861877,-0.263601,0.196258,-0.050629,-0.099452,188.571058,996.296954,-1284.305098,0
0.006250,-173.220216,38.625542,125.432387,5.325768,2.947746,3.740881,-6.210669,-2.488353,-3.553366,5.975728,-0.263601,0.201811,-0.076769,-14.203021,188.721829,996.281257,-1284.295596,0
0.007292,-127.328459,-3.162305,188.191857,6.468078,0.711071,4.983048,-5.027825,-0.385824,-4.824964,5.015110,-0.245336,0.210825,-0.039427,-22.923031,188.721844,997.266918,-1284.738905,0
0.008333,-74.018706,-65.584336,197.917235,6.626418,-1.944537,6.090282,-3.449455,2.352610,-5.911908,3.385616,-0.201500,0.195801,-0.020755,-8.932561,188.797351,996.898721,-1284.908653,0
0.009375,-29.964435,-145.511597,169.110417,6.151398,-4.032101,5.991068,-1.333769,4.506599,-5.974858,1.411011,-0.164970,0.193972,-0.058098,-3.854371,188.571183,996.302793,-1284.919847,0
0.010417,12.978272,-194.958737,103.888826,4.895988,-5.555170,4.693341,1.296847,5.903384,-4.690670,-1.086597,-0.073645,0.183846,-0.031958,-15.865591,188.797275,996.232585,-1284.349028,0
0.011458,88.439928,-189.171984,56.025190,4.002498,-6.421438,3.086064,3.576714,6.984055,-3.158877,-3.360062,-0.022503,0.175289,-0.039427,-17.460301,188.728779,995.924119,-1285.166979,0
0.012500,159.058336,-141.573222,13.258144,3.154248,-6.034458,0.883500,5.128964,6.531938,-0.959810,-4.865031,-0.037115,0.187308,-0.069301,-6.919381,188.797753,995.925171,-1285.298005,0
0.013542,198.167278,-85.264128,-41.043940,2.147658,-4.610796,-1.600833,5.957328,5.186613,1.528829,-5.747377,-0.007891,0.194951,-0.020755,3.372718,188.571476,996.170381,-1285.428088,0
0.014583,172.737392,-37.822418,-125.310038,0.575568,-2.853408,-3.664497,6.076732,3.356089,3.568421,-5.822092,0.010374,0.182540,-0.046895,19.760908,188.722404,996.349407,-1284.923536,0
0.015625,126.664155,3.880862,-187.946402,-0.600672,-0.620283,-4.795543,4.920007,1.202100,4.869396,-4.911283,0.010374,0.197173,-0.031958,25.676038,188.722317,997.785104,-1285.489006,0
0.016667,72.719222,66.049194,-198.139584,-0.826872,2.067277,-6.025804,3.401340,-1.540010,5.981520,-3.317367,-0.073645,0.196585,-0.061832,13.630888,188.722440,999.197015,-1285.844928,0
0.017708,29.243418,145.324086,-169.271213,-0.306612,4.161941,-5.930558,1.188637,-3.627836,6.099027,-1.360552,-0.080951,0.200635,-0.031958,9.186058,188.571630,1001.283129,-1285.976688,0
0.018750,-13.109479,195.604809,-103.766478,0.903558,5.663709,-4.680454,-1.430784,-5.105487,4.701529,1.261581,-0.172276,0.188550,-0.031958,19.930558,188.646915,1001.828745,-1286.645414,0
0.019792,-88.775300,189.177768,-56.198296,1.819668,6.565480,-3.029523,-3.695726,-6.127346,3.249473,3.488793,-0.212459,0.180972,-0.073035,22.350898,188.722502,1002.116977,-1287.682738,0
0.020833,-160.187683,142.026000,-13.849811,2.622678,6.203351,-0.838865,-5.285289,-5.693607,1.025226,5.086267,-0.259948,0.190901,-0.050629,11.990938,188.722433,1002.883432,-1289.074839,0
0.021875,-198.355197,86.212223,41.203220,3.674508,4.729986,1.701029,-6.094997,-4.362986,-1.505380,5.957939,-0.245336,0.199328,-0.058098,0.680938,188.571616,1003.695758,-1290.452035,0
0.022917,-173.242901,38.830918,125.850947,5.280528,2.986799,3.812315,-6.292759,-2.550841,-3.549170,6.050443,-0.259948,0.205991,-0.073035,-13.942891,188.722358,1005.085505,-1290.959500,0
0.023958,-127.430541,-3.150224,187.896402,6.434148,0.753674,4.998922,-5.106184,-0.415230,-4.871128,5.025783,-0.267254,0.217946,-0.065566,-23.533771,188.722378,1005.433286,-1291.309806,0
0.025000,-73.304129,-65.656821,198.532766,6.649038,-1.969389,6.165686,-3.546471,2.378340,-6.037808,3.463889,-0.208806,0.199394,-0.061832,-9.271861,188.647029,1007.109720,-1292.679499,0
0.026042,-29.907722,-144.919632,169.208902,6.117468,-4.046302,6.054565,-1.307649,4.543357,-6.054595,1.482168,-0.157664,0.185675,-0.039427,-4.408561,188.571583,1008.298115,-1293.278509,0
0.027083,12.842162,-195.997694,103.470265,4.907298,-5.587123,4.832241,1.274459,6.006305,-4.799784,-1.093713,-0.106522,0.164771,-0.046895,-16.193581,188.647029,1009.958363,-1294.848764,0
0.028125,87.963543,-188.990770,56.123674,4.002498,-6.456941,3.169405,3.565520,7.017137,-3.288975,-3.324483,-0.044421,0.180711,-0.069301,-16.216201,188.722315,1011.510518,-1294.576340,0
0.029167,159.670831,-141.657788,13.725947,3.222108,-6.101913,0.998589,5.162546,6.605453,-1.039547,-4.918398,-0.018850,0.191555,-0.054364,-7.586671,188.647043,1013.048886,-1295.373062,0
0.030208,198.019825,-85.445342,-40.822349,2.204208,-4.703103,-1.584959,5.964791,5.234398,1.478468,-5.733145,-0.011544,0.199851,-0.058098,4.141798,188.571569,1013.701984,-1294.914128,0
0.031250,173.145722,-38.390221,-125.568561,0.552948,-2.931514,-3.652591,6.140165,3.392847,3.597798,-5.896806,-0.026156,0.209192,-0.080503,19.851388,188.722326,1014.654240,-1296.081184,0
0.032292,127.344705,3.035199,-187.983334,-0.600672,-0.677088,-4.886820,4.938664,1.312372,4.873593,-4.918398,-0.055380,0.200700,-0.061832,26.852278,188.722413,1015.487669,-1295.908195,0
0.033333,73.966898,65.626363,-198.545834,-0.838182,2.028224,-6.053584,3.412534,-1.473846,5.981520,-3.335157,-0.048074,0.195670,-0.061832,13.585648,188.646955,1015.860529,-1295.927883,0
0.034375,30.252901,145.505300,-169.332766,-0.306612,4.119338,-5.950401,1.222220,-3.602106,6.090634,-1.346320,-0.073645,0.197499,-0.065566,8.349118,188.571625,1015.499682,-1296.005482,0
0.035417,-12.667121,195.725618,-103.852652,0.903558,5.692111,-4.660611,-1.397202,-5.054027,4.819036,1.197540,-0.168623,0.188680,-0.054364,20.088898,188.722367,1017.027243,-1295.427072,0
0.036458,-88.548450,189.503952,-56.346023,1.830978,6.547728,-3.065240,-3.695726,-6.131022,3.304030,3.449657,-0.208806,0.183062,-0.069301,21.208588,188.722300,1017.768823,-1295.133030,0
0.037500,-159.552503,142.291780,-13.739015,2.633988,6.192701,-0.882519,-5.289021,-5.715662,1.075586,5.057804,-0.256295,0.190967,-0.043161,11.957008,188.571610,1018.267885,-1294.662577,0
0.038542,-198.684129,86.055171,40.932386,3.663198,4.779690,1.673249,-6.139773,-4.421798,-1.442430,5.925918,-0.270907,0.199655,-0.020755,-0.099452,188.571491,1019.208577,-1293.928044,0
0.039583,-173.481093,38.359762,125.063069,5.212668,2.997450,3.736912,-6.274102,-2.580247,-3.532383,6.032654,-0.252642,0.209192,-0.050629,-14.350051,188.722344,1019.286098,-1293.417323,0
0.040625,-127.044896,-2.969010,188.204167,6.456768,0.796278,4.963205,-5.065139,-0.418906,-4.841751,5.068477,-0.230724,0.198479,-0.054364,-23.149231,188.722386,1019.747911,-1293.205726,0
0.041667,-72.997881,-65.137342,198.421970,6.671658,-1.894833,6.177591,-3.561397,2.337907,-5.970661,3.467446,-0.223418,0.210433,-0.035692,-8.921251,188.570846,1019.472239,-1292.065984,0
0.042708,-29.805640,-145.233736,169.467425,6.117468,-3.978847,6.106157,-1.430784,4.436760,-6.083972,1.535536,-0.168623,0.214810,-0.035692,-3.820441,188.494102,1020.652617,-1290.975508,0
0.043750,12.513230,-195.164112,104.270455,4.952538,-5.530318,4.844147,1.207294,5.929114,-4.774604,-1.058135,-0.113828,0.177902,-0.050629,-16.001311,188.721969,1020.057212,-1289.971343,0
0.044792,87.986228,-189.461925,56.985417,4.025118,-6.424988,3.201153,3.539400,7.017137,-3.293171,-3.278231,-0.059033,0.181821,-0.028224,-17.573401,188.721915,1020.236223,-1289.903225,0
0.045833,158.944911,-142.285995,14.353788,3.199488,-6.109013,1.018432,5.099113,6.616480,-1.081514,-4.900609,-0.011544,0.194233,-0.020755,-6.953311,188.571123,1020.311187,-1289.819688,0
0.046875,198.382785,-86.629270,-40.613068,2.125038,-4.706654,-1.517493,5.953597,5.274831,1.444895,-5.772282,0.003068,0.203836,-0.046895,3.304858,188.497603,1021.080224,-1290.557238,0
0.047917,173.168407,-39.151318,-124.989963,0.564258,-2.952816,-3.612905,6.147628,3.455335,3.492881,-5.882575,0.014027,0.209976,-0.054364,19.670428,188.721880,1021.565478,-1289.370379,0
0.048958,127.787062,2.950633,-188.007955,-0.623292,-0.673537,-4.863009,4.949858,1.301345,4.877790,-4.939746,-0.026156,0.220102,-0.061832,25.698658,188.646435,1021.695889,-1289.779708,0
0.050000,73.649308,65.336421,-198.410417,-0.838182,2.038875,-6.049615,3.416265,-1.451792,6.015093,-3.349388,-0.011544,0.199981,-0.061832,13.574338,188.571102,1022.070940,-1289.755434,0
0.051042,29.889941,145.154954,-169.677463,-0.306612,4.115788,-5.974212,1.274459,-3.598430,6.103224,-1.389014,-0.146705,0.189660,-0.039427,8.971168,188.495720,1022.628313,-1289.604833,0
0.052083,-12.462956,195.677294,-103.729546,0.926178,5.667259,-4.732046,-1.397202,-5.087109,4.810643,1.215329,-0.143052,0.191228,-0.046895,19.738288,188.722011,1022.395384,-1290.058694,0
0.053125,-87.935955,189.636842,-56.050568,1.797048,6.576131,-3.057303,-3.677069,-6.119994,3.274653,3.449657,-0.216112,0.179731,-0.031958,22.509238,188.570924,1021.845332,-1289.975831,0
0.054167,-159.529818,142.086404,-14.009849,2.667918,6.256606,-0.842833,-5.289021,-5.737716,1.088176,5.025783,-0.248989,0.188484,-0.054364,12.183208,188.571147,1022.068227,-1289.650596,0
0.055208,-198.582047,85.873958,40.439962,3.674508,4.790341,1.716903,-6.091265,-4.425474,-1.438233,5.936592,-0.289172,0.199394,-0.046895,0.771418,188.495674,1021.983307,-1289.680037,0
0.056254,-173.186188,38.480571,125.949432,5.314458,3.040054,3.717069,-6.311416,-2.620680,-3.557563,6.036212,-0.285519,0.207559,-0.046895,-13.920271,188.721911,1022.616183,-1289.874598,0
0.057306,-126.852074,-3.826754,187.933334,6.422838,0.725272,4.987016,-5.076333,-0.389500,-4.866931,5.011552,-0.212459,0.218860,-0.080503,-23.375431,188.571082,1021.971550,-1289.778442,0
0.058335,-74.211529,-65.318556,198.532766,6.682968,-1.905484,6.173623,-3.553934,2.330555,-5.970661,3.527930,-0.212459,0.212328,-0.035692,-9.328411,188.571187,1022.656894,-1290.206426,0
0.059375,-30.849150,-144.798823,169.738258,6.117468,-3.996598,6.086314,-1.415859,4.469842,-6.113349,1.542651,-0.146705,0.196846,-0.050629,-4.510351,188.495978,1022.526497,-1291.122792,0
0.060416,12.150270,-195.284921,104.615152,4.907298,-5.565821,4.820336,1.244608,5.940142,-4.787194,-1.022556,-0.110175,0.189660,-0.084238,-16.261441,188.645573,1022.863127,-1291.217773,0
0.061458,87.441788,-189.498168,57.108523,4.002498,-6.432089,3.169405,3.528206,6.984055,-3.267991,-3.306694,-0.037115,0.181952,-0.069301,-16.408471,188.571339,1022.015619,-1291.328599,0
0.062500,158.570609,-142.527613,14.390720,3.188178,-6.080611,0.974778,5.147621,6.590750,-1.039547,-4.907725,-0.018850,0.190705,-0.046895,-7.711081,188.571355,1021.232573,-1291.545365,0
0.063542,198.292045,-86.013144,-40.120644,2.170278,-4.653399,-1.545273,5.964791,5.260128,1.423911,-5.743819,-0.011544,0.198675,-0.054364,3.972148,188.495828,1020.936670,-1290.822291,0
0.064583,173.338544,-38.571434,-124.239016,0.598188,-2.906662,-3.589093,6.073001,3.400198,3.513864,-5.861228,0.003068,0.207102,-0.035692,19.862698,188.721989,1019.996336,-1290.835403,0
0.065625,127.310677,2.841905,-188.007955,-0.623292,-0.655786,-4.823323,4.920007,1.231506,4.852609,-4.882820,-0.037115,0.222192,-0.043161,27.055858,188.571275,1018.684533,-1290.576004,0
0.066667,73.524540,64.478677,-198.619698,-0.860802,2.053076,-6.021835,3.390146,-1.495901,5.985717,-3.324483,-0.040768,0.196389,-0.073035,13.596958,188.571399,1017.720370,-1290.770157,0
0.067708,29.867256,145.070387,-169.812879,-0.272682,4.076735,-5.938495,1.263265,-3.631512,6.073847,-1.328531,-0.110175,0.220951,-0.050629,8.269948,188.496092,1016.747036,-1291.220076,0
0.068750,-12.224764,194.759146,-104.443561,0.903558,5.635307,-4.656643,-1.397202,-5.065054,4.726709,1.247350,-0.143052,0.182474,-0.061832,19.941868,188.722040,1015.120239,-1291.104866,0
0.069791,-87.822530,190.301292,-56.506061,1.830978,6.554829,-3.049366,-3.654681,-6.050155,3.228489,3.446099,-0.201500,0.180057,-0.058098,21.389548,188.495859,1014.183934,-1290.866734,0
0.070833,-158.089320,143.246171,-13.935985,2.633988,6.096843,-0.854739,-5.247976,-5.623768,1.050406,4.990205,-0.267254,0.187896,-0.054364,11.877838,188.571375,1012.316814,-1290.250961,0
0.071875,-199.035747,87.202857,40.279924,3.606648,4.733536,1.681186,-6.080071,-4.362986,-1.438233,5.915245,-0.274560,0.199916,-0.065566,0.149368,188.495767,1011.523599,-1290.522144,0
0.072917,-173.753313,39.592015,123.708902,5.223978,2.937095,3.732944,-6.199475,-2.503056,-3.507203,5.993518,-0.256295,0.204293,-0.046895,-14.123851,188.722139,1009.112781,-1290.303479,0
0.073958,-128.054379,-2.075023,188.167235,6.445458,0.789177,4.935425,-4.997974,-0.448312,-4.812374,5.000878,-0.238030,0.213961,-0.073035,-23.058751,188.495886,1009.018186,-1290.160541,0
0.075000,-74.665229,-63.844686,197.941857,6.615108,-1.909034,6.054565,-3.475575,2.323204,-5.861547,3.403405,-0.205153,0.200569,-0.050629,-8.955181,188.564442,1006.324820,-1289.105817,0
0.076042,-30.474847,-145.028360,170.206061,6.094848,-4.003698,6.010911,-1.359888,4.469842,-6.021022,1.499957,-0.179582,0.200373,-0.069301,-3.786511,188.559006,1005.280424,-1288.730257,0
0.077083,11.923420,-193.714404,105.156819,4.952538,-5.466413,4.713184,1.278190,5.855599,-4.732637,-1.072366,-0.110175,0.199916,-0.046895,-15.639391,188.722047,1003.493701,-1287.963478,0
0.078125,87.169568,-190.464640,56.468371,3.991188,-6.364633,3.161468,3.509549,6.954649,-3.221828,-3.278231,-0.059033,0.179077,-0.054364,-17.810911,188.496225,1003.144144,-1287.580238,0
0.079167,156.710439,-143.022930,13.775189,3.176868,-6.006055,0.946998,5.121501,6.495180,-0.989187,-4.882820,-0.011544,0.185675,-0.024490,-7.021171,188.496139,1001.292158,-1286.849949,0
0.080208,198.745745,-85.904416,-39.837500,2.158968,-4.646299,-1.529398,5.931209,5.216019,1.461682,-5.690451,-0.000585,0.197695,-0.058098,3.157828,188.496058,1000.377648,-1286.628899,0
0.081250,173.259147,-38.595596,-123.106440,0.632118,-2.807255,-3.581156,6.024493,3.330359,3.505471,-5.800744,-0.029809,0.205012,-0.084238,19.432918,188.722351,998.739169,-1286.113728,0
0.082292,127.696322,2.817743,-188.007955,-0.623292,-0.652236,-4.815386,4.875231,1.279291,4.823233,-4.886378,-0.018850,0.191685,-0.039427,25.755208,188.496203,999.172899,-1285.663092,0
0.083333,74.579393,63.935036,-197.917993,-0.815562,2.063727,-5.954369,3.352832,-1.499577,5.910176,-3.253326,-0.044421,0.184565,-0.035692,13.721368,188.496165,997.461244,-1285.174868,0
0.084375,30.559148,144.756284,-170.403788,-0.329232,4.144190,-5.926589,1.229682,-3.554321,6.048667,-1.321415,-0.099216,0.183193,-0.091706,9.084268,188.496158,997.071899,-1284.602786,0
0.085416,-11.816434,193.538974,-105.600758,0.869628,5.603354,-4.620925,-1.415859,-4.995215,4.726709,1.226003,-0.150358,0.193972,-0.035692,19.523398,188.646980,996.488473,-1283.924505,0
0.086458,-87.470912,190.639557,-56.715341,1.808358,6.547728,-3.037460,-3.632293,-6.035452,3.262063,3.460331,-0.197847,0.178882,-0.017021,22.667578,188.496358,996.588196,-1284.082491,0
0.087500,-157.193263,143.705245,-13.886742,2.633988,6.125245,-0.811085,-5.236782,-5.627444,1.021029,5.029341,-0.216112,0.188354,-0.046895,12.273688,188.496185,996.036760,-1284.766444,0
0.088541,-199.126487,86.924996,39.861364,3.629268,4.737087,1.677217,-6.046489,-4.329904,-1.442430,5.847646,-0.252642,0.195670,-0.035692,0.941068,188.496320,995.264761,-1283.978853,0
0.089583,-173.787341,39.217507,122.957955,5.201358,2.922894,3.705164,-6.150967,-2.528787,-3.461039,5.936592,-0.252642,0.211348,-0.043161,-13.750621,188.647065,995.037524,-1282.807408,0
0.090625,-128.133776,-2.377046,187.699432,6.434148,0.785627,4.951299,-5.009168,-0.418906,-4.871128,5.015110,-0.205153,0.218599,-0.061832,-23.601631,188.496246,994.953595,-1283.578082,0
0.091666,-74.324954,-63.482258,197.978788,6.660348,-1.940987,6.022817,-3.438261,2.341582,-5.865744,3.399847,-0.205153,0.204293,-0.002084,-9.554611,188.496161,994.740591,-1283.692540,0
0.092708,-29.998462,-144.400153,170.439963,6.128778,-3.971746,5.963288,-1.348694,4.480869,-5.995841,1.457263,-0.146705,0.171369,-0.054364,-4.532971,188.496027,993.956972,-1283.705852,0
0.093750,11.798652,-193.182844,105.513826,4.952538,-5.477064,4.673498,1.240877,5.851924,-4.661293,-1.086597,-0.077298,0.192926,-0.076769,-15.786421,188.571576,992.840585,-1283.606663,0
0.094792,86.647813,-190.682097,56.726894,4.070358,-6.343332,3.113845,3.494624,6.884810,-3.221828,-3.246210,-0.073645,0.179665,-0.031958,-16.645981,188.495993,992.332928,-1282.815428,0
0.095833,155.700956,-143.989403,14.082955,3.210798,-5.963452,0.958904,5.050605,6.487829,-0.997580,-4.793874,-0.037115,0.189072,-0.058098,-7.530121,188.496205,991.944243,-1282.020334,0
0.096875,198.711718,-86.955455,-39.480493,2.170278,-4.610796,-1.545273,5.841656,5.164558,1.436502,-5.747377,-0.018850,0.197826,-0.035692,3.644158,188.496214,991.573700,-1282.702943,0
0.097916,173.826272,-39.707039,-122.306250,0.598188,-2.807255,-3.541470,5.923746,3.311980,3.459307,-5.711798,-0.007891,0.200177,-0.058098,19.647808,188.571762,990.384912,-1282.006304,0
0.098958,128.671777,2.141212,-187.847917,-0.634602,-0.662887,-4.779669,4.860305,1.235182,4.781266,-4.829452,-0.018850,0.207951,-0.020755,26.942758,188.496145,989.114959,-1282.047011,0
0.100000,75.407395,63.186020,-197.819508,-0.815562,2.060177,-5.847218,3.281936,-1.477522,5.826242,-3.175054,-0.069992,0.200635,-0.024490,13.721368,188.494708,987.510913,-1281.347337,0
0.101042,30.354983,144.852931,-170.576137,-0.272682,4.087386,-5.851186,1.196100,-3.565348,6.015093,-1.335647,-0.106522,0.190509,-0.061832,8.326498,188.546576,987.445960,-1281.184384,0
0.102085,-11.816434,192.439612,-105.871591,0.903558,5.567852,-4.485993,-1.400933,-4.951106,4.609201,1.254466,-0.143052,0.182866,-0.046895,19.444228,188.637918,985.504891,-1280.447742,0
0.103125,-87.119295,191.436897,-56.173674,1.819668,6.476723,-2.950152,-3.632293,-5.991343,3.224293,3.431868,-0.194194,0.177967,-0.039427,21.593128,188.505351,985.071182,-1279.899584,0
0.104167,-155.333092,144.526747,-13.061932,2.656608,6.043589,-0.771399,-5.203199,-5.531874,0.995849,4.933279,-0.241683,0.184695,-0.054364,11.832598,188.514745,983.566797,-1278.295776,0
0.105208,-199.659584,86.924996,39.565909,3.640578,4.687383,1.637531,-5.997981,-4.289471,-1.459217,5.815625,-0.256295,0.191947,-0.114112,0.522598,188.498745,982.936968,-1278.180206,0
0.106250,-174.070903,38.951727,121.345266,5.201358,2.880291,3.649603,-6.061414,-2.425866,-3.444252,5.808510,-0.245336,0.200439,-0.043161,-13.795861,188.495622,980.397626,-1277.102358,0
0.107292,-128.122434,-2.195832,188.093372,6.479388,0.753674,4.895739,-5.001705,-0.319661,-4.799784,4.965300,-0.223418,0.182148,-0.039427,-23.070061,188.495736,978.957142,-1276.820968,0
0.108333,-74.971476,-62.648676,197.350948,6.671658,-1.926786,5.947413,-3.378559,2.308501,-5.765023,3.321575,-0.208806,0.208539,-0.050629,-9.158761,188.495774,977.210482,-1275.629943,0
0.109375,-30.406792,-144.835066,170.809281,6.162708,-3.961095,5.939476,-1.356157,4.403678,-5.941284,1.446589,-0.157664,0.180253,-0.024490,-4.012711,188.495738,976.855398,-1274.761323,0
0.110417,11.571802,-191.298223,107.237311,4.963848,-5.406058,4.625875,1.229682,5.760030,-4.619326,-1.068808,-0.113828,0.187439,-0.043161,-15.322711,188.571183,975.576490,-1273.774801,0
