1-Time,2-VGERA,3-VGERB,4-VGERC,5-VN,6-IGERAN,7-IGERBN,8-IGERCN,9-IGERAT,10-IGERBT,11-IGERCT,12-IN,13-IFD,14-IFAULT,15-VFAULT,16-Speed (rad/s),17-Active Power,18-Reactive Power,19-FAULT 
0.000000,-129.963340,180.307987,-33.217656,-0.350030,-0.119040,-4.504902,4.185728,0.192039,4.454458,-4.202950,-0.093995,0.572993,-0.044457,-21.181698,188.495658,1002.053206,1007.361012,0
0.001042,-170.835170,147.245783,38.671634,1.068642,1.767069,-5.109945,2.844183,-1.752489,5.123091,-2.843551,-0.093995,0.572097,-0.033307,-32.777773,188.495705,1001.650565,1007.921233,0
0.002083,-174.857943,93.594577,108.568050,2.419758,3.440349,-4.934156,1.019371,-3.450152,4.825441,-0.916783,-0.064826,0.573957,0.000144,-35.355929,188.495700,1000.794559,1007.937420,0
0.003125,-174.168648,9.265405,149.628548,3.241687,4.544860,-4.038855,-0.963952,-4.654089,3.932493,1.044256,0.004452,0.573337,-0.033307,-39.645351,188.495627,999.944348,1007.297254,0
0.004167,-144.777542,-66.607360,168.573005,3.523169,4.904469,-2.513981,-2.668914,-4.957921,2.366597,2.674012,0.000805,0.557835,0.007577,-39.656609,188.495758,999.042077,1007.764405,0
0.005208,-66.774157,-120.622662,183.738291,3.883467,4.588894,-0.318654,-4.323616,-4.642695,0.214030,4.372310,0.059144,0.553563,-0.007290,-24.322771,188.495678,998.728041,1007.624191,0
0.006250,9.014442,-156.820783,163.991824,3.489392,3.700882,1.410626,-4.942196,-3.772974,-1.464023,4.943486,0.070083,0.572166,-0.011006,-9.371716,188.495655,999.049713,1008.256752,0
0.007292,80.723768,-177.903076,113.768965,2.543610,1.998246,3.193051,-4.942196,-1.999352,-3.349137,4.897792,0.070083,0.563898,-0.011006,8.540279,188.495716,998.813538,1008.534789,0
0.008333,129.821944,-180.698389,33.652994,1.012346,0.156171,4.468549,-4.277223,-0.130783,-4.492283,4.109568,0.044560,0.576024,-0.011006,22.691993,188.495694,998.380263,1008.274200,0
0.009375,171.044071,-147.424775,-38.211993,-0.406326,-1.722599,5.081769,-2.939543,1.851724,-5.186799,2.723514,0.033621,0.574440,0.011294,33.218526,188.495749,998.685203,1007.631768,0
0.010417,175.021645,-93.914509,-108.071953,-1.768702,-3.436243,4.905979,-1.060605,3.537994,-4.932287,0.869095,-0.024718,0.554528,0.003860,35.931782,188.495627,999.432228,1007.745784,0
0.011458,174.264550,-9.702787,-149.351182,-2.556853,-4.526076,3.990237,0.849261,4.692557,-3.953063,-1.122406,-0.046595,0.546260,0.018727,40.896704,188.495555,999.325680,1006.676366,0
0.012500,145.178542,66.275684,-168.587278,-2.928410,-4.893024,2.481716,2.589018,5.041965,-2.382854,-2.759778,-0.075764,0.553081,-0.040740,37.834439,188.420345,999.748402,1006.237923,0
0.013542,67.570655,120.490650,-183.582441,-3.243670,-4.540754,0.364064,4.266917,4.734334,-0.225973,-4.427613,-0.083057,0.557421,-0.011006,24.380741,188.495636,999.433392,1005.913930,0
0.014583,-8.217944,156.630046,-163.860278,-2.917150,-3.594030,-1.389745,4.873899,3.792454,1.443452,-4.964519,-0.104934,0.540816,-0.003573,12.075393,188.495740,999.305729,1005.454164,0
0.015625,-80.232368,177.688849,-113.613116,-1.937591,-1.964784,-3.221228,4.827505,2.026427,3.306997,-4.972134,-0.123164,0.573131,-0.044457,-8.673700,188.420274,998.749509,1004.862710,0
0.016667,-129.771241,180.613357,-33.642964,-0.350030,-0.097023,-4.517166,4.116138,0.195837,4.454458,-4.130601,-0.101287,0.570168,-0.018440,-21.485673,188.495689,998.741550,1003.979136,0
0.017708,-171.117668,147.398468,38.136961,1.034864,1.726705,-5.109945,2.836450,-1.782872,5.127405,-2.809280,-0.075764,0.572373,-0.025873,-33.712214,188.495680,999.352421,1003.434157,0
0.018750,-174.903143,94.311023,108.203500,2.340943,3.462366,-4.925979,0.976843,-3.491929,4.851324,-0.874896,-0.021072,0.572304,-0.007290,-35.445996,188.495714,1000.489738,1003.125219,0
0.019792,-174.360746,10.369436,149.604245,3.207909,4.548530,-4.010238,-0.940755,-4.669280,3.885041,1.051871,-0.035656,0.566378,-0.018440,-39.138726,188.420291,1001.001152,1002.384198,0
0.020833,-145.297338,-65.714740,168.682370,3.500651,4.930155,-2.473100,-2.653449,-4.942729,2.332087,2.681628,0.026329,0.566241,0.015011,-40.320850,188.495673,1001.399362,1001.635817,0
0.021875,-68.084949,-120.047156,183.726139,3.905986,4.581555,-0.335007,-4.323616,-4.646493,0.157952,4.376117,0.091960,0.572166,-0.022156,-24.694296,188.495645,1002.277291,1000.852224,0
0.022917,7.590651,-156.609373,164.003976,3.534429,3.656848,1.418802,-4.965393,-3.716006,-1.520102,4.924447,0.077375,0.576989,-0.011006,-11.296889,188.495600,1002.985920,999.394356,0
0.023958,79.593775,-178.044016,114.546672,2.521092,1.957882,3.229845,-4.965393,-1.980363,-3.340509,4.867329,0.070083,0.578849,-0.003573,8.529020,188.420233,1003.186132,998.563776,0
0.025000,129.708944,-180.275568,34.746644,1.001086,0.071773,4.468549,-4.234695,-0.077612,-4.492283,4.067682,0.066437,0.578367,-0.033307,22.725768,188.495685,1003.689284,997.360864,0
0.026042,171.236170,-147.659675,-37.045432,-0.383808,-1.748286,5.102209,-2.900881,1.844128,-5.143661,2.734938,0.033621,0.577816,0.007577,32.227794,188.495714,1003.496083,996.955883,0
0.027083,174.919946,-94.959815,-107.585886,-1.768702,-3.450921,4.905979,-1.064471,3.556983,-4.902091,0.850056,0.029975,0.569410,-0.018440,36.337082,188.495622,1003.997488,996.183434,0
0.028125,174.535748,-11.347088,-149.351182,-2.579371,-4.573780,3.965708,0.884056,4.715345,-3.935808,-1.088136,-0.057533,0.571546,-0.051890,40.603987,188.495577,1004.373903,996.007939,0
0.029167,145.800038,65.065948,-168.575127,-2.917150,-4.940727,2.518510,2.565821,5.019177,-2.395795,-2.755970,-0.068472,0.579125,-0.025873,39.466896,188.495667,1004.469121,995.628602,0
0.030208,69.310843,120.009105,-183.327256,-3.232411,-4.570110,0.335447,4.232122,4.715345,-0.256170,-4.454268,-0.083057,0.580227,-0.025873,26.013198,188.495655,1004.924138,995.351992,0
0.031250,-6.511656,156.453871,-164.127615,-2.815817,-3.682098,-1.389745,4.904828,3.754475,1.447766,-4.994981,-0.123164,0.580778,-0.018440,12.401884,188.495642,1005.725187,994.666485,0
0.032292,-79.113676,177.418714,-114.342216,-1.926332,-2.001479,-3.241669,4.873899,2.041619,3.281115,-5.002597,-0.101287,0.579814,-0.025873,-8.077009,188.420269,1005.870866,994.709342,0
0.033333,-129.590442,180.448927,-35.076861,-0.372548,-0.122709,-4.500814,4.170264,0.192039,4.454458,-4.183911,-0.112226,0.581330,-0.011006,-20.922757,188.495662,1006.361355,994.944738,0
0.034375,-171.287167,147.386723,36.678760,0.989827,1.734044,-5.093593,2.867379,-1.790468,5.101522,-2.797857,-0.093995,0.575542,-0.014723,-32.811548,188.495638,1006.501829,994.250493,0
0.035417,-175.185641,95.544249,107.486551,2.352202,3.451357,-4.946420,1.030969,-3.503323,4.825441,-0.897744,-0.032010,0.572579,-0.014723,-35.412221,188.495683,1006.828252,993.928984,0
0.036458,-174.326847,11.990247,149.604245,3.207909,4.588894,-4.034767,-0.929157,-4.635099,3.941120,1.044256,0.008098,0.576024,-0.003573,-39.656609,188.420130,1006.830814,994.133292,0
0.037500,-145.930134,-64.328829,168.828190,3.579466,4.941163,-2.497629,-2.657315,-4.957921,2.370911,2.658781,0.029975,0.580985,0.000144,-39.870517,188.495691,1006.989843,994.395218,0
0.038542,-69.474839,-119.976686,183.118556,3.872208,4.570547,-0.335007,-4.346813,-4.673078,0.188148,4.418004,0.077375,0.578160,0.011294,-24.649262,188.495716,1007.612564,994.751477,0
0.039583,6.505858,-156.550648,164.453588,3.489392,3.748585,1.357480,-4.980858,-3.731197,-1.485592,4.951102,0.081021,0.584155,-0.007290,-9.900857,188.495667,1007.900956,995.052771,0
0.040625,79.130479,-177.398041,115.190711,2.554870,1.990907,3.209404,-4.946062,-2.003150,-3.383647,4.920639,0.110191,0.581399,0.015011,8.011137,188.495743,1008.776265,995.425452,0
0.041667,129.403846,-180.721879,35.840295,1.034864,0.115807,4.480813,-4.288821,-0.126985,-4.561304,4.109568,0.048206,0.579745,-0.011006,22.410535,188.495674,1009.651997,996.314365,0
0.042708,171.236170,-147.741890,-35.854568,-0.350030,-1.737277,5.118562,-2.958873,1.832734,-5.191113,2.742553,0.008098,0.578022,-0.033307,33.376143,188.495696,1010.168656,996.488394,0
0.043750,175.428442,-95.629280,-106.953999,-1.701146,-3.491285,4.955037,-1.130196,3.560781,-4.919346,0.876711,-0.010133,0.573888,-0.018440,36.010591,188.495589,1010.491112,996.780415,0
0.044792,174.388849,-12.063534,-149.278272,-2.500556,-4.566441,4.018854,0.868592,4.722940,-3.991887,-1.107175,-0.035656,0.577196,-0.014723,40.806637,188.420406,1010.941952,997.145274,0
0.045833,146.037336,64.314267,-168.878918,-2.962187,-4.962744,2.481716,2.604483,5.049560,-2.391481,-2.748355,-0.050241,0.579607,-0.033307,37.969539,188.495622,1011.359630,997.234864,0
0.046875,69.604641,119.915145,-182.938403,-3.243670,-4.610474,0.319094,4.270783,4.734334,-0.187149,-4.454268,-0.075764,0.578367,-0.025873,24.662199,188.495843,1011.939997,996.692390,0
0.047917,-6.421256,156.395146,-164.370648,-2.872113,-3.707784,-1.426538,4.897096,3.788656,1.430511,-5.017828,-0.119518,0.582639,0.000144,12.683342,188.495664,1012.076495,997.303419,0
0.048958,-79.079776,177.348244,-114.779676,-1.937591,-1.979462,-3.253933,4.912560,2.072002,3.306997,-4.968326,-0.141395,0.579332,-0.011006,-8.077009,188.420323,1012.135620,997.219988,0
0.050000,-129.296644,180.742552,-35.344198,-0.406326,-0.130048,-4.513078,4.170264,0.188241,4.497596,-4.202950,-0.104934,0.583121,-0.025873,-21.271765,188.495627,1012.849573,997.453441,0
0.051042,-171.095068,147.586389,36.314210,0.978568,1.759730,-5.105857,2.840316,-1.782872,5.136032,-2.839743,-0.079410,0.576713,-0.040740,-33.858572,188.495714,1013.097096,998.072808,0
0.052083,-175.163041,95.297604,107.219214,2.385980,3.513738,-4.921891,1.046434,-3.499525,4.851324,-0.939630,-0.046595,0.571408,-0.007290,-35.547321,188.495597,1012.867462,998.684722,0
0.053125,-174.462446,11.684877,149.409818,3.241687,4.537521,-4.006150,-0.963952,-4.661684,3.910924,1.036640,-0.002841,0.572373,-0.007290,-39.026143,188.495617,1013.000109,998.527089,0
0.054167,-145.817135,-64.575474,168.803886,3.590725,4.922816,-2.493541,-2.707575,-4.931336,2.370911,2.712091,0.044560,0.568652,0.000144,-40.388400,188.495598,1013.309961,998.235658,0
0.055208,-69.181041,-119.659571,183.385892,3.905986,4.541191,-0.326831,-4.335214,-4.661684,0.140697,4.395157,0.037267,0.575060,-0.029590,-24.953237,188.495579,1013.341318,997.621139,0
0.056250,7.116054,-156.233532,164.562953,3.568207,3.682534,1.377921,-4.965393,-3.746389,-1.507160,4.909215,0.070083,0.580847,0.003860,-11.589606,188.495714,1013.013045,997.463033,0
0.057292,79.254778,-177.574216,115.227166,2.599907,1.968890,3.201228,-4.942196,-1.949980,-3.383647,4.867329,0.055498,0.576438,-0.037023,8.180012,188.344838,1012.928448,996.460886,0
0.058333,129.189148,-180.815839,35.536503,1.068642,0.123146,4.444020,-4.246293,-0.066219,-4.509538,4.101953,0.088314,0.579332,-0.003573,22.579409,188.495584,1012.787275,995.698843,0
0.059375,170.772873,-148.059005,-36.061147,-0.338771,-1.751955,5.098121,-2.978204,1.866915,-5.126406,2.761592,-0.002841,0.577678,0.015011,32.295344,188.495687,1012.552081,995.212667,0
0.060417,175.168544,-95.147735,-106.953999,-1.723664,-3.439913,4.930508,-1.076070,3.575973,-4.902091,0.888134,-0.002841,0.572442,-0.037023,36.348340,188.495725,1012.360740,995.136610,0
0.061458,174.580948,-11.300108,-148.828660,-2.579371,-4.548093,3.973885,0.872458,4.673568,-3.983259,-1.091943,-0.028364,0.569134,0.007577,40.592729,188.495631,1011.516415,994.960817,0
0.062500,145.845238,65.007223,-168.477913,-2.984706,-4.962744,2.485805,2.608349,5.041965,-2.430305,-2.740739,-0.079410,0.582019,-0.044457,39.590738,188.495526,1011.001489,995.439209,0
0.063542,69.243044,119.821185,-182.926251,-3.176114,-4.610474,0.319094,4.251453,4.734334,-0.264797,-4.446652,-0.075764,0.584775,-0.018440,26.182073,188.495702,1010.231409,996.126536,0
0.064583,-7.313950,155.925346,-164.820260,-2.928410,-3.718792,-1.418362,4.916426,3.792454,1.404629,-4.998789,-0.112226,0.572373,0.003860,12.559501,188.495631,1009.668086,996.270576,0
0.065625,-79.396174,177.078109,-114.974103,-1.915073,-2.034504,-3.204876,4.873899,2.087194,3.315625,-4.960711,-0.134103,0.579056,0.000144,-7.919392,188.420291,1009.611994,996.365188,0
0.066667,-128.980246,181.224097,-34.955345,-0.383808,-0.126379,-4.529431,4.216657,0.161656,4.497596,-4.176295,-0.112226,0.576438,-0.040740,-20.843949,188.495758,1009.802681,995.884559,0
0.067708,-170.337973,147.539408,36.557243,1.001086,1.690010,-5.114034,2.871245,-1.737297,5.118777,-2.851166,-0.086703,0.575129,-0.022156,-32.777773,188.495611,1008.990956,995.928035,0
0.068750,-175.456839,95.168408,107.049091,2.352202,3.469705,-4.950508,1.003906,-3.469142,4.847010,-0.962477,-0.035656,0.569686,0.000144,-35.344671,188.495658,1008.506133,996.133467,0
0.069792,-174.315547,10.956686,148.899448,3.196650,4.555869,-4.030678,-0.944621,-4.585726,3.910924,1.017601,-0.006487,0.560453,-0.022156,-39.544026,188.420339,1007.256071,995.892706,0
0.070833,-145.760635,-65.103999,168.597308,3.568207,4.992536,-2.518069,-2.668914,-4.995900,2.405421,2.674012,0.019036,0.540816,-0.018440,-39.971842,188.495691,1007.103487,997.001609,0
0.071875,-68.943743,-120.058901,182.754005,3.860949,4.577886,-0.371800,-4.339081,-4.707259,0.183834,4.387541,0.062790,0.566585,0.007577,-24.761846,188.495629,1006.649583,997.907591,0
0.072917,7.873149,-156.022122,165.255598,3.500651,3.722898,1.369744,-5.004054,-3.765379,-1.476964,4.932062,0.091960,0.559488,0.007577,-9.731982,188.495765,1006.583141,998.575407,0
0.073958,79.751974,-176.963475,115.494503,2.588648,2.020263,3.180787,-4.953795,-1.987959,-3.327568,4.920639,0.077375,0.556181,-0.003573,8.191271,188.420274,1006.012522,999.526817,0
0.075000,128.737151,-181.649734,35.171953,1.046123,0.134154,4.513518,-4.257892,-0.123187,-4.535421,4.124800,0.051852,0.577058,0.022444,22.399276,188.495673,1006.031327,1000.385438,0
0.076042,170.332176,-147.694910,-36.316332,-0.372548,-1.737277,5.114474,-2.966606,1.844128,-5.199740,2.780632,0.037267,0.575887,-0.037023,33.308593,188.495627,1006.191716,1001.174581,0
0.077083,175.643141,-95.171225,-106.625904,-1.734924,-3.432574,4.946860,-1.126329,3.549388,-4.932287,0.910981,0.008098,0.545226,-0.025873,35.898007,188.495685,1006.033029,1001.711852,0
0.078125,174.445349,-10.912523,-148.391200,-2.579371,-4.529746,3.990237,0.891789,4.703951,-3.996201,-1.080520,-0.035656,0.550669,-0.040740,40.705312,188.420278,1006.101993,1002.001481,0
0.079167,146.127736,64.901517,-168.453610,-2.984706,-4.933388,2.530774,2.592884,5.068550,-2.469129,-2.771202,-0.057533,0.564863,-0.033307,38.149672,188.495703,1006.632287,1002.540489,0
0.080208,69.412543,120.009105,-182.598156,-3.266189,-4.592127,0.343623,4.235988,4.764717,-0.230287,-4.465691,-0.126811,0.548671,0.003860,24.583391,188.495656,1007.197848,1002.582126,0
0.081250,-7.246151,155.854876,-165.257720,-2.894632,-3.696776,-1.426538,4.924159,3.838028,1.430511,-5.014021,-0.126811,0.564794,-0.018440,12.266784,188.495629,1007.755532,1003.057193,0
0.082292,-79.396174,176.890189,-115.119923,-1.903813,-1.997810,-3.221228,4.881631,2.030225,3.306997,-4.964519,-0.104934,0.581261,0.015011,-8.335950,188.344878,1007.944425,1002.435317,0
0.083333,-128.788147,181.693898,-34.870283,-0.395067,-0.126379,-4.521254,4.220524,0.195837,4.463086,-4.187719,-0.093995,0.572235,-0.018440,-21.215473,188.495705,1007.421770,1002.749572,0
0.084375,-170.371873,147.797799,36.520788,0.989827,1.741383,-5.114034,2.851915,-1.782872,5.110150,-2.828319,-0.068472,0.570512,-0.029590,-33.667180,188.495600,1007.974334,1002.230794,0
0.085417,-175.547238,95.344584,106.733147,2.374721,3.407324,-4.934156,0.961379,-3.480536,4.877207,-0.935822,-0.061180,0.580158,-0.022156,-35.479771,188.495656,1008.528187,1002.185241,0
0.086458,-174.417246,11.496957,148.741476,3.185390,4.537521,-4.018414,-0.940755,-4.646493,3.915238,1.036640,0.000805,0.577678,-0.014723,-38.947335,188.420354,1009.517778,1002.233961,0
0.087500,-146.223932,-64.458024,168.633763,3.556947,4.911808,-2.542598,-2.661182,-4.988304,2.349342,2.715898,0.033621,0.571753,-0.037023,-40.579792,188.495468,1010.371186,1001.272560,0
0.088542,-69.757338,-119.600846,182.960584,3.804652,4.555869,-0.339095,-4.331348,-4.669280,0.183834,4.391349,0.073729,0.595730,-0.037023,-25.054562,188.495640,1010.556015,1000.667646,0
0.089583,6.833556,-155.869437,165.377115,3.511910,3.708221,1.386097,-4.976991,-3.734995,-1.524415,4.882560,0.073729,0.574784,-0.022156,-11.409473,188.495743,1010.821537,999.482122,0
0.090625,78.825381,-177.151395,115.931963,2.554870,2.001916,3.197140,-4.938330,-1.976565,-3.331881,4.874945,0.073729,0.580503,0.003860,8.315112,188.420365,1010.911891,998.669530,0
0.091667,128.737151,-181.367854,35.791688,1.034864,0.167179,4.509430,-4.254026,-0.119389,-4.535421,4.117184,0.081021,0.575266,0.015011,22.545634,188.494775,1011.005407,998.399673,0
0.092708,170.456475,-147.941555,-35.429260,-0.361289,-1.718930,5.098121,-2.939543,1.783362,-5.156603,2.769208,0.015390,0.575818,0.011294,32.205277,188.495524,1010.234497,998.026452,0
0.093750,175.620541,-96.028611,-106.164141,-1.701146,-3.410557,4.942772,-1.110865,3.549388,-4.871894,0.853864,-0.021072,0.560729,-0.025873,36.235757,188.495604,1010.544687,996.613138,0
0.094792,174.626147,-12.451119,-148.415503,-2.534334,-4.504060,4.051559,0.864726,4.669770,-3.961691,-1.103367,-0.032010,0.569341,0.003860,40.468887,188.420332,1010.785487,995.620154,0
0.095833,146.726632,63.727016,-168.562975,-2.939669,-4.962744,2.559391,2.577420,5.057156,-2.438933,-2.759778,-0.079410,0.574922,-0.011006,39.793388,188.495712,1011.045976,994.919666,0
0.096875,71.390030,119.492324,-182.318667,-3.209892,-4.614144,0.355888,4.224390,4.745728,-0.277738,-4.427613,-0.097641,0.578367,-0.048173,26.227107,188.495794,1010.700785,994.628022,0
0.097917,-5.585062,155.690445,-165.597967,-2.905891,-3.737140,-1.348864,4.897096,3.784858,1.391687,-4.968326,-0.134103,0.585946,-0.025873,12.548242,188.495743,1010.327219,993.543809,0
0.098958,-78.254881,176.620053,-116.067753,-1.937591,-2.030835,-3.184435,4.873899,2.072002,3.306997,-4.956903,-0.093995,0.580710,-0.025873,-7.728000,188.420245,1010.474841,993.463207,0
0.100000,-128.675148,181.564703,-36.097602,-0.417586,-0.166743,-4.508990,4.205059,0.211029,4.450144,-4.210566,-0.119518,0.579056,-0.029590,-20.686332,188.495714,1010.549028,993.528975,0
0.101042,-170.439672,147.739074,34.965374,0.989827,1.682672,-5.146739,2.875112,-1.752489,5.136032,-2.877821,-0.086703,0.577609,-0.029590,-32.822806,188.495727,1010.614135,994.028556,0
0.102083,-175.954036,96.613045,106.028350,2.307165,3.458696,-4.975037,1.073497,-3.450152,4.872893,-0.989132,-0.039302,0.571684,-0.007290,-35.333412,188.495662,1010.422998,994.259414,0
0.103125,-174.247747,13.387903,148.680718,3.129094,4.497157,-4.067472,-0.902094,-4.616109,3.949748,1.009985,-0.010133,0.576713,0.003860,-39.465218,188.344891,1010.290888,994.269673,0
0.104167,-147.082727,-62.907682,168.937555,3.590725,4.963180,-2.571215,-2.637985,-5.041475,2.401108,2.666396,0.026329,0.582363,-0.018440,-40.151975,188.495627,1010.548462,995.056734,0
0.105208,-72.096422,-119.459906,181.879085,3.815911,4.614580,-0.429034,-4.284955,-4.714855,0.244227,4.345655,0.095606,0.580158,-0.014723,-25.088337,188.495620,1010.197219,995.505110,0
0.106250,5.262867,-155.740242,165.936092,3.579466,3.737576,1.324775,-5.023385,-3.795762,-1.451081,4.916831,0.059144,0.583672,-0.014723,-10.047215,188.495758,1010.311012,996.479361,0
0.107292,78.158685,-176.317500,117.037765,2.588648,2.023933,3.176699,-4.938330,-2.063917,-3.305999,4.901600,0.088314,0.586704,-0.003573,7.763454,188.344919,1010.063592,997.235922,0
0.108333,128.488552,-181.837654,37.225585,1.079901,0.189196,4.497166,-4.327482,-0.161166,-4.526793,4.159070,0.070083,0.583948,-0.029590,22.162851,188.495562,1010.245087,997.762454,0
0.109375,170.377376,-147.812360,-33.837391,-0.316252,-1.667557,5.081769,-3.032330,1.760574,-5.139348,2.814902,0.037267,0.580227,-0.022156,33.454951,188.495691,1009.984771,997.813415,0
0.110417,176.196837,-97.132642,-105.349979,-1.712405,-3.450921,4.971389,-1.145660,3.515207,-4.936601,0.926213,0.008098,0.576162,-0.022156,35.909266,188.495673,1010.006455,998.963629,0
