1-Time,2-VGERA,3-VGERB,4-VGERC,5-VN,6-IGERAN,7-IGERBN,8-IGERCN,9-IGERAT,10-IGERBT,11-IGERCT,12-IN,13-IFD,14-IFAULT,15-VFAULT,16-Speed (rad/s),17-Active Power,18-Reactive Power,19-FAULT 
0.000000,139.957977,-170.926540,11.536951,0.528196,-3.924283,5.122650,-0.585072,4.229213,-5.083269,0.345086,0.004452,0.459032,-0.025873,51.929862,188.646156,1551.903339,35.209558,0
0.001042,185.112478,-124.110930,-49.610261,-0.631512,-5.146217,3.965708,1.649549,5.471128,-3.871102,-1.901541,-0.013779,0.457379,-0.029590,63.041828,188.495287,1552.406434,34.991404,0
0.002083,189.282151,-50.035151,-107.099820,-1.779961,-5.362716,2.162842,3.485960,5.657225,-2.055008,-3.679803,-0.072118,0.461926,-0.037023,59.394131,188.494952,1552.708879,35.864510,0
0.003125,163.721720,11.825817,-163.422818,-2.838335,-4.973752,0.139217,4.939623,5.277435,-0.044795,-5.092512,-0.104934,0.466611,-0.033307,43.722543,188.495716,1553.627888,36.201474,0
0.004167,110.713770,70.480397,-184.190025,-3.277448,-3.502294,-2.027494,5.434487,3.724091,2.120713,-5.522799,-0.101287,0.468196,-0.059323,20.046286,188.721992,1553.304927,36.338301,0
0.005208,34.529673,126.680271,-191.080023,-3.412560,-1.660218,-3.961180,5.438353,1.942874,4.018768,-5.465681,-0.104934,0.471503,-0.033307,-0.747839,188.495674,1553.485487,36.842431,0
0.006250,-31.529690,163.688797,-150.845838,-2.624408,0.335975,-5.077240,4.328775,-0.240922,5.032502,-4.258595,-0.057533,0.473157,-0.044457,-18.828709,188.495796,1552.714905,37.113127,0
0.007292,-83.599746,196.516101,-74.144486,-1.171959,2.728471,-5.649579,2.550357,-2.618411,5.623487,-2.472717,-0.002841,0.461306,-0.051890,-35.423479,188.495716,1552.216982,37.111063,0
0.008333,-140.268872,170.677078,-11.186675,0.077824,4.188921,-5.089505,0.539971,-4.107190,4.985051,-0.420291,-0.024718,0.459032,-0.033307,-50.914934,188.721958,1552.239564,37.724305,0
0.009375,-185.208675,123.708783,49.960537,1.226272,5.414525,-3.916211,-1.744910,-5.356701,3.781511,1.773026,0.037267,0.454140,-0.059323,-63.175249,188.571145,1551.746600,38.314181,0
0.010417,-189.344447,49.421594,107.255669,2.329684,5.627355,-2.096992,-3.542658,-5.523809,1.965418,3.574136,0.070083,0.459652,-0.029590,-57.309662,188.495640,1551.510972,38.300258,0
0.011458,-163.490218,-13.026624,163.444999,3.388058,5.234721,-0.114248,-5.007920,-5.147816,-0.031854,4.994461,0.073729,0.468609,-0.025873,-43.011590,188.495626,1551.607179,38.372277,0
0.012500,-109.408776,-71.070464,184.272964,3.883467,3.733907,2.048374,-5.437060,-3.624856,-2.167166,5.420939,0.099252,0.463235,-0.014723,-21.699581,188.721855,1551.059880,38.793797,0
0.013542,-32.467584,-126.753557,191.308782,3.984801,1.994577,3.977973,-5.495052,-1.801861,-4.082476,5.325743,0.113837,0.446906,-0.037023,2.235617,188.570989,1550.940096,39.016688,0
0.014583,32.778185,-163.750339,150.564227,3.151613,-0.111701,5.069504,-4.346813,0.359147,-5.096210,4.122465,0.062790,0.465302,-0.044457,19.539662,188.495738,1549.939743,38.978065,0
0.015625,83.910347,-197.117913,73.000107,1.687904,-2.493189,5.670460,-2.541332,2.755625,-5.691509,2.367050,-0.010133,0.457516,-0.066757,37.496690,188.571127,1549.565389,39.460034,0
0.016667,139.969277,-170.632915,10.309632,0.494418,-3.949969,5.098121,-0.596670,4.225415,-5.078955,0.314623,-0.021072,0.457516,0.003860,51.411979,188.646469,1549.331967,39.582502,0
0.017708,185.112478,-123.112604,-50.181389,-0.676550,-5.146217,3.953444,1.695943,5.471128,-3.862474,-1.882502,-0.021072,0.453934,-0.014723,63.863686,188.571120,1549.024512,40.158231,0
0.018750,189.248251,-48.508300,-107.148426,-1.746183,-5.329691,2.117873,3.489826,5.645832,-2.033439,-3.683611,-0.046595,0.430370,-0.040740,60.193472,188.495702,1548.641586,40.377927,0
0.019792,163.190623,13.564078,-163.167633,-2.860854,-4.970083,0.126952,4.986017,5.292626,-0.014599,-5.103936,-0.101287,0.464613,0.000144,43.632476,188.571114,1548.684431,40.707069,0
0.020833,109.120480,71.067648,-184.299390,-3.322485,-3.509633,-2.076551,5.465416,3.743081,2.142282,-5.617995,-0.112226,0.473983,-0.033307,21.971460,188.646534,1549.767433,41.165681,0
0.021875,33.196282,126.668526,-191.152933,-3.378782,-1.718930,-4.014326,5.453818,1.939076,4.031709,-5.522799,-0.093995,0.464406,-0.044457,-0.635256,188.571163,1550.370826,41.653671,0
0.022917,-31.879988,164.264303,-150.177496,-2.624408,0.420373,-5.114034,4.301712,-0.229528,5.127405,-4.281442,-0.086703,0.464200,0.003860,-18.648575,188.495694,1551.591884,41.936911,0
0.023958,-83.746645,196.727511,-74.047273,-1.171959,2.809200,-5.690460,2.531026,-2.641199,5.662311,-2.457486,-0.053887,0.460341,-0.037023,-35.918845,188.571040,1552.167485,41.651252,0
0.025000,-140.698269,170.312983,-11.660590,0.032786,4.247633,-5.142650,0.505176,-4.183148,4.993678,-0.389828,-0.010133,0.462477,-0.033307,-51.838116,188.646467,1552.937667,40.803047,0
0.026042,-185.434673,124.002408,49.875475,1.203754,5.495254,-3.908034,-1.787437,-5.432659,3.824649,1.856799,0.037267,0.451315,-0.055607,-62.905049,188.571047,1554.541626,39.945115,0
0.027083,-188.960250,49.985355,107.851101,2.329684,5.660380,-2.080639,-3.604516,-5.592171,1.939535,3.619830,0.044560,0.455174,-0.014723,-59.718944,188.495731,1555.634064,39.356852,0
0.028125,-164.032615,-12.592059,163.444999,3.421836,5.249399,-0.101983,-5.085243,-5.204785,-0.010285,5.055386,0.088314,0.472261,-0.044457,-44.587755,188.571174,1556.984595,39.370618,0
0.029167,-109.420075,-70.859054,184.673970,3.793393,3.715560,2.068815,-5.525981,-3.602069,-2.275010,5.462825,0.088314,0.473570,-0.018440,-20.911499,188.571027,1557.948424,37.934950,0
0.030208,-33.224679,-126.859262,191.272327,3.984801,1.913848,4.047471,-5.502785,-1.775276,-4.155810,5.344782,0.113837,0.465715,-0.051890,2.123034,188.571067,1558.804545,36.910025,0
0.031250,32.054990,-164.396315,149.859430,3.162872,-0.199768,5.134914,-4.346813,0.381934,-5.195426,4.111041,0.059144,0.476671,-0.025873,18.965487,188.495785,1559.811088,36.167965,0
0.032292,83.932947,-197.341068,73.073017,1.721681,-2.526214,5.694988,-2.514269,2.793604,-5.700137,2.283277,0.051852,0.455725,-0.018440,36.337082,188.646460,1559.767962,34.918394,0
0.033333,140.568173,-170.315800,10.455452,0.539455,-3.971986,5.089945,-0.507749,4.282383,-5.031504,0.249890,-0.002841,0.453451,-0.011006,52.109995,188.646413,1559.796526,33.680258,0
0.034375,185.474076,-123.218309,-50.351513,-0.654031,-5.171904,3.912563,1.765533,5.501511,-3.832278,-1.973890,-0.057533,0.445734,-0.059323,62.974278,188.571089,1560.381700,32.393407,0
0.035417,188.988353,-48.108970,-107.452218,-1.746183,-5.315013,2.081079,3.563282,5.638236,-1.951478,-3.717882,-0.075764,0.421688,-0.014723,59.315323,188.495703,1560.157343,31.408375,0
0.036458,163.461821,14.374484,-162.985358,-2.849594,-4.863668,0.049278,4.974418,5.250849,0.032852,-5.119167,-0.079410,0.406255,-0.025873,43.227177,188.571047,1559.959164,30.746096,0
0.037500,108.058287,71.537448,-184.433058,-3.288707,-3.439913,-2.101080,5.473149,3.697506,2.181106,-5.579916,-0.079410,0.438224,-0.029590,19.066812,188.721884,1559.256066,30.403636,0
0.038542,31.670792,126.915171,-191.189388,-3.412560,-1.649210,-4.038855,5.461550,1.878309,4.040337,-5.454257,-0.104934,0.467093,-0.048173,-1.355789,188.570995,1558.297071,29.995706,0
0.039583,-33.122980,164.135108,-149.472699,-2.590631,0.449729,-5.134474,4.282382,-0.294093,5.179170,-4.243364,-0.072118,0.473088,-0.051890,-19.008842,188.495741,1558.427430,29.367037,0
0.040625,-84.006543,197.209056,-72.479707,-1.149440,2.790852,-5.735430,2.515562,-2.728550,5.627801,-2.472717,-0.039302,0.468471,-0.018440,-35.479771,188.646476,1558.612078,29.213758,0
0.041667,-140.336671,170.078083,-10.603395,0.055305,4.269650,-5.114034,0.493578,-4.221127,5.023875,-0.393636,0.008098,0.456896,-0.022156,-51.365267,188.721895,1559.088941,29.462399,0
0.042708,-185.694571,123.180258,50.349391,1.226272,5.484245,-3.940740,-1.795169,-5.409872,3.824649,1.833952,0.044560,0.454760,-0.014723,-62.972599,188.571065,1558.700965,30.173135,0
0.043750,-188.982850,49.139714,108.081983,2.352202,5.634694,-2.096992,-3.585186,-5.576980,1.943849,3.623637,0.066437,0.457447,-0.011006,-57.197079,188.495774,1558.527689,30.493542,0
0.044792,-163.817916,-12.873939,163.821701,3.478132,5.249399,-0.081543,-5.096841,-5.189593,-0.062050,5.036347,0.095606,0.462064,-0.048173,-43.304306,188.646603,1558.262539,30.107137,0
0.045833,-109.465275,-70.964759,184.588908,3.827171,3.781610,2.101520,-5.506651,-3.624856,-2.275010,5.439978,0.124775,0.473088,0.000144,-21.924748,188.721938,1558.150083,30.364791,0
0.046875,-33.484577,-127.446513,191.150811,3.939764,1.961551,4.047471,-5.537580,-1.771478,-4.177379,5.367629,0.110191,0.473019,-0.051890,2.010450,188.571161,1558.713133,30.301284,0
0.047917,31.806391,-164.584235,149.822975,3.106575,-0.203437,5.155355,-4.400939,0.389530,-5.199740,4.114849,0.084667,0.471296,0.000144,19.438337,188.495718,1558.851788,30.169312,0
0.048958,84.158945,-197.364558,73.352505,1.699163,-2.562909,5.703165,-2.560662,2.812594,-5.738960,2.325163,0.066437,0.469092,-0.025873,37.710598,188.646496,1559.723788,30.416366,0
0.050000,141.099269,-170.022174,10.941519,0.494418,-3.994003,5.134914,-0.500017,4.327958,-5.070327,0.230850,0.029975,0.460617,-0.033307,51.828537,188.646449,1560.587738,30.067135,0
0.051042,186.027772,-123.218309,-50.315058,-0.665290,-5.248963,3.945268,1.773265,5.558480,-3.862474,-2.000545,-0.021072,0.454967,-0.040740,63.829911,188.571020,1561.734476,29.916847,0
0.052083,188.977053,-48.367360,-107.926133,-1.813739,-5.384733,2.097432,3.629006,5.642034,-1.973047,-3.794038,-0.053887,0.459377,-0.003573,59.990822,188.495709,1562.563888,29.510669,0
0.053125,163.676520,14.221799,-163.228391,-2.860854,-4.981091,0.020661,5.067205,5.296424,0.058735,-5.210556,-0.101287,0.457241,-0.044457,43.497377,188.721938,1564.113419,28.937580,0
0.054167,108.013088,71.549193,-184.979883,-3.299967,-3.450921,-2.150138,5.542739,3.727889,2.310519,-5.625610,-0.112226,0.452280,-0.059323,21.059536,188.646406,1565.664549,27.860872,0
0.055208,31.885491,127.173561,-191.213691,-3.401300,-1.619854,-4.153322,5.504078,1.870713,4.148181,-5.507567,-0.086703,0.450695,-0.018440,-1.423339,188.571134,1567.245699,27.115703,0
0.056250,-32.930881,165.098199,-148.537020,-2.601890,0.559813,-5.199884,4.305578,-0.396636,5.213680,-4.266211,-0.083057,0.426236,-0.018440,-18.794934,188.495736,1568.064484,26.249013,0
0.057292,-84.119543,197.678857,-71.373905,-1.115662,2.867911,-5.759958,2.476901,-2.777923,5.692508,-2.415600,-0.046595,0.458757,-0.007290,-35.896329,188.646618,1568.801217,25.590781,0
0.058333,-140.912967,169.584792,-9.485441,0.077824,4.346709,-5.126298,0.420121,-4.285692,5.032502,-0.332710,-0.002841,0.451729,-0.055607,-52.052025,188.646594,1569.404220,25.082014,0
0.059375,-185.694571,122.475557,51.127098,1.248791,5.620016,-3.936651,-1.880224,-5.493426,3.816021,1.887262,0.033621,0.448628,-0.022156,-62.814983,188.571167,1570.382346,24.622282,0
0.060417,-188.598652,47.131317,108.337168,2.419758,5.671389,-2.047934,-3.739831,-5.630150,1.948163,3.764528,0.091960,0.457585,-0.029590,-59.550069,188.495707,1571.725080,24.235413,0
0.061458,-163.772716,-15.023276,163.201966,3.455614,5.330128,0.004308,-5.197361,-5.246562,-0.118129,5.097272,0.102898,0.434159,-0.022156,-44.520205,188.646429,1572.759017,24.275096,0
0.062500,-107.069691,-71.622480,185.390918,3.872208,3.777941,2.211900,-5.618768,-3.621058,-2.378540,5.588484,0.113837,0.462546,-0.018440,-20.506199,188.571160,1574.779412,23.893161,0
0.063542,-32.105986,-127.317318,191.272327,3.928504,1.888162,4.153763,-5.564643,-1.767680,-4.255026,5.405707,0.099252,0.466198,-0.033307,2.168067,188.571111,1575.704860,23.815431,0
0.064583,32.111489,-165.512090,148.668566,3.129094,-0.269488,5.265735,-4.393206,0.488276,-5.268760,4.191006,0.088314,0.473226,-0.022156,18.864162,188.495676,1577.315290,23.488334,0
0.065625,84.057246,-197.681673,72.939348,1.721681,-2.621620,5.846249,-2.549064,2.877158,-5.769157,2.290893,0.037267,0.464200,-0.033307,36.573507,188.646473,1577.893349,22.611464,0
0.066667,141.788564,-169.505394,11.160249,0.528196,-4.100418,5.200324,-0.484552,4.419108,-5.113465,0.166117,0.026329,0.460892,0.007577,52.886819,188.646741,1579.146489,21.608819,0
0.067708,186.276371,-123.641129,-50.448726,-0.687809,-5.304005,3.945268,1.827391,5.623044,-3.875415,-2.061470,-0.021072,0.459790,-0.014723,62.704078,188.571103,1580.384318,20.826907,0
0.068750,188.830154,-48.966355,-108.679537,-1.802480,-5.443445,2.068815,3.667667,5.729385,-1.934223,-3.832117,-0.064826,0.462202,-0.011006,59.270289,188.495718,1581.720246,20.226589,0
0.069792,164.173717,13.869449,-163.422818,-2.838335,-5.032464,0.004308,5.163858,5.315414,0.123441,-5.267673,-0.101287,0.471572,-0.044457,43.170885,188.646647,1582.752626,19.114644,0
0.070833,107.877489,71.560938,-185.417344,-3.322485,-3.472938,-2.231900,5.604597,3.727889,2.388166,-5.713191,-0.119518,0.472537,-0.003573,18.852904,188.646549,1584.274298,18.267741,0
0.071875,32.597386,127.608126,-190.909899,-3.480115,-1.645540,-4.161499,5.538873,1.859320,4.225829,-5.492336,-0.090349,0.477635,-0.014723,-1.434597,188.571111,1584.821251,17.388573,0
0.072917,-32.377185,165.626724,-147.856526,-2.534334,0.519449,-5.244854,4.313311,-0.419424,5.269759,-4.266211,-0.104934,0.470883,-0.022156,-18.986325,188.495848,1585.444502,16.942004,0
0.073958,-84.130843,197.878522,-71.143023,-1.138181,2.959648,-5.800840,2.461436,-2.846285,5.787410,-2.339443,-0.053887,0.458412,0.015011,-35.445996,188.721992,1586.562441,15.612804,0
0.075000,-141.444064,169.150227,-9.315317,0.055305,4.460462,-5.146739,0.346665,-4.395831,5.036816,-0.222283,-0.006487,0.453107,-0.040740,-52.063283,188.646473,1587.522171,13.849394,0
0.076042,-186.236968,122.170187,51.236463,1.248791,5.638363,-3.887594,-1.957547,-5.576980,3.781511,2.005305,0.055498,0.449455,-0.022156,-62.634850,188.571145,1588.733289,12.189915,0
0.077083,-188.655152,46.673262,108.519443,2.408499,5.715422,-1.990700,-3.809421,-5.664331,1.814436,3.814030,0.081021,0.453176,0.000144,-57.028204,188.495779,1588.991403,10.565900,0
0.078125,-163.625817,-15.845427,163.420696,3.421836,5.304441,0.053366,-5.243754,-5.216179,-0.217346,5.150582,0.066437,0.456414,0.003860,-42.989073,188.721994,1589.334912,9.311204,0
0.079167,-106.097897,-72.010065,185.925592,3.883467,3.752254,2.273222,-5.638099,-3.590675,-2.434619,5.630370,0.102898,0.453658,-0.018440,-20.562491,188.571134,1589.910446,8.807760,0
0.080208,-30.682196,-127.810608,191.248024,3.984801,1.921187,4.247790,-5.611036,-1.703116,-4.315419,5.409515,0.110191,0.388203,-0.018440,2.776016,188.571178,1590.255349,8.249368,0
0.081250,33.252782,-165.993636,147.538461,3.117835,-0.313522,5.306616,-4.350679,0.598415,-5.359349,4.137696,0.077375,0.447526,-0.014723,19.404562,188.495770,1590.853972,6.995202,0
0.082292,84.294544,-198.315904,71.104446,1.654126,-2.713357,5.850337,-2.510403,2.949319,-5.872687,2.283277,0.062790,0.472674,-0.007290,37.778148,188.721864,1592.423427,6.928833,0
0.083333,141.845064,-168.976868,9.847869,0.516936,-4.188485,5.171708,-0.384033,4.502662,-5.113465,0.108999,0.019036,0.459790,-0.040740,52.605361,188.571100,1592.974485,6.259042,0
0.084375,186.513669,-122.372668,-50.934793,-0.687809,-5.388403,3.969797,1.893115,5.680013,-3.853847,-2.091933,-0.035656,0.460961,0.011294,63.649778,188.573314,1593.396497,6.104781,0
0.085417,188.626755,-47.803599,-109.177755,-1.802480,-5.469131,2.003405,3.822313,5.812939,-1.891085,-3.984431,-0.068472,0.446699,-0.011006,59.799431,188.496333,1595.232972,4.957735,0
0.086460,164.354515,14.809049,-163.459273,-2.770779,-5.065489,-0.093807,5.256645,5.376180,0.162265,-5.362869,-0.101287,0.453658,-0.033307,43.767576,188.722598,1596.926207,4.677429,0
0.087501,106.781396,71.466978,-186.146444,-3.311226,-3.476607,-2.325927,5.681919,3.674719,2.487383,-5.831234,-0.112226,0.475293,0.022444,20.924436,188.571815,1598.414106,3.324211,0
0.088542,32.857284,127.901752,-190.824838,-3.367522,-1.627193,-4.312760,5.608463,1.817543,4.325045,-5.617995,-0.097641,0.472399,-0.011006,-1.186914,188.571170,1600.617137,2.525841,0
0.089584,-31.518390,166.965655,-146.653511,-2.635668,0.629533,-5.379762,4.336507,-0.499180,5.433682,-4.292866,-0.057533,0.469643,-0.025873,-18.535992,188.496425,1602.870158,1.337000,0
0.090625,-84.153442,197.995972,-71.288843,-1.115662,3.051385,-5.919396,2.411176,-2.937435,5.877999,-2.347059,-0.039302,0.462822,-0.022156,-36.200303,188.722550,1604.562269,0.529444,0
0.091667,-142.653156,168.539487,-9.655564,0.066564,4.537521,-5.244854,0.273208,-4.521162,5.118777,-0.138510,0.015390,0.457930,-0.011006,-52.975207,188.495709,1606.642405,-0.637513,0
0.092709,-186.349967,122.522537,51.345828,1.248791,5.792481,-3.961180,-2.038735,-5.694715,3.790139,2.104309,0.044560,0.454691,-0.025873,-62.679883,188.571648,1608.517323,-2.028637,0
0.093750,-188.643852,46.626282,109.795369,2.374721,5.840184,-1.937555,-3.964066,-5.812450,1.792867,3.992998,0.088314,0.457792,0.000144,-59.313644,188.496842,1611.775643,-3.240651,0
0.094793,-164.529811,-16.244757,163.043994,3.410576,5.377831,0.147393,-5.367470,-5.303530,-0.286366,5.302896,0.121129,0.459032,-0.022156,-44.351330,188.723348,1614.432240,-4.390943,0
0.095834,-104.888805,-71.775165,187.092152,3.928504,3.715560,2.412218,-5.750217,-3.609664,-2.559718,5.736990,0.157591,0.473088,0.003860,-19.143942,188.496177,1616.523027,-5.329830,0
0.096876,-31.100293,-127.740138,191.114356,3.962282,1.833120,4.349993,-5.661296,-1.661339,-4.462087,5.497096,0.128422,0.476464,-0.029590,3.057475,188.571554,1618.611842,-6.759101,0
0.097917,32.665186,-167.614447,146.055957,3.129094,-0.456631,5.441524,-4.408671,0.662979,-5.518959,4.183390,0.077375,0.470607,-0.011006,18.751579,188.496094,1620.997688,-7.410972,0
0.098958,83.944247,-198.527314,70.229525,1.665385,-2.882153,5.936188,-2.471741,3.124022,-5.971904,2.191889,0.029975,0.460548,-0.003573,36.472182,188.722152,1622.579791,-9.844726,0
0.100000,142.455260,-168.788948,9.033707,0.505677,-4.335264,5.233030,-0.264183,4.684961,-5.208368,0.036650,0.011744,0.458825,-0.011006,53.697419,188.496089,1625.299992,-10.987904,0
0.101042,186.287670,-121.574008,-51.578832,-0.665290,-5.542520,3.961620,2.001367,5.812939,-3.858160,-2.263286,-0.017425,0.454760,-0.022156,62.321295,188.571485,1627.243356,-12.800880,0
0.102083,188.931853,-45.971378,-109.262817,-1.802480,-5.553529,1.933907,3.938296,5.930674,-1.856575,-4.155783,-0.086703,0.458481,-0.014723,59.259031,188.496174,1629.661622,-13.848059,0
0.103125,164.252816,16.512076,-162.961054,-2.827076,-5.109523,-0.191922,5.357165,5.395170,0.278737,-5.446642,-0.112226,0.457930,-0.029590,42.833135,188.722215,1630.629206,-14.947431,0
0.104167,104.487511,71.537448,-187.349459,-3.367522,-3.436243,-2.460836,5.755376,3.682314,2.577972,-5.922622,-0.123164,0.446837,-0.014723,18.515154,188.495971,1632.108457,-15.200764,0
0.105208,31.433494,128.183632,-190.691169,-3.345004,-1.539126,-4.394522,5.674187,1.756776,4.419948,-5.614187,-0.097641,0.462133,-0.025873,-1.288239,188.571576,1632.596143,-16.021687,0
0.106250,-32.026887,168.010961,-145.839349,-2.523075,0.721270,-5.465613,4.367436,-0.594127,5.489761,-4.327136,-0.046595,0.454347,-0.037023,-18.626059,188.496458,1633.847094,-16.540648,0
0.107292,-84.040443,198.148657,-70.997203,-1.093144,3.106427,-5.948013,2.422775,-3.009595,5.895254,-2.316596,-0.046595,0.466404,-0.040740,-35.592354,188.721880,1634.310638,-17.497741,0
0.108334,-143.252052,168.281096,-9.910749,0.044046,4.647606,-5.203972,0.195886,-4.593322,5.166229,-0.104240,-0.002841,0.460617,-0.022156,-53.470573,188.495595,1635.533484,-18.060757,0
0.109375,-186.722865,122.346362,51.163553,1.226272,5.825506,-3.908034,-2.069664,-5.751683,3.785825,2.130963,0.066437,0.459859,-0.003573,-62.083192,188.571082,1636.303283,-18.522216,0
0.110417,-188.689052,47.518903,109.771065,2.397239,5.873210,-1.941643,-4.022058,-5.831439,1.775612,4.069155,0.062790,0.460755,0.000144,-57.140787,188.495624,1637.141676,-19.668938,0
0.111458,-164.529811,-15.598782,163.481454,3.410576,5.381500,0.216891,-5.491186,-5.326318,-0.351072,5.379053,0.070083,0.473983,-0.033307,-43.202981,188.721902,1638.329032,-20.849770,0
