1-Time,2-VGERA,3-VGERB,4-VGERC,5-VN,6-IGERAN,7-IGERBN,8-IGERCN,9-IGERAT,10-IGERBT,11-IGERCT,12-IN,13-IFD,14-IFAULT,15-VFAULT,16-Speed (rad/s),17-Active Power,18-Reactive Power,19-FAULT 
0.000000,-164.439412,152.648488,32.911742,0.899753,5.333741,-4.399601,-1.162004,-4.973960,4.509407,1.198457,-0.138256,0.459790,-0.119457,318.189239,188.495770,1632.710890,-23.562550,0
0.001042,-197.898491,78.079419,84.337616,1.890571,6.034610,-2.504899,-3.489741,-5.568788,2.598583,3.605714,-0.200241,0.463717,-0.097156,273.853957,188.345015,1632.321280,-23.949465,0
0.002083,-179.377913,14.280524,145.460525,3.061538,5.572257,-0.658469,-4.602512,-5.202461,0.856859,4.843407,-0.200241,0.483767,-0.104590,187.874132,188.495660,1632.667932,-23.914367,0
0.003125,-132.596222,-45.619027,190.883474,4.007319,4.500771,1.634482,-5.635800,-4.147004,-1.387937,5.857786,-0.189302,0.461306,-0.100873,83.036613,188.495631,1632.745516,-23.395950,0
0.004167,-62.683584,-101.548766,196.521849,4.052357,2.449535,3.730321,-5.518467,-2.271845,-3.560865,5.778301,-0.225764,0.477635,-0.071140,-45.499680,188.495671,1632.402016,-23.128624,0
0.005208,1.556491,-163.022148,169.873233,3.601985,0.258860,5.234819,-4.776620,-0.121034,-5.036257,5.040227,-0.222118,0.480667,-0.074856,-170.478341,188.344968,1631.491143,-22.838280,0
0.006250,61.988492,-185.807468,114.692492,2.554870,-2.082264,5.665250,-2.816022,2.095063,-5.547783,3.223429,-0.141902,0.469367,-0.082290,-249.894563,188.495835,1630.994554,-22.813189,0
0.007292,123.177587,-192.948434,33.932482,0.967308,-4.199549,5.548591,-0.810005,4.158826,-5.492826,1.069767,-0.101794,0.459514,-0.067423,-330.188934,188.495870,1630.147325,-23.041786,0
0.008333,164.569214,-152.839225,-32.622224,-0.327511,-5.355433,4.454411,1.336055,5.333974,-4.478229,-1.083895,-0.087210,0.459859,-0.097156,-317.872327,188.495821,1630.080580,-23.176086,0
0.009375,197.960493,-78.152705,-83.999492,-1.273292,-6.085658,2.555686,3.690286,5.939683,-2.588543,-3.445732,-0.021578,0.456138,-0.097156,-274.617844,188.345053,1629.546269,-23.526877,0
0.010417,179.586815,-14.929316,-145.620619,-2.489297,-5.553585,0.697188,4.837123,5.529832,-0.838363,-4.664500,0.033114,0.476050,-0.082290,-188.243977,188.495671,1630.149634,-23.746614,0
0.011458,133.087622,44.981980,-190.739776,-3.299967,-4.493107,-1.603809,5.859056,4.467121,1.444479,-5.743224,0.018530,0.483836,-0.089723,-83.046192,188.495642,1629.704555,-24.008480,0
0.012500,62.802086,101.334539,-196.609033,-3.468856,-2.401508,-3.743897,5.715228,2.581081,3.680819,-5.682664,0.033114,0.481907,-0.119457,46.323216,188.495740,1630.863613,-25.038673,0
0.013542,-2.104685,162.772687,-169.778142,-3.007225,-0.199824,-5.272532,4.969595,0.462913,5.168895,-4.899170,-0.014286,0.469643,-0.100873,171.189294,188.420354,1631.310762,-25.126310,0
0.014583,-61.994289,185.863376,-113.698177,-1.948850,2.174325,-5.654691,3.020352,-1.818470,5.667738,-3.044523,-0.036163,0.479358,-0.093440,250.369092,188.495707,1631.962610,-25.597183,0
0.015625,-123.070385,192.969108,-33.521447,-0.395067,4.273263,-5.574236,1.002981,-3.827828,5.574733,-0.921140,-0.098148,0.457379,-0.104590,317.772681,188.495711,1631.847856,-25.554390,0
0.016667,-164.473312,152.519293,32.449978,0.956049,5.414469,-4.431783,-1.177144,-4.988468,4.560137,1.228737,-0.130964,0.459583,-0.097156,318.358114,188.495821,1632.461164,-25.748729,0
0.017708,-198.124489,78.960295,83.924459,1.958127,6.119008,-2.569263,-3.531375,-5.601431,2.691588,3.658703,-0.152841,0.461857,-0.119457,275.452639,188.420354,1633.851588,-25.751933,0
0.018750,-179.445713,15.983550,145.764317,3.061538,5.568587,-0.654447,-4.681996,-5.216969,0.831494,4.858547,-0.200241,0.476671,-0.086006,189.270164,188.495676,1634.307293,-26.645346,0
0.019792,-133.556716,-44.738152,190.907777,3.905986,4.537465,1.670687,-5.677435,-4.161512,-1.455576,5.944840,-0.214826,0.476395,-0.112023,83.520721,188.495855,1635.826268,-28.083439,0
0.020833,-62.547985,-101.255140,196.558304,4.108653,2.401832,3.798707,-5.510898,-2.246456,-3.560865,5.831291,-0.247641,0.480736,-0.086006,-46.276504,188.495738,1636.264415,-28.305471,0
0.021875,2.471785,-162.622818,170.079812,3.579466,0.200149,5.275046,-4.757695,-0.095645,-5.112352,5.062937,-0.189302,0.479840,-0.086006,-170.557149,188.344883,1637.188405,-28.687101,0
0.022917,62.180591,-185.901428,114.255032,2.509832,-2.155653,5.717546,-2.842516,2.153095,-5.598513,3.196934,-0.141902,0.450971,-0.089723,-250.142246,188.495776,1637.804816,-29.439244,0
0.023958,122.906389,-193.347764,33.896027,1.034864,-4.225236,5.608932,-0.787295,4.198723,-5.547783,1.043272,-0.112733,0.457792,-0.115740,-330.357809,188.495745,1638.738637,-30.008999,0
0.025000,164.399715,-152.909695,-31.856668,-0.192400,-5.406806,4.446365,1.354980,5.377498,-4.528959,-1.102820,-0.072625,0.468747,-0.104590,-318.750477,188.495823,1639.608866,-30.389010,0
0.026042,198.186492,-79.855732,-83.598486,-1.250774,-6.096667,2.579822,3.716781,5.954191,-2.626590,-3.476012,-0.047102,0.472054,-0.086006,-276.182751,188.420446,1640.481247,-30.969734,0
0.027083,179.756314,-16.150797,-145.523405,-2.511815,-5.542576,0.693165,4.825768,5.591491,-0.787634,-4.702350,-0.017932,0.459101,-0.089723,-188.626761,188.495685,1641.515187,-32.041706,0
0.028125,133.279721,44.888020,-190.739776,-3.333744,-4.482099,-1.652082,5.866626,4.499764,1.503664,-5.799999,0.040407,0.485765,-0.093440,-82.472018,188.495821,1642.669015,-32.692774,0
0.029167,62.474389,101.005679,-196.681943,-3.446337,-2.434533,-3.723784,5.730368,2.588335,3.647000,-5.686449,0.022176,0.486454,-0.089723,46.548383,188.495696,1642.409222,-32.286957,0
0.030208,-2.353283,162.373356,-169.802446,-3.007225,-0.232849,-5.248396,4.984735,0.397627,5.160440,-4.910525,0.007591,0.485696,-0.100873,170.964128,188.495805,1642.307374,-32.913906,0
0.031250,-62.028189,185.663711,-113.977666,-1.937591,2.130291,-5.686872,3.073342,-1.764065,5.688876,-3.071017,-0.061686,0.460617,-0.112023,249.817434,188.495707,1642.497515,-32.187124,0
0.032292,-122.595788,193.039578,-34.177638,-0.350030,4.229230,-5.578259,1.014335,-3.777050,5.604326,-0.977915,-0.039809,0.461444,-0.104590,317.795198,188.495662,1642.539579,-31.386478,0
0.033333,-164.495912,153.494129,31.660120,0.854715,5.392453,-4.443851,-1.169574,-5.017484,4.602412,1.224952,-0.134610,0.469781,-0.071140,318.200497,188.495812,1643.456047,-31.673422,0
0.034375,-197.909791,80.604596,83.669274,1.890571,6.152034,-2.561217,-3.546515,-5.626820,2.687360,3.635994,-0.149195,0.469023,-0.086006,276.184430,188.495689,1643.747365,-32.084154,0
0.035417,-180.236707,16.582546,145.266098,3.117835,5.575926,-0.634333,-4.700921,-5.278628,0.839949,4.862332,-0.192949,0.480391,-0.097156,189.427780,188.495741,1644.603573,-32.161005,0
0.036458,-133.172518,-45.020032,190.749805,3.962282,4.515449,1.662641,-5.715284,-4.212290,-1.455576,5.910775,-0.236703,0.487763,-0.100873,82.721380,188.495769,1644.500294,-31.466374,0
0.037500,-61.802190,-100.855810,197.178040,4.119912,2.456874,3.746412,-5.518467,-2.231948,-3.565092,5.850216,-0.236703,0.456138,-0.108307,-46.107629,188.495796,1644.708402,-31.545423,0
0.038542,2.539585,-162.434898,170.128419,3.601985,0.255191,5.271023,-4.810684,-0.124661,-5.086987,5.059152,-0.236703,0.484250,-0.071140,-170.331983,188.495832,1644.372161,-31.101362,0
0.039583,61.864193,-186.148073,114.886919,2.521092,-2.115289,5.697432,-2.887936,2.156722,-5.611196,3.242354,-0.149195,0.442772,-0.078573,-249.432972,188.495761,1645.037241,-31.018907,0
0.040625,122.872489,-193.101119,35.171953,1.034864,-4.217897,5.629046,-0.836499,4.176961,-5.568921,1.103832,-0.138256,0.465095,-0.119457,-330.188934,188.495808,1645.271718,-30.520351,0
0.041667,164.772613,-153.884530,-30.860231,-0.248696,-5.399467,4.478547,1.336055,5.366617,-4.571234,-1.030905,-0.087210,0.470194,-0.067423,-320.461742,188.495834,1645.749897,-29.836446,0
0.042708,197.926594,-80.607413,-83.379756,-1.273292,-6.151709,2.571777,3.720566,6.008596,-2.698457,-3.479797,-0.021578,0.465853,-0.063706,-276.047651,188.495841,1646.820210,-29.464076,0
0.043750,180.276110,-15.845427,-145.207462,-2.523075,-5.582941,0.729370,4.867402,5.609626,-0.851046,-4.672070,0.018530,0.477911,-0.089723,-188.322786,188.488268,1646.890177,-28.450669,0
0.044792,133.053722,45.181646,-190.472439,-3.390041,-4.500446,-1.644036,5.881766,4.499764,1.507891,-5.781074,0.018530,0.467507,-0.123173,-82.089235,188.495678,1646.554120,-28.302004,0
0.045833,61.705994,100.547623,-197.119403,-3.570190,-2.449211,-3.764011,5.783357,2.602843,3.701957,-5.739439,-0.025225,0.478875,-0.097156,46.244408,188.495687,1647.578834,-28.480893,0
0.046875,-2.522782,162.255906,-169.911811,-3.018484,-0.229180,-5.272532,5.045294,0.459286,5.219625,-4.955945,0.029468,0.431679,-0.119457,170.085979,188.344972,1648.651043,-27.816567,0
0.047917,-61.530992,186.027807,-114.803979,-1.915073,2.163317,-5.723077,3.107406,-1.785827,5.714240,-3.139147,-0.028871,0.467300,-0.108307,249.614784,188.495930,1649.767157,-27.849949,0
0.048958,-122.686188,193.051323,-35.733052,-0.338771,4.269594,-5.658713,1.052185,-3.824201,5.629691,-0.958990,-0.083563,0.466749,-0.115740,317.874006,188.496983,1650.511274,-28.929846,0
0.050001,-164.755810,153.670304,31.137598,0.877234,5.454834,-4.455919,-1.192283,-5.039246,4.585502,1.217382,-0.160133,0.467782,-0.086006,318.211756,188.496022,1650.670183,-29.249362,0
0.051042,-198.056690,80.217011,83.316876,1.845534,6.159372,-2.525013,-3.576794,-5.652209,2.645085,3.685198,-0.196595,0.465715,-0.108307,275.542705,188.420638,1650.926539,-30.173874,0
0.052084,-180.055909,15.384555,145.083823,3.095316,5.579596,-0.626288,-4.712276,-5.235104,0.801901,4.892612,-0.207533,0.449524,-0.078573,189.461555,188.495647,1650.516306,-30.605556,0
0.053125,-132.878720,-45.348892,190.689047,3.072797,4.537465,1.698846,-5.703929,-4.132496,-1.531671,5.929700,-0.214826,0.447939,-0.104590,82.282305,188.420573,1650.231720,-31.987560,0
0.054167,-61.361493,-100.679635,197.117281,4.131172,2.475222,3.794684,-5.582811,-2.231948,-3.590457,5.872926,-0.211179,0.473088,-0.078573,-45.555971,188.496407,1650.552891,-32.086276,0
0.055209,2.257087,-162.282213,170.164874,3.647022,0.255191,5.295160,-4.825824,-0.113780,-5.129262,5.047797,-0.214826,0.459652,-0.093440,-168.969726,188.420499,1650.829457,-32.665833,0
0.056250,61.400896,-185.760488,115.737536,2.543610,-2.111619,5.729614,-2.891720,2.142214,-5.615423,3.249924,-0.138256,0.460203,-0.104590,-248.870056,188.496290,1650.845966,-32.882326,0
0.057292,122.522192,-193.206824,36.180541,0.697085,-4.225236,5.669273,-0.832714,4.198723,-5.602741,1.118972,-0.130964,0.465853,-0.112023,-330.279001,188.421007,1651.469913,-33.258220,0
0.058334,164.478815,-153.919766,-30.750866,-0.327511,-5.410475,4.478547,1.381474,5.388379,-4.528959,-1.087680,-0.065333,0.465991,-0.100873,-321.970357,188.496715,1651.307042,-34.426607,0
0.059379,197.949193,-79.820497,-83.148875,-1.262033,-6.092997,2.547640,3.747061,5.950564,-2.643500,-3.506292,-0.043455,0.462270,-0.100873,-275.113210,188.497028,1650.291722,-35.069057,0
0.060417,180.208311,-15.023276,-144.721395,-2.455519,-5.586610,0.713279,4.856047,5.602372,-0.796089,-4.702350,-0.006994,0.455725,-0.067423,-187.748611,188.495689,1650.210026,-35.750993,0
0.061458,132.985923,45.263861,-190.253709,-3.288707,-4.493107,-1.623923,5.836346,4.565050,1.465617,-5.754579,0.011237,0.435468,-0.108307,-82.494534,188.495622,1650.229301,-34.633336,0
0.062500,61.909392,100.300978,-196.949280,-3.480115,-2.452880,-3.715738,5.726583,2.581081,3.617407,-5.690234,-0.003348,0.467507,-0.056273,44.668242,188.495649,1648.856161,-34.285383,0
0.063542,-1.098991,162.114966,-169.911811,-3.041003,-0.251197,-5.236327,4.950671,0.448405,5.084345,-4.952160,0.003945,0.476119,-0.089723,168.656171,188.495633,1647.422429,-34.186765,0
0.064583,-60.943396,185.534516,-115.970540,-2.072703,2.064241,-5.690895,3.069557,-1.742303,5.638146,-3.097512,-0.043455,0.478186,-0.067423,248.646568,188.495591,1646.037684,-34.582789,0
0.065625,-122.200291,192.710717,-35.866720,-0.496401,4.199874,-5.598372,1.025690,-3.762542,5.562051,-0.970345,-0.105440,0.464682,-0.100873,317.243540,188.420263,1644.582463,-34.287131,0
0.066667,-164.405512,154.316279,31.429238,0.820937,5.366766,-4.407647,-1.124155,-4.944944,4.568592,1.179532,-0.134610,0.463717,-0.063706,318.391889,188.495707,1643.449268,-33.613829,0
0.067708,-197.141396,80.099561,83.183208,1.890571,6.104330,-2.545126,-3.497311,-5.561534,2.678905,3.579219,-0.167425,0.460479,-0.093440,274.900981,188.420189,1641.574439,-32.175623,0
0.068750,-180.745204,15.220125,144.184599,3.084057,5.579596,-0.650424,-4.610082,-5.209715,0.865314,4.809342,-0.214826,0.451178,-0.115740,189.202614,188.495562,1640.550399,-31.151955,0
0.069792,-132.980420,-45.290167,189.838430,3.996060,4.475084,1.638505,-5.628231,-4.096226,-1.387937,5.842646,-0.229410,0.437949,-0.115740,83.757145,188.420242,1638.515392,-29.659257,0
0.070833,-62.502786,-100.139364,197.360315,4.074875,2.497239,3.694116,-5.537392,-2.257337,-3.569320,5.838861,-0.222118,0.468609,-0.067423,-43.124173,188.495752,1638.221341,-29.791723,0
0.071875,0.358699,-162.082548,170.128419,3.579466,0.288216,5.198614,-4.799329,-0.175439,-5.044712,5.047797,-0.196595,0.473846,-0.100873,-167.956476,188.420188,1637.336793,-29.293729,0
0.072917,60.835899,-185.971898,116.709670,2.543610,-2.049238,5.653182,-2.922000,2.044285,-5.564693,3.287774,-0.211179,0.475155,-0.108307,-248.532306,188.495749,1636.810534,-28.279290,0
0.073958,121.855496,-192.889709,35.986115,1.012346,-4.140838,5.608932,-0.866779,4.089913,-5.518191,1.137897,-0.134610,0.464131,-0.112023,-329.299527,188.420245,1634.753634,-27.482794,0
0.075000,164.399715,-154.589231,-31.236933,-0.271215,-5.326078,4.470502,1.320915,5.337601,-4.520504,-1.034690,-0.094502,0.463235,-0.093440,-320.619358,188.495756,1634.249731,-26.661346,0
0.076042,196.841801,-80.219827,-82.954448,-1.262033,-6.070981,2.624072,3.618373,5.957818,-2.677320,-3.438162,-0.032517,0.436433,-0.138040,-275.113210,188.420265,1633.753620,-25.819081,0
0.077083,181.033205,-15.035021,-144.162418,-2.500556,-5.615966,0.749483,4.780349,5.555221,-0.889093,-4.607725,0.003945,0.478600,-0.093440,-189.414843,188.495774,1632.592042,-24.470319,0
0.078125,133.505719,45.052450,-189.536760,-3.356263,-4.537141,-1.531400,5.802282,4.521526,1.414887,-5.731869,0.003945,0.452142,-0.071140,-84.250833,188.420377,1631.670654,-24.426363,0
0.079167,63.615681,99.866413,-197.180162,-3.536412,-2.482236,-3.631261,5.730368,2.639113,3.587815,-5.705374,0.033114,0.476119,-0.108307,42.799360,188.495721,1632.161849,-24.203744,0
0.080208,0.482998,161.821341,-169.863204,-3.052262,-0.276883,-5.151850,5.007445,0.506437,5.084345,-4.959730,0.011237,0.478393,-0.089723,168.003189,188.420258,1632.178430,-24.093569,0
0.081250,-60.638298,185.816396,-116.164967,-2.005147,2.056902,-5.638600,3.149040,-1.709660,5.642373,-3.176997,-0.028871,0.474879,-0.056273,248.714118,188.495682,1632.770079,-23.140054,0
0.082292,-121.590095,192.605012,-35.332047,-0.473882,4.130154,-5.570213,1.071109,-3.740780,5.617008,-1.023335,-0.087210,0.460479,-0.067423,316.703140,188.420330,1633.157561,-22.137705,0
0.083333,-164.156914,154.421984,31.684423,0.843456,5.374105,-4.431783,-1.090090,-4.970333,4.572819,1.130327,-0.134610,0.460135,-0.086006,318.279306,188.495571,1633.356165,-21.612411,0
0.084375,-196.655499,80.310971,83.134601,1.868052,6.085983,-2.577308,-3.432967,-5.557907,2.704270,3.514874,-0.174718,0.467162,-0.100873,275.396347,188.420211,1632.928461,-20.778810,0
0.085417,-181.072902,15.760395,144.233206,3.039020,5.539232,-0.710765,-4.621437,-5.191580,0.882223,4.779062,-0.203887,0.463924,-0.071140,191.060237,188.420305,1632.620470,-20.660527,0
0.086458,-134.291211,-44.491506,189.486032,3.996060,4.504440,1.570119,-5.643370,-4.215917,-1.375254,5.831291,-0.233057,0.472674,-0.052556,85.918744,188.420314,1633.605979,-20.137546,0
0.087500,-64.175174,-99.857484,197.263101,4.108653,2.522925,3.690094,-5.507113,-2.300861,-3.505907,5.846431,-0.211179,0.484112,-0.104590,-42.369865,188.495671,1633.614538,-19.689516,0
0.088542,-0.624394,-161.777177,170.201329,3.545688,0.306563,5.174478,-4.776620,-0.197201,-5.010893,5.070507,-0.225764,0.483147,-0.086006,-167.573693,188.420233,1633.461379,-19.524702,0
0.089583,60.903699,-185.830958,116.503091,2.543610,-1.997866,5.604909,-2.922000,2.022523,-5.535101,3.272634,-0.178364,0.471985,-0.115740,-248.498531,188.420388,1632.833720,-19.307233,0
0.090625,121.098401,-193.018904,35.500048,0.989827,-4.118821,5.560659,-0.874349,4.050016,-5.518191,1.118972,-0.109087,0.457792,-0.112023,-328.545219,188.420291,1632.284740,-19.229825,0
0.091667,163.879919,-154.730171,-31.321995,-0.259955,-5.307730,4.474524,1.241432,5.272315,-4.486684,-0.989270,-0.083563,0.461513,-0.100873,-320.259092,188.495638,1631.082222,-18.704569,0
0.092708,196.107306,-80.771843,-82.845083,-1.205737,-5.990252,2.628095,3.584308,5.849008,-2.668865,-3.351107,-0.050748,0.459101,-0.071140,-275.833743,188.495778,1629.057501,-18.077343,0
0.093750,181.507802,-16.350462,-144.028750,-2.455519,-5.487534,0.809824,4.685725,5.511697,-0.872183,-4.535811,-0.032517,0.478117,-0.112023,-191.598958,188.420386,1628.055559,-18.482416,0
0.094792,135.053809,44.077615,-188.989935,-3.333744,-4.463751,-1.495196,5.783357,4.503391,1.326110,-5.633459,-0.010640,0.479495,-0.108307,-85.421699,188.420385,1626.626370,-18.068161,0
0.095833,64.689174,99.478827,-197.180162,-3.558930,-2.485906,-3.558852,5.662239,2.635486,3.503265,-5.599394,-0.017932,0.478600,-0.093440,42.360286,188.495649,1624.837641,-17.946382,0
0.096875,0.754196,161.081405,-169.705232,-3.063521,-0.317247,-5.103578,4.931746,0.560842,4.932155,-4.846180,-0.003348,0.479495,-0.100873,167.586631,188.420312,1621.874458,-17.299557,0
0.097917,-60.638298,185.757671,-116.468758,-1.971369,1.961496,-5.497804,3.099836,-1.611731,5.545141,-3.112652,-0.036163,0.468265,-0.086006,248.432660,188.420397,1619.916157,-16.790084,0
0.098958,-120.414903,192.193937,-35.222681,-0.406326,4.049426,-5.481714,1.101389,-3.595700,5.464819,-0.993055,-0.083563,0.454209,-0.089723,315.779958,188.420271,1616.518597,-16.606975,0
0.100000,-163.795316,155.420310,31.477844,0.944790,5.223657,-4.411669,-0.968972,-4.876031,4.547454,1.081122,-0.120025,0.463717,-0.104590,318.279306,188.495604,1615.353424,-16.100316,0
0.101042,-195.163909,81.920037,83.183208,1.901830,5.957551,-2.585353,-3.285354,-5.441843,2.738090,3.431604,-0.196595,0.465440,-0.100873,276.173172,188.420240,1613.469964,-15.371887,0
0.102083,-182.168995,17.404697,143.978021,3.061538,5.498867,-0.771106,-4.504104,-5.169818,1.000593,4.673082,-0.207533,0.467851,-0.108307,192.940378,188.420200,1612.784596,-14.076520,0
0.103125,-135.455103,-44.233116,188.453139,3.962282,4.456737,1.477596,-5.522252,-4.125242,-1.252657,5.668536,-0.233057,0.479564,-0.104590,85.671061,188.420386,1609.695158,-13.351597,0
0.104167,-64.480272,-99.469899,197.822078,4.153690,2.504578,3.557344,-5.427629,-2.329877,-3.408675,5.736666,-0.211179,0.483285,-0.115740,-42.189732,188.495638,1608.010512,-12.558283,0
0.105208,-0.206297,-160.814086,169.812475,3.545688,0.354266,5.053796,-4.716061,-0.229844,-4.850248,4.998592,-0.207533,0.475706,-0.123173,-167.123360,188.420283,1605.240548,-11.608911,0
0.106250,60.903699,-186.195053,116.879793,2.611166,-1.906129,5.532500,-2.910645,1.946356,-5.450551,3.261279,-0.163779,0.435537,-0.063706,-248.217073,188.420356,1604.066693,-10.848088,0
0.107292,120.239607,-192.361184,35.828143,1.034864,-3.972042,5.480205,-0.912198,3.973849,-5.399821,1.187102,-0.145548,0.456276,-0.071140,-326.586270,188.420311,1601.928560,-10.053846,0
0.108333,163.992918,-155.939907,-30.592895,-0.248696,-5.175629,4.442343,1.154378,5.199775,-4.512049,-0.902215,-0.079917,0.464062,-0.078573,-323.118706,188.495741,1601.582217,-8.992848,0
0.109375,194.593116,-83.097355,-82.966600,-1.262033,-5.865490,2.620049,3.508609,5.772841,-2.681548,-3.203492,-0.021578,0.462822,-0.063706,-276.666859,188.420292,1599.793688,-8.013831,0
0.110417,182.603895,-17.712883,-143.749261,-2.444260,-5.483865,0.825915,4.606241,5.479054,-0.948278,-4.490391,-0.003348,0.477704,-0.100873,-192.781082,188.344867,1599.484293,-7.590740,0
