1-Time,2-VGERA,3-VGERB,4-VGERC,5-VN,6-IGERAN,7-IGERBN,8-IGERCN,9-IGERAT,10-IGERBT,11-IGERCT,12-IN,13-IFD,14-IFAULT,15-VFAULT,16-Speed (rad/s),17-Active Power,18-Reactive Power,19-FAULT 
0.000000,-157.761156,159.977374,11.719226,0.449381,4.610911,-4.161499,-0.616001,-4.490779,4.126612,0.505015,0.000805,0.408735,0.000144,-77.293188,188.185462,1367.362619,-67.394937,0
0.001042,-178.858117,101.898299,69.743459,1.609088,5.029231,-2.726564,-2.406017,-4.950325,2.577972,2.298509,0.033621,0.415350,0.007577,-87.459455,188.184633,1366.804192,-66.579795,0
0.002083,-186.903663,28.327556,127.184411,2.746278,5.098951,-1.058606,-3.890610,-4.938931,0.968939,3.734065,0.073729,0.379866,0.000144,-91.062119,188.317118,1365.571662,-66.022974,0
0.003125,-150.766502,-35.212949,165.121930,3.489392,4.144888,0.715643,-4.625174,-4.023636,-0.847155,4.453747,0.110191,0.422584,-0.018440,-71.315018,188.259706,1365.481314,-65.693016,0
0.004167,-77.655985,-84.330581,195.537564,4.097394,2.666090,2.866001,-5.092975,-2.534857,-2.935015,4.876417,0.128422,0.419690,-0.011006,-35.648646,188.175059,1365.311109,-64.999103,0
0.005208,-17.088386,-139.367698,174.818964,3.613244,0.981802,3.994325,-4.339081,-0.734650,-4.035025,4.080578,0.110191,0.430783,-0.011006,-5.960443,188.179114,1365.953639,-63.907063,0
0.006250,44.202409,-182.601080,125.981395,2.746278,-1.109797,4.914155,-3.221770,1.380784,-4.966797,2.869685,0.070083,0.413903,-0.011006,22.860868,188.262970,1366.457540,-63.170435,0
0.007292,98.747149,-186.993714,53.180730,1.338865,-2.819772,4.893715,-1.381494,3.120224,-4.794247,1.015266,0.022683,0.418312,0.011294,50.162305,188.182079,1366.587442,-62.836913,0
0.008333,158.071757,-160.379521,-9.582654,0.111601,-4.188485,4.206908,0.551570,4.540641,-4.155810,-0.892463,-0.017425,0.415556,-0.029590,77.598842,188.189395,1366.400221,-62.744985,0
0.009375,179.044418,-104.085688,-69.150149,-1.025588,-4.661847,2.792414,2.337720,4.981198,-2.628738,-2.644070,-0.061180,0.421482,-0.022156,86.605502,188.192372,1366.675081,-62.202473,0
0.010417,187.022166,-30.820315,-127.174381,-2.151518,-4.676525,1.124456,3.833911,5.011581,-1.049902,-4.125321,-0.068472,0.424100,-0.018440,91.243931,188.118717,1366.428032,-61.660512,0
0.011458,152.399194,33.589321,-164.856715,-2.894632,-3.836216,-0.674322,4.560743,4.119073,0.783447,-4.791693,-0.097641,0.426374,-0.007290,69.718015,188.194071,1366.423234,-61.283855,0
0.012500,79.864974,83.975414,-194.968558,-3.502634,-2.324393,-2.775622,5.040142,2.622699,2.905818,-5.286712,-0.101287,0.423893,-0.051890,35.098666,188.193852,1367.109946,-60.915884,0
0.013542,18.675878,138.965551,-175.124878,-3.097299,-0.625427,-3.936651,4.309444,0.822491,3.945434,-4.407101,-0.093995,0.433264,-0.029590,5.950864,188.193921,1366.575343,-60.803609,0
0.014583,-43.372012,182.175443,-125.813394,-2.185296,1.458834,-4.889186,3.103213,-1.281548,4.877207,-3.203823,-0.061180,0.423135,-0.014723,-22.679056,188.116534,1365.937149,-61.021461,0
0.015625,-98.380048,187.331503,-52.563117,-0.766624,3.209172,-4.848305,1.340259,-3.085553,4.752108,-1.402714,0.004452,0.417210,-0.007290,-49.271218,188.193117,1366.552276,-61.206351,0
0.016667,-157.456058,160.059589,9.993689,0.426862,4.555869,-4.169675,-0.577339,-4.437608,4.130926,0.459321,0.037267,0.412731,-0.029590,-77.675971,188.193653,1365.921447,-60.942466,0
0.017708,-179.151915,103.730521,69.075117,1.564051,5.036570,-2.775622,-2.320962,-4.927538,2.642678,2.275661,0.059144,0.414040,-0.003573,-85.432957,188.193763,1366.288875,-60.704206,0
0.018750,-186.914963,29.525547,126.625434,2.656203,5.036570,-1.103576,-3.851949,-4.961719,0.986194,3.730257,0.055498,0.419552,-0.003573,-90.420395,188.042987,1366.491211,-60.884894,0
0.019792,-152.269392,-34.566973,164.550801,3.444354,4.236625,0.662498,-4.625174,-4.042626,-0.765193,4.389014,0.099252,0.401156,-0.007290,-69.772627,188.193765,1365.992654,-60.099722,0
0.020833,-78.989377,-83.896015,195.136559,4.018579,2.713793,2.808767,-5.096841,-2.546251,-2.896192,4.853570,0.088314,0.404257,0.015011,-34.534071,188.118306,1365.582761,-60.082817,0
0.021875,-17.246585,-138.616017,175.864008,3.692059,0.970794,3.949356,-4.366143,-0.753639,-3.987573,4.057731,0.081021,0.415763,-0.022156,-5.937927,188.193796,1365.028787,-60.001096,0
0.022917,44.044210,-181.978595,126.102912,2.780056,-1.010722,4.869186,-3.171510,1.354198,-4.940915,2.896340,0.073729,0.387583,0.003860,23.660209,187.967536,1364.698441,-59.534674,0
0.023958,97.956154,-188.086000,52.609602,1.338865,-2.794085,4.885538,-1.404691,3.120224,-4.798560,1.083807,0.022683,0.416590,-0.029590,49.779522,188.118401,1365.158267,-58.886929,0
0.025000,157.099963,-160.062406,-9.716323,0.122861,-4.122434,4.223261,0.501310,4.521651,-4.220516,-0.850577,0.000805,0.412800,-0.029590,78.758449,188.116668,1365.240285,-57.972271,0
0.026042,179.394716,-104.062198,-68.615475,-1.014329,-4.639830,2.829208,2.237201,4.973602,-2.727955,-2.594568,-0.057533,0.417623,-0.011006,87.044576,188.193763,1365.606825,-56.646779,0
0.027083,186.739667,-29.904204,-126.056427,-2.106481,-4.676525,1.136721,3.833911,5.022975,-1.088726,-4.129128,-0.097641,0.423755,-0.029590,91.390290,188.042971,1365.447947,-56.125538,0
0.028125,152.726892,33.777241,-164.394952,-2.917150,-3.909605,-0.645705,4.614868,4.134265,0.727368,-4.845003,-0.104934,0.448353,-0.029590,73.264387,188.118479,1366.011821,-55.652726,0
0.029167,80.158772,83.623064,-194.591856,-3.502634,-2.361088,-2.779710,5.098134,2.656880,2.884249,-5.298136,-0.101287,0.429130,-0.018440,36.809932,188.118421,1366.083840,-55.261845,0
0.030208,18.777577,138.542731,-175.926888,-3.086040,-0.625427,-3.957092,4.409964,0.852875,3.975630,-4.487066,-0.064826,0.426580,-0.018440,8.134979,188.193787,1367.359895,-54.973881,0
0.031250,-42.626217,181.611683,-127.150078,-2.185296,1.411131,-4.905539,3.176669,-1.235973,4.881520,-3.299019,-0.028364,0.424720,-0.011006,-22.442631,188.042886,1368.052323,-54.282686,0
0.032292,-97.555154,187.754323,-54.300806,-0.811661,3.256875,-4.909627,1.378921,-3.062766,4.821128,-1.429369,-0.039302,0.417417,-0.037023,-49.327510,188.042900,1368.892911,-54.417972,0
0.033333,-157.252659,160.435430,8.170938,0.393084,4.555869,-4.247349,-0.554143,-4.437608,4.152495,0.482168,0.029975,0.415832,-0.029590,-77.259413,188.118450,1369.079292,-55.208172,0
0.034375,-179.457013,105.304352,68.090831,1.586570,5.069595,-2.804239,-2.348025,-4.969315,2.655619,2.210928,0.059144,0.418174,-0.025873,-87.358131,188.193883,1369.555030,-55.127780,0
0.035417,-186.881064,31.463474,126.333794,2.701241,5.073264,-1.128104,-3.902208,-5.018687,1.025018,3.718834,0.066437,0.425340,-0.007290,-91.377352,188.042904,1370.231574,-55.083777,0
0.036458,-153.229886,-32.769986,164.648015,3.399317,4.284328,0.674762,-4.671567,-4.091998,-0.765193,4.438516,0.070083,0.431265,0.015011,-72.362042,187.967379,1371.384859,-55.672879,0
0.037500,-80.774765,-83.238295,194.626189,4.063616,2.702785,2.800591,-5.131636,-2.569038,-2.926388,4.914496,0.110191,0.437673,-0.003573,-36.177787,188.118362,1372.420946,-56.368772,0
0.038542,-18.794674,-138.216687,176.301468,3.647022,1.033175,4.006590,-4.400939,-0.742246,-4.017770,4.057731,0.070083,0.421551,-0.011006,-6.241902,188.193751,1372.768133,-57.328002,0
0.039583,42.869018,-181.637989,127.184411,2.723759,-1.084111,4.889626,-3.186975,1.373188,-4.971111,2.854453,0.026329,0.423686,-0.011006,22.444310,188.118336,1372.833755,-58.618310,0
0.040625,97.312058,-188.097745,53.824769,1.350125,-2.874814,4.897803,-1.412423,3.154405,-4.785619,1.041921,0.029975,0.417072,-0.018440,49.227864,187.967542,1372.727055,-59.931750,0
0.041667,156.557567,-160.684891,-8.768492,0.122861,-4.133443,4.231437,0.520640,4.517854,-4.224830,-0.850577,-0.028364,0.413007,-0.033307,77.306125,188.118284,1372.706384,-60.369778,0
0.042708,179.519015,-105.072269,-67.971437,-1.025588,-4.683864,2.821031,2.302925,4.992592,-2.715014,-2.666917,-0.028364,0.413076,-0.014723,86.369077,188.193819,1373.285773,-61.706602,0
0.043750,187.022166,-30.538435,-125.205810,-2.140259,-4.665516,1.108104,3.860974,5.110327,-1.015392,-4.140552,-0.072118,0.401294,-0.014723,91.547906,188.118486,1374.068319,-62.740197,0
0.044792,153.144989,33.800731,-163.933188,-2.917150,-3.905936,-0.666146,4.634199,4.145659,0.735996,-4.856426,-0.119518,0.433884,0.000144,70.168348,187.967365,1374.280707,-62.918273,0
0.045833,80.373470,83.247223,-194.531097,-3.480115,-2.313384,-2.747005,5.113599,2.645486,2.888563,-5.279097,-0.126811,0.406530,-0.029590,35.436416,188.118338,1373.974217,-63.230747,0
0.046875,18.189981,137.697090,-176.619533,-3.086040,-0.621757,-3.957092,4.382901,0.845279,4.001513,-4.521336,-0.104934,0.438982,-0.022156,6.344905,188.193863,1374.503431,-63.398189,0
0.047917,-42.840915,181.177117,-127.077168,-2.174036,1.477181,-4.889186,3.172803,-1.281548,4.928972,-3.329482,-0.035656,0.407082,-0.003573,-22.116139,188.118320,1375.269885,-63.718006,0
0.048958,-96.967558,188.318084,-53.681071,-0.811661,3.223850,-4.938244,1.409850,-3.074160,4.786618,-1.520757,-0.006487,0.416728,0.003860,-48.516911,187.967690,1375.347168,-62.903043,0
0.050000,-156.269566,160.411940,8.219545,0.370565,4.515505,-4.235085,-0.511615,-4.449002,4.212887,0.413627,0.004452,0.415418,-0.040740,-77.721005,188.118230,1375.751379,-61.966573,0
0.051042,-179.637811,105.738918,67.471096,1.564051,5.080603,-2.845120,-2.309364,-4.942729,2.711698,2.249007,0.048206,0.421206,-0.018440,-85.342890,188.193785,1376.042715,-62.078368,0
0.052083,-186.858464,31.463474,125.628997,2.689981,5.084273,-1.156721,-3.890610,-4.957921,1.072469,3.730257,0.073729,0.430576,-0.022156,-90.668078,188.193713,1375.414118,-61.947123,0
0.053125,-153.727083,-32.347166,164.453588,3.455614,4.276989,0.642057,-4.687032,-4.110988,-0.773821,4.434708,0.106545,0.422033,0.003860,-70.887202,187.967545,1375.607196,-62.140089,0
0.054167,-82.017757,-82.791984,194.152273,4.041097,2.790852,2.743357,-5.158699,-2.622209,-2.939329,4.910688,0.091960,0.413489,-0.063040,-36.053945,188.118430,1375.932053,-62.188638,0
0.055208,-20.184565,-137.770377,176.994113,3.692059,1.044183,3.957532,-4.428001,-0.803012,-4.035025,4.107233,0.132068,0.432368,-0.025873,-7.525351,188.193711,1376.848125,-62.018560,0
0.056250,41.795525,-181.085974,128.253758,2.735018,-1.058425,4.922331,-3.248833,1.320017,-4.962483,2.926802,0.055498,0.423755,-0.014723,22.613184,188.193827,1377.132543,-61.441193,0
0.057292,96.792262,-188.414860,55.404486,1.350125,-2.819772,4.955037,-1.485879,3.124022,-4.850326,1.114270,0.019036,0.419346,-0.044457,49.182831,187.967495,1378.085714,-60.903039,0
0.058333,156.444568,-160.661401,-6.812073,0.156639,-4.159129,4.292759,0.478113,4.510258,-4.233458,-0.858192,-0.028364,0.418726,-0.033307,78.533283,188.193753,1377.986746,-61.515300,0
0.059375,179.982312,-106.646100,-66.889938,-1.014329,-4.713220,2.861913,2.299059,5.087539,-2.771092,-2.640262,-0.039302,0.420793,-0.018440,87.134643,188.193789,1379.570188,-61.554230,0
0.060417,186.863967,-32.253206,-124.987080,-2.151518,-4.735236,1.136721,3.845509,5.102731,-1.105981,-4.174823,-0.093995,0.423824,-0.029590,91.469098,188.193733,1380.022112,-61.398652,0
0.061458,154.229782,32.203409,-164.103311,-2.883372,-3.946300,-0.641617,4.672860,4.217819,0.723054,-4.841195,-0.108580,0.433539,-0.048173,73.737237,188.042954,1380.739221,-61.382728,0
0.062500,81.887660,82.495543,-194.324519,-3.491375,-2.390443,-2.791974,5.125197,2.668274,2.897190,-5.343830,-0.083057,0.431886,-0.037023,36.933773,188.193888,1381.726913,-61.839429,0
0.063542,19.681571,137.262525,-177.129904,-3.198633,-0.640105,-4.038855,4.456357,0.875662,4.031709,-4.555607,-0.057533,0.434435,-0.037023,8.134979,188.193644,1382.514299,-62.175116,0
0.064583,-41.948221,180.965707,-127.623993,-2.185296,1.484520,-4.970949,3.180536,-1.296740,4.959168,-3.340905,-0.083057,0.423480,-0.040740,-22.071106,188.193780,1382.952057,-62.759159,0
0.065625,-96.153963,188.858354,-54.240048,-0.789143,3.282562,-4.975037,1.429180,-3.131128,4.881520,-1.475063,-0.035656,0.417279,-0.033307,-48.606977,188.042929,1384.269018,-64.018529,0
0.066667,-155.738469,160.834760,7.721326,0.404343,4.632928,-4.308671,-0.558009,-4.505970,4.234456,0.474552,0.004452,0.413834,-0.029590,-76.752789,188.197082,1384.991339,-65.241919,0
0.067708,-179.886410,105.715428,66.814906,1.519014,5.150323,-2.836944,-2.351892,-5.014890,2.724640,2.252814,0.033621,0.412456,-0.003573,-87.403164,188.193800,1385.883940,-65.447629,0
0.068750,-187.061862,31.087633,124.717621,2.667463,5.165001,-1.107664,-3.952468,-5.087050,1.033645,3.802606,0.084667,0.427958,-0.007290,-91.568744,188.193749,1387.618563,-66.178896,0
0.069792,-153.806182,-32.699516,163.967521,3.444354,4.350378,0.707467,-4.741158,-4.171755,-0.795390,4.541327,0.088314,0.403223,-0.022156,-72.891183,188.193794,1389.245260,-66.409556,0
0.070833,-81.249362,-82.239969,194.601885,4.052357,2.765166,2.792414,-5.178030,-2.633603,-2.960898,4.998268,0.110191,0.437398,-0.044457,-36.853286,188.193749,1390.362284,-66.440749,0
0.071875,-18.986773,-137.171381,177.504483,3.714578,1.036844,4.039295,-4.505324,-0.822002,-4.073848,4.164351,0.099252,0.440705,-0.040740,-7.052501,188.269073,1391.280329,-66.028029,0
0.072917,42.123223,-180.992014,128.423881,2.768796,-1.073103,4.963213,-3.295226,1.346602,-5.018562,2.961073,0.073729,0.415763,-0.025873,21.690002,188.193745,1392.277145,-66.137516,0
0.073958,95.910868,-188.896406,55.574609,1.395162,-2.904169,5.028623,-1.505210,3.162001,-4.953856,1.140925,0.019036,0.424031,-0.018440,48.586139,188.272384,1393.804018,-66.334677,0
0.075000,155.687473,-161.131202,-6.240944,0.190417,-4.247197,4.333640,0.466515,4.567226,-4.324047,-0.831537,-0.024718,0.423893,-0.014723,77.294867,188.198047,1395.128703,-66.216617,0
0.076042,179.993612,-107.280330,-66.148686,-0.958032,-4.793948,2.910970,2.268130,5.106529,-2.753837,-2.655494,-0.057533,0.425753,-0.018440,86.402852,188.269004,1395.297192,-66.935254,0
0.077083,187.282064,-33.169317,-124.476710,-2.083962,-4.782940,1.165338,3.888037,5.144508,-1.136177,-4.167207,-0.083057,0.427407,-0.011006,91.919431,188.193675,1395.845045,-66.840802,0
0.078125,155.077277,30.829243,-163.921036,-2.883372,-3.997672,-0.637529,4.696057,4.267192,0.714427,-4.940199,-0.119518,0.431197,-0.040740,71.249147,188.344576,1397.427914,-67.436567,0
0.079167,83.819948,81.696882,-194.008576,-3.412560,-2.445485,-2.783798,5.109733,2.763221,2.892876,-5.385716,-0.097641,0.422102,-0.025873,36.866223,188.269138,1398.532631,-67.202617,0
0.080208,21.444360,136.921919,-177.652425,-3.176114,-0.680469,-4.010238,4.491152,0.913641,4.044651,-4.608917,-0.072118,0.435331,-0.018440,7.560804,188.269145,1399.420130,-67.333093,0
0.081250,-40.637430,180.354967,-128.766250,-2.241592,1.396453,-4.966861,3.292653,-1.235973,4.972109,-3.413254,-0.072118,0.425340,-0.025873,-21.283023,188.193684,1399.910374,-66.841437,0
0.082292,-95.588967,188.905334,-55.929130,-0.856698,3.216511,-4.995478,1.479440,-3.112139,4.877207,-1.535988,-0.039302,0.421344,-0.025873,-47.638761,188.344603,1400.043665,-66.690663,0
0.083333,-155.467271,160.975700,5.983637,0.359306,4.625589,-4.296407,-0.523214,-4.513566,4.191319,0.440282,0.011744,0.416865,-0.029590,-77.473322,188.269102,1399.588866,-67.211295,0
0.084377,-180.157608,107.113084,66.061502,1.496495,5.187018,-2.906442,-2.355758,-5.071858,2.754836,2.271854,0.033621,0.419346,-0.040740,-85.444215,188.275169,1400.741985,-67.793733,0
0.085418,-187.107062,32.614485,124.134341,2.656203,5.176010,-1.164898,-3.971799,-5.079454,1.042273,3.821645,0.051852,0.422308,-0.007290,-90.893244,188.194226,1400.807551,-68.460375,0
0.086458,-154.992674,-31.313605,163.785246,3.433095,4.379734,0.678850,-4.775953,-4.205936,-0.765193,4.560367,0.143006,0.437260,-0.044457,-71.269985,188.420330,1401.454076,-68.647031,0
0.087500,-82.955650,-81.547013,194.091515,4.052357,2.809200,2.800591,-5.189628,-2.660188,-2.930702,5.002076,0.091960,0.426994,-0.033307,-36.042687,188.344838,1401.490322,-68.734993,0
0.088542,-20.207165,-136.454935,178.476617,3.770874,1.117573,4.051559,-4.528521,-0.829598,-4.047966,4.198622,0.110191,0.399089,-0.033307,-7.412767,188.269496,1401.774305,-68.993330,0
0.089583,41.320928,-180.181608,128.849190,2.791315,-1.073103,5.012270,-3.275896,1.327613,-5.035817,2.995344,0.055498,0.407839,-0.022156,22.297951,188.194199,1401.961410,-68.964984,0
0.090625,94.939074,-189.683321,55.550306,1.383902,-2.933525,5.020447,-1.485879,3.173395,-4.975425,1.121885,0.022683,0.414936,-0.063040,48.248390,188.344992,1402.251932,-69.532134,0
0.091667,154.851278,-161.095967,-6.180186,0.179157,-4.217841,4.317288,0.481979,4.609003,-4.280909,-0.782036,-0.028364,0.414247,-0.018440,77.914075,188.420244,1401.984499,-69.618636,0
0.092708,180.603808,-107.292075,-65.346676,-0.969291,-4.808626,2.894618,2.326122,5.106529,-2.861681,-2.663109,-0.064826,0.416107,-0.048173,87.427359,188.269675,1402.829502,-68.911199,0
0.093750,187.191664,-32.311931,-123.176481,-2.072703,-4.812295,1.140809,3.907367,5.216668,-1.114608,-4.228132,-0.083057,0.434710,-0.011006,91.784331,188.269546,1403.658721,-69.432949,0
0.094795,154.817378,31.533944,-163.775216,-2.860854,-3.979325,-0.690674,4.765647,4.289979,0.753251,-4.947814,-0.104934,0.404463,-0.022156,74.277636,188.420397,1403.940020,-69.493820,0
0.095833,83.085452,81.262317,-193.899210,-3.468856,-2.430807,-2.824679,5.183189,2.717646,2.936014,-5.416179,-0.115872,0.409562,-0.059323,38.093381,188.420245,1404.035273,-70.260172,0
0.096875,20.755064,136.252454,-178.612407,-3.198633,-0.746519,-4.059295,4.506617,0.906045,4.079161,-4.654611,-0.112226,0.418037,0.003860,9.407170,188.344945,1404.878509,-70.420560,0
0.097917,-40.354932,179.979126,-129.385985,-2.241592,1.425808,-5.003654,3.281055,-1.258761,4.976423,-3.432293,-0.064826,0.419621,-0.022156,-20.945274,188.269548,1405.124653,-70.799282,0
0.098958,-94.684973,189.433859,-56.731140,-0.867958,3.278892,-5.085417,1.475574,-3.115937,4.985051,-1.551220,-0.013779,0.423686,-0.025873,-47.942736,188.439273,1406.487586,-71.011451,0
0.100000,-155.003974,161.328050,4.622650,0.348047,4.614580,-4.333200,-0.519348,-4.547747,4.312104,0.394588,0.004452,0.418863,-0.007290,-76.662722,188.439909,1407.910515,-70.557506,0
0.101042,-180.564405,108.769130,64.749122,1.496495,5.212704,-2.959588,-2.348025,-5.075656,2.776405,2.275661,0.062790,0.419897,-0.011006,-87.583297,188.424708,1408.345454,-71.185381,0
0.102083,-187.140962,34.446706,123.587516,2.633685,5.205365,-1.185338,-3.956334,-5.140220,1.081097,3.825453,0.084667,0.425064,-0.018440,-91.895235,188.275394,1409.157249,-71.305316,0
0.103125,-155.874068,-29.504874,163.931066,3.444354,4.405420,0.682938,-4.791417,-4.213531,-0.816959,4.587021,0.073729,0.439533,-0.037023,-73.848141,188.428152,1409.770235,-72.678036,0
0.104166,-85.046137,-80.572177,193.763420,3.996060,2.838555,2.792414,-5.224424,-2.679178,-2.956584,5.043962,0.124775,0.426511,-0.007290,-37.934085,188.504077,1410.599379,-73.582552,0
0.105208,-22.241152,-135.996880,178.950532,3.703318,1.077209,4.063824,-4.571048,-0.825800,-4.082476,4.221469,0.095606,0.435744,-0.040740,-7.998200,188.504728,1411.261822,-74.579222,0
0.106250,39.806738,-179.817513,130.076509,2.757537,-1.073103,5.020447,-3.353218,1.323815,-5.057386,2.999151,0.062790,0.429681,-0.044457,20.924436,188.372381,1411.531493,-75.383546,0
0.107292,94.396678,-189.589361,57.044962,1.395162,-2.915178,5.081769,-1.540005,3.199980,-5.014248,1.163772,0.029975,0.425616,-0.059323,47.640440,188.429798,1412.324624,-75.720335,0
0.108333,154.342782,-161.765432,-4.709834,0.190417,-4.232519,4.333640,0.466515,4.601408,-4.280909,-0.850577,-0.006487,0.417072,-0.022156,76.867051,188.514436,1412.235259,-77.132098,0
0.109386,180.208311,-107.045430,-65.674771,-0.969291,-4.812295,2.874177,2.360917,5.095135,-2.762465,-2.716419,-0.064826,0.417072,-0.014723,86.470402,188.510284,1411.541253,-78.442158,0
0.110431,187.462863,-31.947836,-123.869126,-2.072703,-4.823304,1.169426,3.973091,5.114125,-1.080098,-4.258595,-0.086703,0.431472,-0.040740,91.964464,188.426526,1410.789426,-79.107969,0
0.111462,155.551874,30.852733,-163.386363,-2.860854,-3.994003,-0.678410,4.761781,4.316565,0.744623,-4.947814,-0.075764,0.417279,-0.025873,71.406763,188.507385,1411.057368,-79.223671,0
