1-Time,2-VGERA,3-VGERB,4-VGERC,5-VN,6-IGERAN,7-IGERBN,8-IGERCN,9-IGERAT,10-IGERBT,11-IGERCT,12-IN,13-IFD,14-IFAULT,15-VFAULT,16-Speed (rad/s),17-Active Power,18-Reactive Power,19-FAULT 
0.000000,-138.920494,190.893256,-23.759849,2.407788,2.248342,-6.494097,3.617759,-2.175915,6.518696,-3.594879,-0.011544,0.598856,-0.028224,-20.208631,188.495685,1609.805341,897.634283,0
0.001042,-166.925128,152.898813,51.531818,3.855468,4.300402,-6.125019,1.248339,-4.300498,6.229125,-1.403246,-0.113828,0.597288,-0.020755,25.562938,188.495647,1611.173963,897.274835,0
0.002083,-193.477922,70.652019,107.803599,4.907298,6.118145,-5.017784,-1.468098,-6.053831,5.184148,1.297160,-0.150358,0.598791,-0.028224,60.409047,188.420209,1613.604297,896.641023,0
0.003125,-172.993366,-1.664273,155.273296,5.868648,6.515776,-3.319230,-3.430799,-6.583139,3.463504,3.179261,-0.183235,0.607805,-0.039427,94.056296,188.495662,1615.725215,895.480669,0
0.004167,-125.672454,-70.223403,183.772349,6.388908,6.281458,-0.612656,-5.598724,-6.278052,0.827981,5.253485,-0.241683,0.609112,-0.013287,111.202256,188.495604,1618.132536,894.655132,0
0.005208,-48.123778,-125.807642,195.676705,6.592488,4.840045,1.867709,-6.326342,-4.991539,-1.631281,6.157179,-0.270907,0.608916,-0.058098,116.110796,188.495653,1618.963330,893.063736,0
0.006250,24.774473,-173.345999,164.715531,6.004368,2.947746,4.161551,-6.539030,-2.973552,-3.931069,6.292377,-0.289172,0.575600,-0.031958,106.723496,188.344844,1619.377438,891.656173,0
0.007292,90.980648,-182.720781,109.724053,4.975158,0.313440,5.776764,-5.397231,-0.418906,-5.618139,5.299737,-0.248989,0.595590,-0.020755,75.394797,188.495797,1619.371246,890.978362,0
0.008333,138.414985,-190.911634,23.500568,3.391758,-2.171755,6.649853,-3.706920,2.102659,-6.516231,3.652454,-0.223418,0.597027,-0.039427,25.099228,188.496709,1620.371067,889.742739,0
0.009375,166.113372,-152.119851,-51.828030,1.966698,-4.191863,6.312523,-1.400933,4.179457,-6.293807,1.510631,-0.175929,0.597549,-0.017021,-21.859891,188.495531,1620.999332,889.131189,0
0.010417,193.097180,-69.450225,-107.348864,0.937488,-6.009606,5.193383,1.300578,5.954845,-5.211060,-1.182659,-0.055380,0.586444,-0.035692,-55.586310,188.344885,1621.844896,888.396051,0
0.011458,172.635309,2.358668,-154.658523,-0.023862,-6.474692,3.447206,3.308056,6.443720,-3.519793,-3.114570,-0.069992,0.597680,-0.031958,-89.301420,188.495696,1622.751273,887.398308,0
0.012500,125.484535,70.156702,-183.477652,-0.589362,-6.162268,0.704914,5.449862,6.105550,-0.867483,-5.153216,-0.015197,0.608720,-0.005818,-106.662269,188.495747,1623.288780,886.077908,0
0.013542,49.013396,125.801346,-195.628220,-0.792942,-4.827363,-1.676236,6.248375,4.870498,1.633746,-6.024889,0.032292,0.615057,-0.050629,-112.588709,188.495830,1624.198685,885.901401,0
0.014583,-23.487867,173.726292,-164.740910,-0.216132,-2.828556,-4.017701,6.420018,2.859863,3.962911,-6.213455,-0.007891,0.617147,-0.020755,-102.398399,188.415720,1625.665535,885.055055,0
0.015625,-90.680840,182.992345,-110.266478,0.790458,-0.180049,-5.692443,5.255831,0.279487,5.645784,-5.167448,-0.011544,0.604017,-0.054364,-73.286460,188.495273,1625.657960,884.402514,0
0.016667,-138.716329,191.098632,-23.895265,2.396478,2.258992,-6.470285,3.565520,-2.208996,6.472533,-3.555743,-0.044421,0.595198,-0.013287,-19.903261,188.495351,1625.441846,883.381465,0
0.017708,-166.460085,152.874651,51.593371,3.866778,4.335905,-6.144861,1.173712,-4.307850,6.250108,-1.332089,-0.121134,0.593630,-0.058098,26.569528,188.495157,1625.753929,882.572682,0
0.018750,-193.500607,68.851964,107.815909,4.929918,6.079092,-5.073344,-1.486755,-6.035452,5.158968,1.314949,-0.194194,0.591670,-0.024490,60.782277,188.419882,1624.959141,882.551048,0
0.019792,-173.061421,-3.283114,154.805493,5.857338,6.508675,-3.283513,-3.441993,-6.553733,3.497078,3.225513,-0.179582,0.600685,-0.050629,94.520006,188.495284,1624.730332,882.910846,0
0.020833,-124.912506,-70.622073,183.698485,6.400218,6.263706,-0.620593,-5.535291,-6.215564,0.865751,5.264159,-0.230724,0.594349,-0.039427,110.919506,188.495220,1623.886976,882.995515,0
0.021875,-47.908270,-125.638510,195.984470,6.615108,4.925251,1.804212,-6.356193,-5.054027,-1.580921,6.182083,-0.234377,0.607087,-0.046895,118.825196,188.495275,1624.014583,884.218497,0
0.022917,23.810360,-173.551375,164.801705,6.072228,2.944196,4.149645,-6.535298,-3.076473,-3.935265,6.317282,-0.263601,0.612248,-0.024490,108.012836,188.419956,1624.452067,885.277544,0
0.023958,90.209358,-182.865752,110.610417,5.009088,0.348943,5.832324,-5.449470,-0.418906,-5.664303,5.360221,-0.219765,0.610484,-0.031958,75.304317,188.495202,1625.764698,885.406895,0
0.025000,138.641835,-190.947877,24.386932,3.357828,-2.175305,6.645884,-3.762890,2.095307,-6.516231,3.691591,-0.212459,0.599379,-0.043161,25.630798,188.495240,1626.025592,885.733322,0
0.026042,166.635127,-152.796382,-50.867803,1.921458,-4.206064,6.308555,-1.330037,4.194160,-6.289610,1.482168,-0.143052,0.600554,-0.046895,-20.638411,188.495179,1626.719878,885.035893,0
0.027083,193.233290,-69.788490,-107.398106,0.903558,-5.995405,5.165602,1.382669,5.995278,-5.190076,-1.189775,-0.095563,0.592062,-0.028224,-54.206490,188.419835,1627.301879,884.739475,0
0.028125,172.986927,2.781500,-154.732387,-0.012552,-6.414337,3.411488,3.322981,6.473126,-3.507203,-3.160822,-0.051727,0.604735,-0.028224,-89.403210,188.419811,1628.145146,884.630348,0
0.029167,124.826670,70.966122,-183.810038,-0.521502,-6.172918,0.748569,5.468519,6.149659,-0.821319,-5.206584,-0.022503,0.594740,-0.061832,-106.300349,188.495278,1629.113097,884.886549,0
0.030208,47.028459,125.765103,-196.132955,-0.826872,-4.774109,-1.739733,6.289420,4.881526,1.650533,-6.071141,-0.007891,0.585464,-0.050629,-111.819629,188.495166,1629.413982,885.551667,0
0.031250,-25.121187,173.520916,-164.925569,-0.238752,-2.803704,-4.105009,6.446138,2.859863,4.000681,-6.231244,0.003068,0.614795,-0.046895,-103.291889,188.419913,1629.730744,886.012302,0
0.032292,-90.624127,183.523905,-109.958712,0.835698,-0.165848,-5.791658,5.259562,0.257432,5.733915,-5.213700,-0.040768,0.605715,-0.035692,-70.605990,188.495271,1631.300550,886.378700,0
0.033333,-138.670959,191.328169,-23.919886,2.453028,2.329998,-6.557594,3.569251,-2.264133,6.535483,-3.541512,-0.037115,0.602906,-0.039427,-20.355661,188.495209,1632.569744,886.056170,0
0.034375,-167.004526,152.971299,51.100947,3.878088,4.389159,-6.172642,1.173712,-4.355634,6.329845,-1.346320,-0.095563,0.598856,-0.024490,25.302808,188.495206,1633.994643,886.688848,0
0.035417,-194.011019,70.579533,107.483523,4.941228,6.178500,-5.013815,-1.550188,-6.134697,5.192542,1.378990,-0.139399,0.591474,-0.035692,60.126297,188.420037,1636.494995,886.070097,0
0.036458,-173.072763,-1.313926,155.076326,5.800788,6.558379,-3.239858,-3.497963,-6.605193,3.509668,3.296670,-0.205153,0.606630,-0.050629,93.988436,188.495242,1638.231339,885.434382,0
0.037500,-125.990044,-69.728086,184.117046,6.366288,6.292108,-0.545190,-5.643501,-6.318485,0.848965,5.360221,-0.274560,0.610027,-0.035692,111.337976,188.495282,1640.823370,885.558100,0
0.038542,-48.282573,-125.747238,196.033713,6.581178,4.889749,1.871678,-6.397238,-5.002566,-1.656461,6.199873,-0.307437,0.600685,-0.017021,116.223896,188.495322,1641.626081,884.309319,0
0.039583,24.309430,-173.345999,165.158713,6.049608,2.933545,4.185362,-6.576343,-3.010310,-3.981429,6.331513,-0.267254,0.614273,-0.061832,106.972316,188.344381,1642.345725,883.499907,0
0.040625,90.470236,-182.950318,110.019508,4.997778,0.277937,5.844230,-5.412156,-0.352743,-5.689483,5.310411,-0.245336,0.598137,-0.031958,75.507897,188.495316,1642.515412,882.548308,0
0.041667,138.222163,-191.249899,23.857576,3.403068,-2.221459,6.657790,-3.710651,2.121037,-6.579182,3.677359,-0.219765,0.594675,-0.020755,25.155778,188.495262,1643.374578,882.480321,0
0.042708,166.090687,-152.168175,-51.040152,1.978008,-4.216715,6.304586,-1.352426,4.223566,-6.314790,1.450147,-0.146705,0.594936,-0.035692,-21.735481,188.495179,1643.594179,882.172663,0
0.043750,193.358058,-69.413982,-107.176515,0.937488,-6.062860,5.233068,1.326698,5.954845,-5.164896,-1.239585,-0.099216,0.597157,-0.020755,-55.394040,188.344496,1643.250786,881.386762,0
0.044792,172.782762,2.189536,-154.683144,-0.001242,-6.446290,3.431331,3.367757,6.476801,-3.503006,-3.107454,-0.077298,0.607805,-0.039427,-89.143080,188.495191,1642.771752,881.471917,0
0.045833,125.597960,69.878841,-183.637690,-0.578052,-6.133865,0.752537,5.427474,6.186417,-0.829713,-5.210142,-0.044421,0.602645,-0.028224,-106.684889,188.495226,1643.359322,881.303727,0
0.046875,49.081451,125.583889,-195.788258,-0.781632,-4.813162,-1.739733,6.267032,4.892553,1.692500,-6.021331,-0.004238,0.617343,-0.035692,-112.633949,188.495175,1643.636829,880.263706,0
0.047917,-22.977454,173.581321,-165.036364,-0.216132,-2.846308,-4.041512,6.420018,2.885593,3.975501,-6.224128,0.014027,0.614142,-0.046895,-102.534119,188.419822,1643.706145,879.854628,0
0.048958,-90.159085,183.040669,-110.414205,0.824388,-0.165848,-5.712286,5.255831,0.290514,5.679358,-5.156774,-0.026156,0.604866,-0.046895,-73.444800,188.495284,1642.488947,879.248496,0
0.050000,-138.500822,191.267764,-24.264583,2.419098,2.312247,-6.486160,3.572983,-2.212672,6.485123,-3.523723,-0.051727,0.598203,-0.028224,-20.106841,188.495139,1641.449964,879.026765,0
0.051042,-166.426058,153.164593,51.113258,3.798918,4.374958,-6.152799,1.244608,-4.278444,6.262698,-1.342762,-0.088257,0.595198,-0.017021,26.332018,188.495300,1639.923163,878.505761,0
0.052083,-193.580004,69.298958,107.311175,4.941228,6.139446,-5.037627,-1.453173,-6.039128,5.163165,1.354085,-0.175929,0.581088,-0.024490,60.533457,188.419730,1637.898431,878.500870,0
0.053125,-173.322298,-2.884444,154.497728,5.834718,6.512226,-3.267638,-3.468112,-6.531678,3.488684,3.232628,-0.197847,0.576711,-0.039427,94.248566,188.495244,1636.128814,878.635805,0
0.054167,-125.116671,-70.307969,183.600001,6.377598,6.263706,-0.600750,-5.565142,-6.230267,0.878341,5.296180,-0.248989,0.592193,-0.050629,110.930816,188.493280,1634.040630,878.543667,0
0.055208,-48.021695,-125.372730,196.169129,6.603798,4.932352,1.867709,-6.386044,-5.028297,-1.610297,6.189199,-0.256295,0.598987,-0.043161,118.893056,188.495043,1633.555714,879.141688,0
0.056250,23.481428,-173.466808,165.047917,6.004368,2.951297,4.189331,-6.542761,-3.039716,-3.926872,6.377765,-0.248989,0.614403,-0.028224,108.114626,188.420222,1633.520156,879.815491,0
0.057292,89.812371,-182.962399,110.684281,4.997778,0.313440,5.824387,-5.419619,-0.429933,-5.634926,5.338874,-0.230724,0.608655,-0.028224,75.485277,188.495007,1632.870058,880.516707,0
0.058333,138.562438,-190.923715,24.682386,3.391758,-2.161104,6.645884,-3.721845,2.076928,-6.495248,3.656012,-0.208806,0.598137,-0.035692,25.777828,188.495161,1631.581657,880.081684,0
0.059375,166.578414,-153.050081,-50.904735,1.966698,-4.248668,6.292680,-1.382276,4.197836,-6.281217,1.517746,-0.139399,0.598072,-0.035692,-20.547931,188.495794,1631.317699,880.700850,0
0.060417,193.051810,-70.235484,-107.275000,0.914868,-6.027357,5.189414,1.322967,5.991602,-5.194273,-1.171986,-0.102869,0.590560,-0.009553,-54.025530,188.419699,1631.586790,881.513790,0
0.061458,173.247804,2.262021,-154.560038,-0.023862,-6.453390,3.439268,3.311787,6.487829,-3.523989,-3.111012,-0.066339,0.602514,-0.069301,-89.165700,188.495664,1631.894759,881.800326,0
0.062500,125.166945,70.519129,-183.514584,-0.578052,-6.155167,0.744600,5.468519,6.164362,-0.825516,-5.160332,-0.007891,0.571485,-0.035692,-106.277729,188.495667,1630.910333,881.949286,0
0.063542,47.380076,125.414757,-196.096023,-0.826872,-4.830913,-1.715922,6.252106,4.870498,1.650533,-6.042678,-0.011544,0.616886,-0.020755,-111.887489,188.500569,1630.315119,882.546570,0
0.064583,-24.644802,173.351784,-164.999432,-0.250062,-2.803704,-4.057386,6.449869,2.914999,3.941927,-6.224128,0.024986,0.575731,-0.073035,-103.224029,188.422347,1629.541259,883.597626,0
0.065625,-90.340565,183.451419,-110.106440,0.813078,-0.190700,-5.712286,5.285682,0.283162,5.708735,-5.220815,-0.015197,0.603755,-0.013287,-70.832190,188.495642,1630.390382,884.388101,0
0.066667,-138.410082,191.243603,-24.178409,2.453028,2.287395,-6.537751,3.591640,-2.231051,6.514500,-3.552185,-0.033462,0.597745,-0.035692,-20.457451,188.495799,1630.906197,884.706180,0
0.067708,-166.834388,153.297483,50.879356,3.821538,4.328805,-6.121050,1.218488,-4.318877,6.304665,-1.342762,-0.110175,0.599640,-0.028224,25.201018,188.495664,1631.910588,884.935742,0
0.068750,-193.557319,70.954041,107.385038,4.884678,6.160748,-5.029689,-1.483023,-6.064858,5.200935,1.314949,-0.150358,0.596766,-0.035692,60.081057,188.420345,1632.666571,885.384500,0
0.069792,-173.447066,-0.891095,154.780872,5.834718,6.529977,-3.287481,-3.479306,-6.605193,3.501274,3.278880,-0.194194,0.609439,-0.035692,93.716996,188.495575,1634.431663,885.031277,0
0.070833,-126.432401,-69.269011,183.747728,6.354978,6.228203,-0.584876,-5.542754,-6.289079,0.823784,5.317527,-0.230724,0.609635,-0.031958,111.270116,188.495635,1635.978406,884.337638,0
0.071875,-48.883725,-125.251921,195.996781,6.615108,4.857796,1.824055,-6.359924,-5.020945,-1.627084,6.192757,-0.278213,0.608785,-0.039427,116.223896,188.495157,1636.321407,883.819199,0
0.072918,23.776333,-173.394323,165.134091,6.049608,2.898042,4.181394,-6.494253,-3.054419,-3.943659,6.331513,-0.259948,0.636352,-0.058098,106.870526,188.419712,1635.992734,883.667022,0
0.073963,90.583661,-182.974480,110.167235,4.963848,0.302789,5.836293,-5.415887,-0.367446,-5.639123,5.257043,-0.252642,0.598921,-0.076769,75.360867,188.500025,1635.664264,882.612921,0
0.075000,137.915915,-191.261980,24.165341,3.403068,-2.146903,6.618104,-3.714383,2.098983,-6.503641,3.656012,-0.208806,0.593826,-0.073035,25.212328,188.494158,1635.892251,882.417148,0
0.076042,166.079344,-152.542683,-51.261743,2.000628,-4.198964,6.272837,-1.404665,4.183133,-6.264430,1.485726,-0.168623,0.596112,-0.046895,-21.758101,188.495897,1635.295038,881.986414,0
0.077083,192.779590,-69.836814,-107.041099,0.948798,-5.970553,5.205288,1.281922,5.925439,-5.202667,-1.122176,-0.102869,0.588012,-0.061832,-55.495830,188.420435,1633.972484,882.458918,0
0.078125,173.168407,2.044565,-154.289205,0.055308,-6.439189,3.451174,3.285667,6.458423,-3.561760,-3.061202,-0.066339,0.599705,-0.035692,-88.950810,188.495875,1633.130838,882.908469,0
0.079167,125.915550,69.637223,-183.194508,-0.532812,-6.162268,0.780317,5.393891,6.142308,-0.901056,-5.128311,-0.015197,0.612901,-0.039427,-106.503929,188.495989,1632.504373,883.098735,0
0.080208,49.285616,125.293948,-195.837501,-0.781632,-4.830913,-1.648456,6.203599,4.874174,1.595976,-6.024889,-0.029809,0.610941,-0.039427,-112.633949,188.495910,1632.335410,882.984845,0
0.081250,-22.387644,173.424269,-165.036364,-0.238752,-2.825006,-3.954203,6.386436,2.914999,3.887370,-6.195665,-0.018850,0.615644,-0.054364,-102.296609,188.495908,1631.896011,882.246769,0
0.082292,-89.694042,182.980264,-110.955872,0.801768,-0.233303,-5.668631,5.278219,0.364029,5.633194,-5.192353,0.021333,0.603755,-0.043161,-73.942440,188.496053,1630.494424,882.284310,0
0.083337,-138.500822,190.929499,-24.239962,2.396478,2.244791,-6.482191,3.621491,-2.179590,6.514500,-3.545070,-0.062686,0.592846,-0.028224,-19.993741,188.495931,1629.915008,882.583455,0
0.084375,-166.369345,153.829043,50.780871,3.844158,4.257799,-6.136924,1.278190,-4.245362,6.321452,-1.385457,-0.128440,0.590168,-0.058098,26.298088,188.495897,1629.223160,883.248195,0
0.085417,-192.774687,70.253349,107.286553,4.918608,6.086192,-5.061438,-1.430784,-5.972964,5.184148,1.258024,-0.164970,0.588012,-0.058098,60.556077,188.495884,1627.148797,883.523551,0
0.086458,-173.946136,-2.497855,154.079167,5.778168,6.501575,-3.307324,-3.400948,-6.535354,3.497078,3.157914,-0.175929,0.587163,-0.043161,94.090226,188.496027,1624.911246,884.228640,0
0.087500,-125.456946,-70.150917,182.959849,6.343668,6.221103,-0.644404,-5.520366,-6.204537,0.865751,5.228581,-0.230724,0.591670,-0.061832,110.727236,188.495986,1622.357601,884.437403,0
0.088542,-48.316600,-125.034464,196.193751,6.615108,4.935902,1.736746,-6.341267,-5.020945,-1.568331,6.121600,-0.270907,0.603625,-0.031958,118.870436,188.445525,1620.912573,884.852862,0
0.089583,22.902960,-173.321838,165.035607,6.026988,2.993900,4.090116,-6.535298,-3.094852,-3.830348,6.313724,-0.281866,0.609243,-0.058098,107.888426,188.437402,1619.553900,885.425650,0
0.090625,89.540151,-182.926156,111.164394,5.009088,0.448350,5.748984,-5.434544,-0.492421,-5.639123,5.353105,-0.245336,0.605258,-0.061832,75.937677,188.441986,1619.844733,887.055863,0
0.091667,138.120080,-190.645854,25.174811,3.391758,-2.104300,6.590324,-3.740502,2.032819,-6.432297,3.716496,-0.190541,0.599770,-0.050629,25.924858,188.509948,1618.583188,887.689116,0
0.092708,166.510359,-153.883663,-50.400000,1.955388,-4.135059,6.256963,-1.438247,4.157403,-6.289610,1.507073,-0.172276,0.594871,-0.028224,-20.265181,188.510105,1619.185013,887.911112,0
0.093750,192.189780,-71.214037,-107.447349,0.914868,-5.970553,5.248943,1.263265,5.881330,-5.219453,-1.111502,-0.121134,0.593761,-0.058098,-54.195180,188.427175,1618.943660,887.869670,0
0.094792,173.826272,2.032484,-154.326137,0.043998,-6.435639,3.474986,3.237159,6.465774,-3.532383,-2.990046,-0.077298,0.582590,-0.017021,-88.882950,188.429491,1618.563408,888.048151,0
0.095833,125.620645,70.374158,-182.874432,-0.510192,-6.133865,0.800160,5.371503,6.098199,-0.926237,-5.060712,-0.018850,0.610876,-0.013287,-106.198559,188.496310,1617.060555,888.343901,0
0.096875,47.799749,125.148977,-196.120645,-0.736392,-4.862866,-1.636550,6.196136,4.859471,1.574992,-6.007100,0.021333,0.626162,-0.031958,-111.876179,188.495517,1616.260829,888.683594,0
0.097929,-25.393407,173.496755,-164.507008,-0.216132,-2.828556,-4.021669,6.405093,2.914999,3.899960,-6.184992,0.014027,0.577495,-0.043161,-102.963899,188.495472,1615.556949,889.702934,0
0.098967,-90.692182,183.161478,-109.577084,0.813078,-0.254605,-5.664663,5.300607,0.272135,5.633194,-5.163890,-0.026156,0.611268,-0.054364,-70.526820,188.495428,1615.450274,889.190688,0
0.100008,-138.704987,190.675800,-23.427462,2.430408,2.255442,-6.462348,3.610296,-2.183266,6.464139,-3.545070,-0.062686,0.597941,-0.046895,-19.971121,188.495465,1614.654843,889.270803,0
0.101047,-166.686935,153.394130,51.064015,3.866778,4.279101,-6.113113,1.270728,-4.234335,6.212338,-1.385457,-0.110175,0.596308,-0.050629,25.381978,188.495264,1613.460211,888.658540,0
0.102088,-193.046907,71.280226,107.618940,4.918608,6.068441,-5.021752,-1.438247,-5.972964,5.192542,1.254466,-0.179582,0.595590,-0.024490,60.341187,188.420184,1613.934541,888.714837,0
0.103131,-173.515121,-1.193117,154.793182,5.823408,6.455421,-3.287481,-3.374828,-6.524327,3.518061,3.175703,-0.197847,0.606564,-0.043161,93.728306,188.495483,1614.255551,888.560251,0
0.104171,-126.523141,-69.450225,183.206061,6.377598,6.217553,-0.624561,-5.460664,-6.175131,0.895128,5.232138,-0.230724,0.598987,-0.031958,111.145706,188.495490,1614.487038,888.254416,0
0.105218,-48.407340,-125.928451,195.553599,6.547248,4.864897,1.828023,-6.307685,-4.954782,-1.589314,6.110927,-0.278213,0.605062,-0.024490,115.986386,188.495551,1614.176315,887.574075,0
0.106259,24.048553,-173.430566,164.629357,6.026988,2.898042,4.082179,-6.468134,-3.058095,-3.847135,6.267472,-0.274560,0.610353,-0.076769,106.644326,188.420207,1613.604284,887.221636,0
0.107296,90.311441,-182.817428,110.462690,5.009088,0.398647,5.697393,-5.326334,-0.474042,-5.538402,5.278390,-0.263601,0.596112,-0.035692,75.869817,188.495635,1611.714463,886.747468,0
0.108342,138.074710,-190.790825,23.672917,3.403068,-2.082998,6.582387,-3.744234,2.007089,-6.402921,3.648897,-0.223418,0.594936,-0.046895,25.020058,188.495622,1610.720988,886.479292,0
0.109379,165.693699,-153.146728,-51.040152,1.989318,-4.113757,6.260932,-1.475561,4.080212,-6.205676,1.542651,-0.168623,0.591148,-0.028224,-21.712861,188.495582,1608.459420,886.538612,0
0.110420,191.781450,-70.199241,-107.668940,0.937488,-5.903097,5.233068,1.244608,5.840896,-5.232043,-1.061693,-0.121134,0.585660,-0.039427,-55.778580,188.420273,1607.239077,887.380772,0
