1-Time,2-VGERA,3-VGERB,4-VGERC,5-VN,6-IGERAN,7-IGERBN,8-IGERCN,9-IGERAT,10-IGERBT,11-IGERCT,12-IN,13-IFD,14-IFAULT,15-VFAULT,16-Speed (rad/s),17-Active Power,18-Reactive Power,19-FAULT 
0.000000,156.546267,-165.641286,-11.235282,0.077824,-1.418089,5.049774,-3.145311,1.271734,-5.108125,3.431604,-0.233057,0.575611,-0.067423,166.866098,188.571152,1075.370637,955.609073,0
0.001042,178.332523,-115.724993,-80.597024,-1.228255,-3.399604,4.937137,-1.105230,3.132385,-4.955935,1.421771,-0.141902,0.568721,-0.045123,256.302229,188.495629,1073.292989,956.329269,0
0.002083,185.813074,-36.833760,-133.481099,-2.230333,-4.636217,4.305570,0.643411,4.419970,-4.347177,-0.459371,-0.127317,0.569410,-0.067423,310.668678,188.646585,1072.997462,956.215756,0
0.003125,153.393588,30.817498,-173.800345,-3.052262,-5.278374,2.801072,2.569945,4.953139,-2.998609,-2.321588,-0.054394,0.579332,-0.078573,318.560764,188.721880,1072.408198,956.719021,0
0.004167,102.216226,101.663399,-176.862567,-3.119818,-5.032520,0.765574,4.106630,4.844329,-0.935596,-4.032406,-0.068979,0.581536,-0.078573,268.438703,188.571062,1071.700358,957.947916,0
0.005208,18.257781,146.693768,-178.709621,-3.176114,-4.107813,-1.213605,4.984735,3.926698,1.021731,-4.906740,-0.043455,0.561762,-0.067423,188.380756,188.495846,1071.175547,958.516442,0
0.006250,-60.050702,166.930420,-146.884393,-2.556853,-2.537278,-2.951421,4.988520,2.508541,2.733863,-4.963515,-0.032517,0.520078,-0.078573,79.895540,188.646496,1069.145426,960.123474,0
0.007292,-118.256617,183.173769,-65.140097,-1.025588,-0.486043,-4.552465,4.519188,0.484675,4.352990,-4.418476,-0.047102,0.581192,-0.089723,-55.069256,188.722012,1067.948940,960.558064,0
0.008333,-156.755463,166.084779,10.151661,0.483158,1.267965,-5.111623,3.319363,-1.212761,5.012478,-3.373817,-0.068979,0.579814,-0.063706,-165.254479,188.571141,1067.127990,962.221338,0
0.009375,-177.829823,116.826207,80.145290,1.789237,3.286175,-5.007032,1.245217,-3.022634,4.932155,-1.273145,-0.130964,0.573957,-0.108307,-255.377367,188.495720,1065.532348,964.247233,0
0.010417,-186.395167,37.570879,133.406067,2.813834,4.519118,-4.315124,-0.473145,-4.393640,4.344535,0.543653,-0.156487,0.578780,-0.082290,-314.742513,188.721949,1065.040483,965.677539,0
0.011458,-152.992588,-31.395820,173.263550,3.601985,5.117242,-2.891080,-2.361829,-4.890539,2.962147,2.424795,-0.189302,0.587324,-0.074856,-326.642562,188.721985,1063.298195,966.605729,0
0.012500,-101.046831,-101.959841,177.115630,3.680800,4.948446,-0.847537,-3.993137,-4.785356,0.932953,4.162108,-0.229410,0.553701,-0.086006,-267.716491,188.571248,1061.071080,967.676756,0
0.013542,-17.438683,-146.543899,178.379404,3.658281,4.056765,1.067279,-4.878813,-3.864098,-0.999008,5.051582,-0.243995,0.544813,-0.089723,-187.996294,188.495660,1058.928060,967.591152,0
0.014583,59.604208,-167.250352,147.441247,3.106575,2.515586,2.833254,-4.893953,-2.536616,-2.778780,5.202981,-0.254934,0.579125,-0.048839,-81.177310,188.722018,1058.310911,969.523134,0
0.015625,118.329920,-182.131280,67.714129,1.575311,0.457012,4.442343,-4.420835,-0.559901,-4.393679,4.665512,-0.236703,0.583534,-0.074856,53.877552,188.721808,1057.199596,970.844227,0
0.016667,156.727066,-166.651356,-9.011526,0.089083,-1.304335,5.033683,-3.232365,1.199194,-5.027802,3.556509,-0.243995,0.583879,-0.104590,164.974699,188.571026,1056.431076,971.822716,0
0.017708,177.066931,-116.993454,-80.293232,-1.250774,-3.344562,4.953228,-1.180929,3.016321,-4.934798,1.489901,-0.178364,0.567687,-0.078573,255.255204,188.495638,1054.798198,972.049722,0
0.018750,186.536269,-36.704565,-132.824909,-2.286629,-4.540810,4.285456,0.560143,4.365565,-4.393679,-0.353391,-0.130964,0.551220,-0.041406,310.578612,188.721893,1053.549971,973.196738,0
0.019792,152.670393,31.898039,-172.949728,-3.007225,-5.179299,2.869458,2.460182,4.924123,-3.070476,-2.226964,-0.090856,0.545915,-0.078573,318.572022,188.721942,1051.568416,974.236375,0
0.020833,101.493031,101.405009,-177.020538,-3.153596,-5.109579,0.862120,4.114200,4.858837,-1.003235,-3.986986,-0.058040,0.533375,-0.078573,269.215527,188.571109,1050.549975,975.055191,0
0.021875,19.489473,146.376652,-177.737487,-3.153596,-4.151846,-1.121082,4.984735,3.948460,0.916043,-4.872675,-0.017932,0.588702,-0.104590,189.866855,188.571161,1049.211075,975.444194,0
0.022917,-57.700317,167.306260,-147.686403,-2.568112,-2.636354,-2.838785,5.003660,2.552065,2.683133,-4.986225,-0.032517,0.583603,-0.078573,82.833963,188.721864,1049.381525,975.713039,0
0.023958,-118.121018,181.552958,-67.448915,-1.081884,-0.585119,-4.447874,4.515403,0.571723,4.281123,-4.471466,-0.079917,0.581881,-0.108307,-53.526865,188.721954,1048.402282,976.292232,0
0.025000,-156.145267,166.719010,10.346087,0.449381,1.154212,-5.059328,3.364782,-1.129340,4.974430,-3.320827,-0.079917,0.572924,-0.067423,-165.141895,188.571129,1047.291837,975.830976,0
0.026042,-176.417333,116.614797,80.704266,1.789237,3.194438,-4.946691,1.347410,-2.960975,4.868743,-1.284500,-0.087210,0.566034,-0.089723,-254.566768,188.571152,1045.700519,975.291051,0
0.027083,-186.632465,36.584298,132.640511,2.858871,4.434720,-4.339260,-0.382307,-4.339235,4.361445,0.498233,-0.167425,0.562589,-0.082290,-314.337213,188.721884,1044.521370,975.649170,0
0.028125,-152.777889,-30.456219,173.178488,3.579466,5.106234,-2.943376,-2.278561,-4.861523,3.012877,2.349095,-0.185656,0.583948,-0.063706,-326.969053,188.797347,1043.423857,976.068569,0
0.029167,-102.674020,-100.656145,177.079175,3.680800,4.981472,-0.915924,-3.894729,-4.799864,0.992138,4.158323,-0.233057,0.574233,-0.089723,-269.652923,188.571125,1043.675937,976.254170,0
0.030208,-20.749561,-146.238529,177.735365,3.703318,4.089790,0.994870,-4.787974,-3.976535,-0.859501,5.025087,-0.251287,0.582708,-0.030256,-189.336035,188.571185,1042.861899,977.613956,0
0.031250,58.270816,-167.179882,147.890859,3.106575,2.563289,2.712572,-4.810684,-2.554751,-2.681548,5.165131,-0.273164,0.582501,-0.093440,-81.233602,188.721876,1041.747474,977.377067,0
0.032292,118.149121,-181.497049,67.738433,1.586570,0.523062,4.349820,-4.386771,-0.650576,-4.292220,4.669297,-0.243995,0.576300,-0.071140,54.181527,188.797266,1039.805922,977.910675,0
0.033333,155.743972,-167.203372,-10.153783,0.145379,-1.168565,4.997478,-3.243720,1.061368,-5.019347,3.583004,-0.240349,0.574922,-0.063706,164.817083,188.571085,1038.173613,979.006401,0
0.034375,175.891739,-117.768624,-80.013743,-1.160699,-3.161089,4.941160,-1.260412,2.885749,-4.922115,1.580741,-0.156487,0.574095,-0.082290,253.859172,188.571062,1036.195178,979.651228,0
0.035417,186.739667,-38.712962,-132.727695,-2.230333,-4.522463,4.345797,0.427670,4.296652,-4.440182,-0.224701,-0.134610,0.574853,-0.078573,310.747486,188.722152,1035.046440,980.678396,0
0.036458,153.167589,28.926552,-172.937577,-3.052262,-5.168290,2.986117,2.357988,4.858837,-3.138116,-2.067994,-0.120025,0.576369,-0.067423,318.515730,188.797342,1033.275132,980.918789,0
0.037500,102.962021,100.160038,-177.385089,-3.164855,-5.050867,0.906370,3.981727,4.797178,-1.117378,-3.854511,-0.065333,0.577816,-0.086006,269.710893,188.571136,1031.288126,980.975441,0
0.038542,19.986669,145.812892,-177.628122,-3.131077,-4.166524,-0.996378,4.878757,3.977476,0.772309,-4.747770,-0.032517,0.577471,-0.097156,188.808572,188.646567,1028.705514,981.437331,0
0.039583,-58.604311,167.294515,-147.880830,-2.545593,-2.720752,-2.750285,5.060434,2.635486,2.564763,-4.997580,-0.054394,0.556388,-0.089723,82.304822,188.721902,1027.138950,983.043586,0
0.040625,-118.527815,180.261007,-68.676234,-1.025588,-0.713550,-4.387533,4.583532,0.691414,4.158525,-4.479036,-0.076271,0.581605,-0.067423,-52.333483,188.797264,1024.915423,983.740907,0
0.041667,-156.020968,167.494181,8.997252,0.460640,1.036788,-5.075419,3.497255,-1.002395,4.953293,-3.453302,-0.039809,0.583948,-0.041406,-163.227980,188.570982,1023.909421,985.617118,0
0.042708,-175.389040,118.869839,79.805043,1.766719,3.029312,-4.986919,1.445818,-2.830403,4.877198,-1.473750,-0.109087,0.567205,-0.097156,-252.979344,188.646437,1022.181273,987.304003,0
0.043750,-187.118362,39.191690,132.482540,2.746278,4.379678,-4.383510,-0.276328,-4.194155,4.374127,0.339263,-0.156487,0.540816,-0.071140,-315.305429,188.721933,1020.059099,987.907226,0
0.044792,-152.698789,-29.833734,172.425084,3.579466,4.985141,-3.047966,-2.108238,-4.781729,3.127019,2.178770,-0.163779,0.569617,-0.041406,-323.647848,188.797273,1017.244580,989.006545,0
0.045833,-102.041224,-100.456480,177.626000,3.692059,4.966794,-1.036605,-3.826600,-4.767221,1.097825,4.029633,-0.211179,0.563347,-0.089723,-269.393981,188.571154,1014.867592,989.805111,0
0.046875,-19.382270,-145.627788,177.310056,3.692059,4.177857,0.870165,-4.719845,-3.998297,-0.766496,4.885042,-0.265872,0.596557,-0.056273,-188.896960,188.571073,1012.020709,990.060261,0
0.047917,57.852719,-167.696662,148.206803,3.207909,2.728415,2.628095,-4.901523,-2.667188,-2.575860,5.210551,-0.265872,0.586842,-0.067423,-83.597850,188.721898,1011.125768,992.045247,0
0.048958,118.759317,-178.913147,70.982929,1.699163,0.699197,4.297525,-4.485179,-0.792029,-4.165395,4.748782,-0.233057,0.585670,-0.104590,51.254362,188.797333,1009.257932,993.267795,0
0.050000,156.037770,-167.872837,-8.282425,0.134120,-1.054811,4.965297,-3.364838,0.963439,-4.977073,3.654918,-0.222118,0.582225,-0.089723,163.319726,188.571060,1008.461555,994.133331,0
0.051042,174.456649,-119.025341,-80.086653,-1.307070,-3.073021,4.913001,-1.381530,2.787820,-4.909433,1.667796,-0.174718,0.578229,-0.074856,252.744598,188.570931,1006.965172,994.714956,0
0.052083,187.259464,-38.372356,-132.132263,-2.219074,-4.427057,4.373956,0.355756,4.285771,-4.448637,-0.156571,-0.134610,0.545433,-0.097156,310.679937,188.721965,1006.324160,995.291827,0
0.053125,152.534793,30.171523,-172.135566,-2.995965,-5.094901,3.026344,2.236870,4.793551,-3.197301,-1.943089,-0.094502,0.549980,-0.074856,318.549505,188.797340,1003.714717,996.108185,0
0.054167,102.521324,99.819432,-177.421544,-3.176114,-5.102240,1.031074,3.955232,4.800805,-1.155425,-3.812876,-0.043455,0.579676,-0.082290,270.983084,188.571093,1002.923122,996.451006,0
0.055208,21.613859,145.577992,-176.789657,-3.142336,-4.261930,-0.855583,4.878757,3.991984,0.662394,-4.721275,-0.010640,0.582019,-0.100873,190.823813,188.571049,1001.785721,996.804358,0
0.056250,-56.174827,167.693846,-148.464110,-2.568112,-2.764785,-2.653740,4.977165,2.733415,2.514033,-4.986225,-0.036163,0.583810,-0.089723,84.871720,188.721996,1001.477333,997.433586,0
0.057292,-118.414816,178.792880,-70.498984,-1.126922,-0.794279,-4.311101,4.553252,0.789343,4.120478,-4.513101,-0.094502,0.580710,-0.086006,-51.387783,188.797278,1000.655666,998.092339,0
0.058333,-155.715870,168.093176,9.422560,0.404343,0.952391,-4.934623,3.497255,-0.966125,4.906791,-3.479797,-0.065333,0.575680,-0.086006,-163.543213,188.571176,999.898062,998.401325,0
0.059375,-174.202547,118.681919,80.497688,1.766719,2.963262,-4.930601,1.495023,-2.743355,4.889881,-1.488890,-0.120025,0.553494,-0.100873,-252.258811,188.571158,998.561859,998.736134,0
0.060417,-187.333061,38.381285,132.397478,2.802574,4.339314,-4.419715,-0.223339,-4.172393,4.391037,0.324123,-0.149195,0.553218,-0.059989,-315.812054,188.721925,998.068789,999.124593,0
0.061458,-152.766589,-28.670978,172.461539,3.613244,5.043853,-3.096239,-2.040109,-4.723697,3.143929,2.099286,-0.185656,0.558179,-0.100873,-324.413414,188.721982,996.877020,998.975879,0
0.062500,-103.894412,-99.035333,177.674607,3.703318,4.985141,-1.092923,-3.766041,-4.796237,1.144328,3.965288,-0.229410,0.575473,-0.082290,-271.307897,188.571102,996.691109,999.178392,0
0.063542,-22.320251,-145.522083,176.909051,3.658281,4.155840,0.785688,-4.685781,-4.012805,-0.665037,4.896397,-0.251287,0.585946,-0.089723,-189.910210,188.571038,996.516953,999.509084,0
0.064583,56.960025,-167.802367,148.559201,3.140353,2.721076,2.555686,-4.810684,-2.696204,-2.474401,5.153776,-0.243995,0.571201,-0.071140,-83.282617,188.721882,995.105342,999.443771,0
0.065625,118.601118,-178.725227,70.618379,1.631607,0.746900,4.225116,-4.447330,-0.799283,-4.123120,4.650372,-0.251287,0.576507,-0.086006,51.727212,188.721795,993.989561,998.331067,0
0.066667,155.337175,-168.389618,-9.169497,0.122861,-0.996100,4.929092,-3.414042,0.916288,-4.943253,3.738188,-0.240349,0.579814,-0.082290,163.038267,188.566395,993.093178,999.436439,0
0.067708,173.620454,-119.706551,-79.770710,-1.183218,-2.992293,4.933115,-1.438304,2.693518,-4.917888,1.788916,-0.178364,0.576369,-0.086006,251.472407,188.643570,991.602164,1000.647317,0
0.068750,187.225564,-40.439478,-132.071505,-2.286629,-4.372015,4.422229,0.272488,4.173334,-4.528959,-0.061947,-0.130964,0.575198,-0.082290,310.578612,188.721574,990.317664,1001.636957,0
0.069792,153.359688,27.329230,-171.977595,-3.086040,-5.069214,3.074617,2.123322,4.742773,-3.307215,-1.825754,-0.068979,0.581605,-0.074856,318.391889,188.721523,989.155730,1002.333632,0
0.070833,103.606117,98.656676,-177.834700,-3.131077,-5.039859,1.095438,3.834114,4.822567,-1.256885,-3.740962,-0.068979,0.580641,-0.078573,271.118184,188.570591,988.358594,1003.219284,0
0.071875,21.410460,145.108191,-176.899022,-3.142336,-4.225236,-0.746969,4.761424,4.046389,0.569390,-4.619080,-0.050748,0.542952,-0.048839,189.697980,188.646062,986.441021,1003.926621,0
0.072917,-57.146621,168.046196,-148.354745,-2.545593,-2.878539,-2.549149,4.992305,2.747923,2.391436,-4.978655,-0.065333,0.590011,-0.078573,84.500195,188.721487,984.828952,1004.729841,0
0.073958,-118.765114,177.536164,-71.799213,-1.104403,-0.915371,-4.190420,4.602457,0.898153,3.993653,-4.528241,-0.065333,0.582983,-0.104590,-49.755326,188.646098,982.720704,1005.400633,0
0.075000,-155.761069,168.551232,7.818540,0.404343,0.867993,-4.982896,3.603233,-0.842807,4.864516,-3.597132,-0.036163,0.587186,-0.078573,-161.640556,188.570830,981.535434,1006.949671,0
0.076042,-172.891756,120.749040,79.610616,1.721681,2.827491,-4.966805,1.619925,-2.620037,4.851833,-1.666784,-0.120025,0.569203,-0.074856,-250.502513,188.646210,979.549975,1008.058007,0
0.077083,-187.626859,40.201761,132.154444,2.791315,4.280602,-4.484078,-0.083297,-4.114361,4.479814,0.214358,-0.138256,0.571684,-0.071140,-316.341195,188.721474,978.802987,1009.474412,0
0.078125,-152.845688,-28.318628,171.489406,3.545688,4.919091,-3.184739,-1.926561,-4.683800,3.245388,1.978166,-0.174718,0.562796,-0.063706,-320.957108,188.570834,976.914608,1010.524190,0
0.079167,-102.515821,-99.047078,178.294342,3.692059,4.937438,-1.157287,-3.671418,-4.723697,1.237332,3.893373,-0.225764,0.545364,-0.082290,-270.925114,188.570798,974.828224,1010.933054,0
0.080208,-21.178959,-144.876108,176.508046,3.703318,4.199874,0.652938,-4.594943,-4.005551,-0.546667,4.782847,-0.222118,0.555837,-0.071140,-189.865176,188.646096,972.064044,1011.098394,0
0.081250,56.033431,-168.554048,148.656415,3.106575,2.849508,2.451095,-4.878813,-2.772371,-2.394078,5.187841,-0.251287,0.579263,-0.074856,-85.556799,188.721514,971.528583,1012.456321,0
0.082292,118.770617,-176.411460,73.862875,1.687904,0.897348,4.140638,-4.466255,-0.944363,-3.987841,4.748782,-0.218472,0.584155,-0.067423,49.036472,188.570734,969.760637,1013.854219,0
0.083333,155.823072,-168.871163,-7.492567,0.134120,-0.875007,4.880819,-3.470816,0.785716,-4.858703,3.772253,-0.200241,0.582570,-0.104590,162.193893,188.570736,968.141924,1014.338837,0
0.084375,172.264463,-120.751857,-80.050198,-1.273292,-2.845514,4.848638,-1.566992,2.588335,-4.879840,1.849476,-0.163779,0.569961,-0.074856,250.369092,188.570973,966.450001,1014.519338,0
0.085417,187.575862,-39.617327,-131.840623,-2.207814,-4.313303,4.430274,0.162724,4.126183,-4.554324,-0.012742,-0.138256,0.551151,-0.086006,310.950136,188.721590,965.437898,1015.183130,0
0.086458,152.715592,28.738631,-171.272798,-2.928410,-4.995825,3.159094,2.024914,4.702876,-3.341035,-1.727344,-0.123671,0.566103,-0.071140,318.493214,188.570826,963.380350,1015.831151,0
0.087500,103.289719,98.457011,-178.065582,-3.097299,-5.076553,1.183937,3.826544,4.815313,-1.337207,-3.634982,-0.090856,0.566516,-0.071140,272.424149,188.495307,961.594982,1016.563103,0
0.088542,23.365347,144.814566,-176.072708,-3.164855,-4.265600,-0.686628,4.727359,4.104421,0.484840,-4.577445,-0.025225,0.577609,-0.100873,191.352954,188.570740,960.699109,1017.122928,0
0.089583,-54.457239,168.433781,-148.792205,-2.590631,-2.911564,-2.488808,4.946886,2.813209,2.357616,-4.986225,-0.032517,0.584017,-0.074856,86.549210,188.644140,960.850868,1017.457396,0
0.090625,-118.719914,176.502603,-72.880712,-1.138181,-0.919041,-4.105942,4.557037,0.977947,3.934469,-4.471466,-0.058040,0.580778,-0.052556,-49.575193,188.570215,959.420753,1017.135859,0
0.091667,-155.399472,168.950562,8.863583,0.404343,0.801942,-4.890373,3.603233,-0.802910,4.801103,-3.510077,-0.076271,0.573544,-0.082290,-162.484931,188.495613,958.258375,1016.140813,0
0.092708,-172.123361,120.161790,80.667811,1.845534,2.757771,-4.898419,1.688054,-2.529362,4.860288,-1.659214,-0.098148,0.566241,-0.045123,-250.344896,188.571118,956.866684,1016.416119,0
0.093750,-187.615559,39.919881,132.032928,2.836352,4.221891,-4.480056,-0.045447,-4.063583,4.471359,0.161368,-0.130964,0.567481,-0.078573,-316.318678,188.646500,955.742250,1016.616482,0
0.094792,-153.003887,-27.202852,171.756743,3.556947,4.900743,-3.237034,-1.847078,-4.633022,3.329938,1.906251,-0.189302,0.563622,-0.093440,-322.454465,188.571134,954.652122,1017.360115,0
0.095833,-104.425508,-97.743382,178.014853,3.748356,4.937438,-1.217628,-3.648708,-4.807118,1.292290,3.832813,-0.211179,0.588702,-0.089723,-272.219821,188.495667,954.735208,1018.188989,0
0.096875,-23.664942,-144.864363,176.325771,3.669540,4.170518,0.612711,-4.557093,-4.056329,-0.517074,4.756352,-0.233057,0.583190,-0.074856,-190.574451,188.495090,954.838732,1018.431682,0
0.097917,55.581434,-168.330893,148.571353,3.162872,2.827491,2.390754,-4.806899,-2.801387,-2.326439,5.142421,-0.243995,0.569754,-0.074856,-84.802491,188.645738,953.641657,1018.404513,0
0.098958,118.770617,-176.622870,73.000107,1.710422,0.886340,4.084320,-4.473825,-0.955244,-4.000523,4.744997,-0.247641,0.580503,-0.082290,49.790780,188.495057,953.493354,1018.633932,0
0.100000,155.077277,-169.129554,-8.112302,0.224195,-0.860329,4.884842,-3.516235,0.742192,-4.888295,3.810103,-0.236703,0.579263,-0.100873,161.732302,188.494945,953.248936,1019.452164,0
0.101042,171.823766,-121.386088,-79.564131,-1.149440,-2.856522,4.868751,-1.578347,2.559319,-4.892523,1.902466,-0.163779,0.570375,-0.056273,249.524717,188.495732,952.944619,1019.918445,0
0.102083,187.496762,-41.837134,-132.047202,-2.230333,-4.298625,4.482570,0.143800,4.093540,-4.567006,0.047818,-0.116379,0.577540,-0.097156,311.062720,188.645855,952.702718,1020.189316,0
0.103125,153.585687,26.342649,-171.333556,-2.984706,-4.959130,3.167140,1.968140,4.662979,-3.400220,-1.700849,-0.105440,0.597039,-0.093440,318.560764,188.570323,952.693806,1020.192056,0
0.104167,103.979014,97.670096,-178.345071,-3.131077,-5.039859,1.179915,3.781125,4.789924,-1.345662,-3.638767,-0.043455,0.579469,-0.082290,272.300308,188.495622,952.879001,1019.808500,0
0.105208,22.483953,144.485706,-176.340045,-3.119818,-4.254591,-0.670538,4.708435,4.082659,0.459475,-4.547165,-0.065333,0.563829,-0.071140,190.373480,188.494967,952.124546,1019.667482,0
0.106250,-55.768030,168.668682,-148.634233,-2.590631,-2.944590,-2.480763,5.011230,2.805955,2.340706,-4.974870,-0.032517,0.559557,-0.067423,86.346560,188.570330,951.620846,1019.930811,0
0.107292,-118.584315,175.903608,-74.095879,-1.115662,-1.021786,-4.113988,4.594887,0.956185,3.921786,-4.543380,-0.036163,0.582914,-0.104590,-47.492403,188.493715,952.170324,1020.184763,0
0.108333,-155.501171,169.314657,6.688434,0.348047,0.765247,-4.946691,3.622158,-0.759386,4.834923,-3.597132,-0.039809,0.584844,-0.093440,-160.323332,188.495669,952.666570,1021.241286,0
0.109375,-171.716564,122.064482,79.513403,1.755459,2.728415,-4.930601,1.680484,-2.547497,4.805331,-1.727344,-0.083563,0.571064,-0.063706,-248.982639,188.495550,952.854435,1020.953834,0
0.110417,-187.943257,41.399752,131.729136,2.791315,4.240238,-4.455919,-0.037877,-4.070837,4.500952,0.150013,-0.149195,0.555010,-0.093440,-316.543845,188.570966,953.423216,1021.139108,0
