1-Time,2-VGERA,3-VGERB,4-VGERC,5-VN,6-IGERAN,7-IGERBN,8-IGERCN,9-IGERAT,10-IGERBT,11-IGERCT,12-IN,13-IFD,14-IFAULT,15-VFAULT,16-Speed (rad/s),17-Active Power,18-Reactive Power,19-FAULT 
0.000000,-164.089114,164.534438,15.632065,0.539455,5.120912,-4.805896,-0.518564,-4.643903,4.868743,0.488501,-0.156487,0.458619,-0.086006,150.958085,188.420383,1594.591540,14.445820,0
0.001045,-184.214281,102.532530,72.987955,1.687904,5.708027,-2.971535,-2.755463,-5.264120,3.152384,2.695153,-0.233057,0.461857,-0.138040,172.247577,188.420245,1595.351594,14.583358,0
0.002079,-192.011230,27.892991,132.652663,2.870130,5.788756,-1.205560,-4.386771,-5.311271,1.313427,4.462746,-0.251287,0.465302,-0.100873,179.711846,188.269543,1595.618393,14.089829,0
0.003118,-152.461491,-37.115640,171.525861,3.658281,4.786990,0.878211,-5.253522,-4.346489,-0.694629,5.337079,-0.302334,0.438638,-0.112023,140.656718,188.269406,1595.198430,13.125850,0
0.004160,-78.322681,-86.714818,201.990102,4.232505,3.007295,3.332071,-5.756918,-2.765117,-3.138116,5.961604,-0.258580,0.467507,-0.123173,73.016704,188.420256,1595.802964,12.290946,0
0.005202,-16.794588,-146.085844,177.370815,3.770874,1.051466,4.603251,-4.973436,-0.879077,-4.406362,5.140260,-0.254934,0.466267,-0.086006,15.554215,188.495707,1596.538213,11.222227,0
0.006244,46.010397,-189.283991,128.946403,2.791315,-1.344699,5.621000,-3.580579,1.369663,-5.602741,3.834436,-0.262226,0.477015,-0.078573,-42.989073,188.269505,1598.110361,10.703464,0
0.007285,102.781222,-191.527288,53.982740,1.293828,-3.535375,5.524455,-1.453444,3.466069,-5.513963,1.654279,-0.189302,0.469023,-0.108307,-96.567440,188.344957,1599.564954,8.832667,0
0.008327,164.399715,-164.995310,-13.155246,0.055305,-5.091231,4.808410,0.662336,4.985782,-4.884068,-0.465318,-0.134610,0.468196,-0.097156,-150.562365,188.420314,1600.333168,7.285275,0
0.009372,184.310183,-104.590723,-71.835668,-1.126922,-5.645322,3.002208,2.868955,5.551594,-3.083159,-2.660615,-0.050748,0.464751,-0.097156,-171.773049,188.495785,1600.032046,6.572068,0
0.010410,192.095832,-29.011583,-132.533268,-2.320407,-5.729720,1.228187,4.507833,5.635015,-1.299159,-4.492552,-0.072625,0.469643,-0.071140,-179.361159,188.269579,1599.711610,5.199201,0
0.011452,152.975491,36.877923,-171.199888,-3.063521,-4.713276,-0.847537,5.435143,4.699249,0.713124,-5.363101,-0.043455,0.491071,-0.108307,-138.988807,188.344898,1599.737028,4.964086,0
0.012493,78.011786,86.782471,-202.004376,-3.660264,-2.995962,-3.317489,5.908260,3.059845,3.207341,-5.953560,0.003945,0.470538,-0.093440,-71.416343,188.420287,1599.496230,4.982975,0
0.013535,15.816997,145.812892,-177.263572,-3.119818,-0.937388,-4.620851,5.102068,1.115773,4.543227,-5.132216,-0.054394,0.474810,-0.100873,-13.413454,188.495687,1600.017375,4.304516,0
0.014577,-46.592491,191.606686,-127.417415,-2.140259,1.418414,-5.642622,3.705426,-1.122086,5.570506,-3.818823,-0.098148,0.486523,-0.093440,43.880160,188.269536,1600.931705,4.835199,0
0.015619,-102.346322,191.559706,-52.380842,-0.721587,3.565055,-5.489759,1.559366,-3.160460,5.540913,-1.631096,-0.058040,0.466956,-0.134323,96.704219,188.345051,1601.481782,4.668809,0
0.016660,-164.100414,164.710613,13.505522,0.584492,5.142928,-4.838078,-0.518564,-4.691054,4.877198,0.533921,-0.163779,0.465853,-0.093440,151.239543,188.420280,1602.057579,3.113034,0
0.017706,-184.146482,104.858042,71.784939,1.699163,5.689680,-3.043944,-2.740323,-5.275001,3.181976,2.710293,-0.182010,0.468403,-0.119457,171.617111,188.495618,1602.712592,2.161377,0
0.018761,-191.977330,28.856082,134.475414,2.858871,5.799764,-1.169355,-4.439760,-5.387438,1.283835,4.523306,-0.225764,0.470332,-0.130607,178.991313,188.344807,1604.594979,1.671554,0
0.019799,-152.054694,-36.610605,172.801786,3.613244,4.720939,1.002915,-5.310296,-4.411775,-0.724221,5.386284,-0.262226,0.474810,-0.086006,138.663995,188.420437,1606.101251,1.644175,0
0.020841,-77.735085,-87.572204,202.561230,4.131172,2.974270,3.460798,-5.745564,-2.743355,-3.260713,5.972959,-0.269518,0.489830,-0.093440,70.990205,188.420235,1607.141301,0.625228,0
0.021883,-15.608095,-147.542225,176.289316,3.647022,0.934043,4.667615,-4.856103,-0.795656,-4.524732,5.091055,-0.254934,0.484870,-0.097156,12.694600,188.495732,1607.636630,-0.496184,0
0.022913,46.597994,-189.953456,127.646174,2.757537,-1.396072,5.701455,-3.516235,1.449457,-5.598513,3.789017,-0.196595,0.475706,-0.104590,-43.979806,188.344974,1607.448363,-1.162855,0
0.023956,102.995921,-191.715208,51.856198,1.271309,-3.568400,5.568705,-1.347466,3.505966,-5.480143,1.582364,-0.163779,0.461926,-0.119457,-96.927706,188.344871,1606.931025,-1.610419,0
0.024999,164.320616,-164.877860,-15.014451,0.021527,-5.146273,4.872774,0.711540,5.025679,-4.896750,-0.582653,-0.123671,0.460686,-0.071140,-150.472298,188.420269,1607.528410,-2.465608,0
0.026050,184.468382,-101.689706,-72.868560,-1.093144,-5.729720,3.006231,2.967363,5.598745,-3.091614,-2.800660,-0.109087,0.463235,-0.097156,-172.392256,188.495705,1608.471713,-2.773149,0
0.027088,191.960233,-27.214597,-133.578312,-2.241592,-5.806778,1.204051,4.564607,5.736571,-1.244202,-4.556897,-0.058040,0.464269,-0.093440,-178.595593,188.344815,1610.143300,-2.726341,0
0.028128,151.404801,37.218529,-172.852515,-3.029743,-4.749970,-0.940060,5.503272,4.724638,0.806129,-5.431231,-0.021578,0.462822,-0.086006,-137.862975,188.420247,1611.476575,-3.275124,0
0.029171,77.559789,87.275762,-202.320319,-3.592708,-3.017979,-3.438171,5.976389,3.096115,3.300346,-6.006550,-0.032517,0.460892,-0.104590,-71.776609,188.420274,1613.026138,-3.526145,0
0.030211,16.607992,147.786054,-176.060556,-3.063521,-0.926380,-4.729464,5.086929,1.075876,4.581274,-5.177636,-0.039809,0.501061,-0.086006,-13.875046,188.495759,1614.052921,-3.680326,0
0.031253,-46.682890,189.516075,-127.721206,-2.185296,1.491803,-5.719054,3.694071,-1.190999,5.705785,-3.822608,-0.072625,0.457103,-0.093440,44.837117,188.345006,1615.207238,-4.977974,0
0.032291,-103.476315,191.336551,-52.392994,-0.777883,3.653123,-5.574236,1.483668,-3.251135,5.578961,-1.597031,-0.098148,0.471916,-0.071140,97.785018,188.344833,1616.320578,-5.779469,0
0.033330,-164.337713,165.051219,14.684234,0.528196,5.267691,-4.866237,-0.620758,-4.785356,4.932155,0.586911,-0.163779,0.465991,-0.097156,150.789210,188.420372,1618.069171,-6.190282,0
0.034372,-184.790577,105.633212,72.161641,1.699163,5.796095,-2.979580,-2.842516,-5.376557,3.093199,2.831413,-0.233057,0.463993,-0.063706,172.934335,188.495693,1619.710899,-8.556356,0
0.035416,-192.372827,28.069166,133.126578,2.847611,5.825450,-1.092923,-4.500319,-5.445470,1.309200,4.655780,-0.236703,0.477704,-0.108307,179.633038,188.420296,1621.281774,-9.209670,0
0.036459,-150.958601,-37.280070,173.263550,3.590725,4.786990,1.079347,-5.385995,-4.411775,-0.838363,5.522544,-0.258580,0.452969,-0.059989,138.472603,188.344851,1622.927867,-10.564099,0
0.037500,-76.345194,-87.125893,202.901477,4.187468,3.021973,3.464821,-5.840187,-2.754236,-3.362173,6.048658,-0.280457,0.471779,-0.115740,70.573647,188.420405,1624.312130,-11.140830,0
0.038536,-15.280398,-146.755309,176.994113,3.804652,0.948721,4.752092,-4.992361,-0.813791,-4.545869,5.151615,-0.247641,0.462753,-0.123173,13.775400,188.495998,1625.170663,-10.935393,0
0.039577,46.948291,-189.706811,127.913511,2.858871,-1.480470,5.725591,-3.565439,1.449457,-5.657698,3.807941,-0.207533,0.492793,-0.130607,-43.664573,188.420410,1626.006579,-10.892557,0
0.040619,103.063720,-191.762188,52.767573,1.372643,-3.634451,5.633068,-1.389100,3.585760,-5.606968,1.593719,-0.185656,0.467231,-0.112023,-96.961481,188.344961,1628.222470,-11.540341,0
0.041665,164.411015,-165.171485,-14.248896,-0.000992,-5.249019,4.876797,0.730465,5.069203,-4.913660,-0.556158,-0.134610,0.468403,-0.086006,-150.483557,188.420247,1628.905287,-11.688876,0
0.042705,184.807380,-104.285353,-71.361753,-1.138181,-5.795770,2.994163,2.997643,5.631388,-3.091614,-2.770380,-0.116379,0.467576,-0.100873,-172.628681,188.495797,1629.517659,-12.643591,0
0.043747,192.333130,-29.634069,-133.359582,-2.309148,-5.814117,1.171869,4.640306,5.729317,-1.303387,-4.598532,-0.050748,0.474190,-0.097156,-179.135993,188.495700,1630.203219,-13.248205,0
0.044795,151.551700,36.396378,-173.423644,-3.086040,-4.742631,-1.064764,5.552476,4.699249,0.844176,-5.514501,-0.061686,0.489830,-0.093440,-137.142442,188.344766,1631.168633,-14.468385,0
0.045835,77.469390,87.134822,-202.539049,-3.626486,-2.988623,-3.482421,5.991529,3.052591,3.363758,-6.040615,-0.010640,0.467920,-0.134323,-70.403094,188.495403,1631.760466,-15.546071,0
0.046871,16.088195,146.975648,-176.558775,-3.108558,-0.871337,-4.773714,5.117208,1.083130,4.644686,-5.185206,-0.028871,0.492793,-0.067423,-12.839280,188.495410,1632.357768,-15.923405,0
0.047910,-46.332592,189.668760,-127.380960,-2.230333,1.510150,-5.731122,3.697856,-1.180118,5.693103,-3.852888,-0.068979,0.455105,-0.123173,43.970226,188.495560,1632.364195,-15.515022,0
0.048952,-102.459321,191.688901,-51.554528,-0.710327,3.645784,-5.594350,1.491238,-3.287405,5.570506,-1.589461,-0.101794,0.461168,-0.100873,96.737994,188.344692,1632.318846,-15.965844,0
0.049993,-163.964815,164.804573,15.000178,0.584492,5.267691,-4.862214,-0.601833,-4.810745,4.936383,0.598266,-0.163779,0.459859,-0.100873,150.530269,188.420028,1632.449284,-16.123146,0
0.051035,-184.553279,102.967095,71.566209,1.721681,5.796095,-3.019807,-2.846301,-5.329406,3.139701,2.793563,-0.218472,0.461926,-0.093440,172.382677,188.495506,1631.292893,-14.624342,0
0.052077,-192.338928,28.468496,132.920000,2.903908,5.876823,-1.157287,-4.500319,-5.485367,1.237332,4.625500,-0.236703,0.476464,-0.082290,179.666813,188.495479,1631.252127,-15.267309,0
0.053118,-151.896495,-36.082079,172.425084,3.635763,4.768642,1.014983,-5.397349,-4.498823,-0.745359,5.450629,-0.273164,0.467231,-0.100873,139.485852,188.344605,1630.955507,-13.983532,0
0.054160,-78.243581,-86.245017,202.670595,4.243765,3.029312,3.484935,-5.862897,-2.805014,-3.328353,6.075153,-0.233057,0.482940,-0.108307,72.802796,188.495408,1631.442889,-13.952403,0
0.055202,-17.393484,-146.849269,176.872596,3.714578,0.930374,4.796342,-4.992361,-0.821045,-4.626191,5.234885,-0.243995,0.490037,-0.082290,15.070107,188.495488,1633.222824,-14.695220,0
0.056243,45.739199,-190.023927,128.156544,2.802574,-1.498817,5.781909,-3.573009,1.478473,-5.704200,3.807941,-0.214826,0.477497,-0.119457,-43.112915,188.495408,1633.913512,-15.604721,0
0.057289,103.233219,-191.527288,52.463781,1.248791,-3.667476,5.637091,-1.339896,3.632911,-5.573148,1.563440,-0.178364,0.469849,-0.104590,-97.141615,188.344735,1633.658676,-16.273117,0
0.058339,164.603114,-164.983565,-16.326832,-0.068547,-5.234341,4.836569,0.828873,5.170759,-4.867158,-0.643213,-0.138256,0.463511,-0.089723,-150.247132,188.495526,1634.355976,-17.343205,0
0.059380,185.248077,-101.407825,-72.370342,-1.149440,-5.850812,2.957958,3.065772,5.682166,-3.062021,-2.899069,-0.054394,0.456138,-0.086006,-173.405506,188.495403,1635.139813,-17.877912,0
0.060418,192.299231,-27.214597,-133.396037,-2.275370,-5.850812,1.123597,4.689510,5.769214,-1.189245,-4.674232,-0.061686,0.456345,-0.100873,-178.494268,188.495450,1635.780524,-18.804672,0
0.061454,150.828505,36.971883,-173.010487,-3.029743,-4.779326,-1.036605,5.624390,4.808059,0.890678,-5.533426,-0.043455,0.416107,-0.104590,-137.232509,188.420195,1636.770190,-18.323184,0
0.062498,76.147298,86.758981,-202.964358,-3.592708,-2.973945,-3.478398,6.048303,3.023575,3.397578,-6.108745,-0.006994,0.460135,-0.089723,-70.493160,188.495448,1637.461226,-18.637983,0
0.063543,14.913003,147.985719,-175.951191,-3.119818,-0.805287,-4.842101,5.166412,1.064995,4.729236,-5.230626,-0.025225,0.460203,-0.089723,-12.974380,188.495392,1638.772765,-18.456365,0
0.064587,-47.191387,189.621780,-127.295898,-2.140259,1.587209,-5.831690,3.648652,-1.325198,5.769198,-3.799898,-0.083563,0.454829,-0.108307,44.724534,188.495501,1639.715611,-20.422696,0
0.065630,-104.075211,191.407021,-51.360101,-0.699068,3.818249,-5.646645,1.373905,-3.388961,5.650828,-1.502406,-0.120025,0.470883,-0.112023,99.000917,188.344704,1641.252025,-21.605309,0
0.066674,-164.371612,165.098199,16.579895,0.573233,5.363097,-4.826010,-0.726736,-4.912301,4.949065,0.715601,-0.145548,0.462615,-0.078573,150.744177,188.495441,1642.756577,-22.893125,0
0.067711,-185.660672,102.203670,71.942911,1.609088,5.884162,-2.899126,-3.039333,-5.441843,3.046697,2.948748,-0.214826,0.461719,-0.089723,174.499242,188.495481,1644.530744,-25.198495,0
0.068748,-192.542326,29.137962,133.551887,2.847611,5.865815,-1.020514,-4.606297,-5.496248,1.195057,4.746620,-0.243995,0.472399,-0.104590,179.542971,188.495385,1645.915864,-26.719192,0
0.069790,-150.710003,-35.929394,174.199229,3.680800,4.757634,1.135665,-5.518467,-4.455299,-0.897548,5.590674,-0.265872,0.484387,-0.123173,138.089820,188.419488,1647.677774,-28.966229,0
0.070835,-76.401694,-86.914483,203.156662,4.198728,2.941245,3.553321,-5.859112,-2.688950,-3.442495,6.056228,-0.284103,0.480047,-0.086006,70.010731,188.495790,1647.487184,-30.537326,0
0.071878,-14.851000,-148.493571,176.155648,3.703318,0.746900,4.888865,-4.984791,-0.701354,-4.736106,5.155400,-0.265872,0.473915,-0.086006,12.120426,188.495703,1647.660510,-31.698622,0
0.072911,46.778792,-189.882986,127.536809,2.735018,-1.619910,5.781909,-3.508665,1.623553,-5.699973,3.747382,-0.225764,0.458688,-0.097156,-44.092389,188.495613,1647.493780,-33.316294,0
0.073952,103.063720,-192.032323,51.200008,1.282569,-3.810585,5.701455,-1.294477,3.712705,-5.581603,1.487740,-0.182010,0.460824,-0.126890,-96.837640,188.344930,1647.883456,-34.504875,0
0.074994,163.857319,-165.265445,-15.403305,0.044046,-5.333416,4.868751,0.806164,5.210656,-4.943253,-0.692417,-0.149195,0.459721,-0.115740,-150.010707,188.495752,1648.885137,-35.365662,0
0.076041,185.496676,-101.513530,-71.410360,-1.048106,-5.850812,2.966003,3.118761,5.722063,-3.057794,-2.925564,-0.101794,0.468058,-0.108307,-174.081005,188.495797,1649.388939,-36.075764,0
0.077081,192.389630,-28.483058,-133.335279,-2.241592,-5.891176,1.123597,4.723575,5.790976,-1.210382,-4.749932,-0.036163,0.449386,-0.104590,-178.978376,188.495796,1650.457086,-36.837899,0
0.078120,151.054503,35.621207,-173.812497,-2.995965,-4.742631,-1.100969,5.647099,4.779043,0.907588,-5.601556,-0.010640,0.464406,-0.082290,-137.491450,188.344789,1651.247514,-37.963965,0
0.079167,77.616289,86.805961,-202.587656,-3.615227,-2.922573,-3.558852,6.033163,2.987305,3.460990,-6.101175,-0.017932,0.480116,-0.093440,-71.022301,188.495669,1651.489891,-39.393554,0
0.080210,16.494992,148.502499,-175.781068,-3.153596,-0.746575,-4.922555,5.151273,0.948931,4.796876,-5.173851,-0.036163,0.485765,-0.134323,-12.625372,188.495752,1651.552237,-41.914038,0
0.081254,-46.761990,189.786210,-126.846286,-2.151518,1.693624,-5.787440,3.633512,-1.343333,5.781880,-3.754478,-0.054394,0.475086,-0.086006,45.017250,188.495734,1651.309666,-42.555198,0
0.082296,-104.030011,191.465746,-50.108479,-0.665290,3.847605,-5.598372,1.328485,-3.381707,5.612781,-1.441846,-0.087210,0.464131,-0.089723,98.809525,188.345015,1650.462575,-42.809887,0
0.083338,-164.168214,164.875043,16.859383,0.584492,5.341080,-4.838078,-0.783510,-4.919555,4.881426,0.742096,-0.160133,0.460272,-0.082290,150.372652,188.495732,1649.764497,-43.481608,0
0.084379,-185.468573,100.289233,72.210248,1.642866,5.928196,-2.899126,-3.054473,-5.409200,3.004422,3.009308,-0.225764,0.458963,-0.115740,174.420434,188.495863,1649.005531,-43.838045,0
0.085423,-192.056429,26.565805,134.195925,2.847611,5.854806,-1.016492,-4.625222,-5.463605,1.131645,4.769330,-0.229410,0.475155,-0.074856,178.563497,188.495859,1648.519673,-43.743028,0
0.086457,-149.783409,-37.115640,174.004802,3.658281,4.768642,1.139688,-5.488188,-4.444418,-0.948278,5.594459,-0.269518,0.463166,-0.112023,137.121604,188.344936,1648.317725,-43.818135,0
0.087499,-75.542899,-86.726563,203.326786,4.164950,2.970601,3.605616,-5.862897,-2.721593,-3.421358,6.105433,-0.265872,0.493758,-0.104590,70.855105,188.495651,1648.821476,-43.043215,0
0.088537,-15.370797,-147.483500,176.435136,3.725837,0.849645,4.884842,-4.969651,-0.733997,-4.676921,5.227315,-0.229410,0.476877,-0.097156,14.124408,188.495834,1648.875878,-42.342381,0
0.089577,46.247696,-190.153122,127.791994,2.791315,-1.583215,5.798000,-3.535160,1.572775,-5.742248,3.785232,-0.236703,0.475361,-0.123173,-43.090398,188.495832,1649.606145,-41.785882,0
0.090618,103.086320,-191.668228,52.864787,1.293828,-3.773891,5.681341,-1.298262,3.669181,-5.628106,1.525590,-0.160133,0.464751,-0.108307,-97.152873,188.344939,1650.021097,-41.436151,0
0.091660,164.591814,-165.300680,-14.115228,0.021527,-5.329747,4.848638,0.851583,5.192521,-4.909433,-0.677277,-0.120025,0.467025,-0.104590,-150.393490,188.495635,1649.673596,-41.721401,0
0.092701,185.394976,-102.699776,-70.936445,-1.093144,-5.839804,2.957958,3.164180,5.718436,-3.040884,-2.914209,-0.068979,0.459583,-0.089723,-173.259147,188.495700,1649.574835,-42.275107,0
0.093743,192.581729,-29.164268,-132.970729,-2.309148,-5.861821,1.095438,4.753854,5.736571,-1.163880,-4.700727,-0.025225,0.463786,-0.108307,-178.764468,188.495734,1648.421878,-42.933482,0
0.094785,150.772005,35.891343,-173.423644,-3.142336,-4.738962,-1.125105,5.567616,4.713757,0.945636,-5.563706,-0.028871,0.478669,-0.086006,-136.973567,188.344927,1647.278778,-43.575829,0
0.095845,75.130305,87.440192,-202.976509,-3.603968,-2.863861,-3.603102,5.949894,2.947408,3.515948,-6.078465,-0.014286,0.459721,-0.082290,-68.658053,188.495848,1646.955837,-43.593759,0
0.096881,14.223707,148.890085,-175.404366,-3.052262,-0.713550,-4.934623,5.113423,0.923542,4.775738,-5.143571,-0.025225,0.466542,-0.097156,-11.173048,188.420509,1646.279179,-42.944508,0
0.097923,-47.812883,189.516075,-126.214399,-2.128999,1.689955,-5.779395,3.614588,-1.383230,5.769198,-3.716628,-0.050748,0.474741,-0.093440,45.523875,188.495761,1645.815946,-43.160337,0
0.098964,-104.086511,191.630176,-49.500896,-0.665290,3.858613,-5.646645,1.324700,-3.403469,5.604326,-1.434276,-0.127317,0.459790,-0.149190,99.000917,188.345048,1645.855996,-43.238028,0
0.099997,-163.727517,165.215649,15.960160,0.584492,5.333741,-4.882328,-0.719166,-4.923182,4.915245,0.726956,-0.171072,0.460479,-0.082290,150.473977,188.495861,1646.142472,-43.346254,0
0.101040,-185.660672,101.358029,71.456844,1.676644,5.898840,-2.887058,-3.054473,-5.398319,3.021332,2.982813,-0.214826,0.464889,-0.104590,174.611825,188.420263,1646.139179,-43.443606,0
0.102083,-192.282428,28.679906,133.892134,2.870130,5.869484,-1.000401,-4.617652,-5.452724,1.127418,4.739050,-0.254934,0.465991,-0.093440,179.182705,188.495845,1645.876335,-44.128880,0
0.103119,-150.585703,-34.954558,174.454414,3.658281,4.786990,1.208074,-5.510898,-4.466180,-0.935596,5.613384,-0.251287,0.485007,-0.086006,138.551411,188.344939,1646.494969,-44.797193,0
0.104160,-78.062783,-85.869177,203.010842,4.153690,2.941245,3.589525,-5.893176,-2.638172,-3.421358,6.063798,-0.269518,0.452969,-0.126890,71.767030,188.420392,1645.691487,-46.698958,0
0.105201,-16.738088,-147.882830,176.398681,3.658281,0.754239,4.933115,-4.954512,-0.690473,-4.748788,5.162970,-0.243995,0.480529,-0.104590,13.876724,188.420341,1645.808478,-48.414084,0
0.106243,46.134697,-189.906476,127.828449,2.723759,-1.660274,5.814091,-3.440536,1.619926,-5.788750,3.724672,-0.233057,0.471916,-0.108307,-43.698348,188.495825,1645.920561,-49.660367,0
0.107285,103.176720,-191.961853,51.552406,1.260050,-3.814255,5.608932,-1.173359,3.748975,-5.590058,1.446105,-0.152841,0.460066,-0.097156,-97.017773,188.420296,1645.735526,-50.879993,0
0.108326,163.868619,-165.312425,-15.439760,-0.023510,-5.318739,4.844615,0.881863,5.225164,-4.875613,-0.726482,-0.112733,0.457999,-0.086006,-149.650441,188.420329,1645.601799,-51.503783,0
0.109368,185.575775,-101.419570,-70.924293,-1.115662,-5.854482,2.905663,3.190675,5.747452,-3.023974,-2.982339,-0.083563,0.444288,-0.089723,-174.002197,188.420287,1645.977043,-52.043265,0
0.110410,192.355730,-27.496477,-132.837060,-2.297889,-5.828795,1.059233,4.765209,5.805484,-1.146970,-4.731007,-0.039809,0.458274,-0.108307,-178.865793,188.495776,1646.741820,-51.674056,0
