1-Time,2-VGERA,3-VGERB,4-VGERC,5-VN,6-IGERAN,7-IGERBN,8-IGERCN,9-IGERAT,10-IGERBT,11-IGERCT,12-IN,13-IFD,14-IFAULT,15-VFAULT,16-Speed (rad/s),17-Active Power,18-Reactive Power,19-FAULT 
0.000000,-126.415163,183.326454,-27.858768,-0.259955,3.040377,-4.034767,0.725545,-2.933637,3.984258,-0.718775,-0.024718,0.407357,0.000144,-12.535305,188.495399,1179.201967,11.722647,0
0.001042,-163.885716,147.680349,41.332850,1.102420,4.023795,-3.368401,-0.782244,-3.833741,3.220722,0.800554,-0.006487,0.410458,0.000144,-2.537913,188.269221,1178.185149,12.966616,0
0.002083,-188.327454,74.591151,93.536432,2.149535,4.361387,-1.994789,-2.529733,-4.361650,1.823063,2.563585,0.029975,0.407357,0.011294,4.791257,188.419896,1177.289604,14.121246,0
0.003125,-174.236447,6.916403,146.639237,3.129094,4.199930,-0.633440,-3.391880,-4.035030,0.546190,3.389886,0.077375,0.399434,-0.029590,13.651558,188.419849,1176.296841,14.891970,0
0.004167,-128.064952,-55.766716,184.187903,3.872208,3.337604,1.054958,-4.130310,-3.222278,-1.196570,4.105761,0.059144,0.383380,-0.014723,19.697278,188.495383,1175.333135,16.156078,0
0.005208,-55.022235,-107.245095,191.199417,3.996060,1.939535,2.649330,-4.157373,-1.691722,-2.710700,4.010565,0.077375,0.378901,-0.014723,23.356234,188.269075,1174.450451,16.763323,0
0.006250,9.839336,-161.272142,160.236958,3.421836,0.383678,3.704068,-3.635446,-0.191549,-3.784826,3.526969,0.059144,0.402741,0.015011,25.956907,188.419990,1173.715581,17.538157,0
0.007292,71.898526,-180.909799,107.255669,2.374721,-1.241898,4.096529,-2.371222,1.509912,-4.104045,2.171377,-0.006487,0.415970,-0.025873,24.110542,188.419822,1173.472352,18.196255,0
0.008333,126.556265,-183.399741,27.795888,0.899753,-2.724365,3.998414,-0.755181,3.032872,-4.060907,0.594930,0.008098,0.407633,-0.022156,13.212483,188.495258,1172.999333,18.871947,0
0.009375,164.185016,-147.753635,-41.201304,-0.406326,-3.623386,3.340224,0.721679,3.944370,-3.275803,-0.932014,-0.002841,0.411491,-0.018440,2.505817,188.269156,1172.967651,18.462192,0
0.010417,188.513756,-75.005043,-93.380582,-1.464701,-4.056384,1.921642,2.449838,4.419108,-1.904026,-2.641735,-0.061180,0.410527,0.018727,-2.965729,188.419954,1172.885952,18.628612,0
0.011458,174.343649,-7.882310,-146.592753,-2.511815,-3.872910,0.609352,3.342913,4.073499,-0.584015,-3.494692,-0.090349,0.420862,-0.011006,-12.512788,188.419808,1172.744426,18.255366,0
0.012500,128.443353,55.164904,-184.214328,-3.266189,-2.992237,-1.050430,4.112272,3.215172,1.171686,-4.256260,-0.115872,0.408391,-0.007290,-19.324075,188.495251,1173.107813,17.104040,0
0.013542,56.575828,107.289259,-190.788383,-3.356263,-1.608846,-2.714300,4.127737,1.844128,2.707385,-4.168680,-0.090349,0.424789,0.000144,-21.800906,188.268984,1174.059496,18.156763,0
0.014583,-8.274444,161.551206,-159.996046,-2.815817,-0.038311,-3.760862,3.613542,0.245210,3.794453,-3.616543,-0.079410,0.425753,0.000144,-25.471120,188.419764,1174.049653,17.581548,0
0.015625,-71.429727,180.589867,-107.573735,-1.791220,1.609282,-4.165587,2.306791,-1.437262,4.048964,-2.238104,-0.057533,0.418657,0.011294,-24.649262,188.419813,1173.982429,16.847934,0
0.016667,-127.251358,183.162024,-28.514959,-0.271215,3.110096,-4.030678,0.690750,-3.002000,4.014454,-0.665465,-0.039302,0.409838,-0.007290,-12.467755,188.495338,1174.891028,15.813619,0
0.017708,-164.529811,147.480683,40.773873,1.091161,4.023795,-3.405194,-0.762914,-3.867922,3.225036,0.846248,0.015390,0.417279,0.015011,-2.459105,188.269196,1175.477034,15.143083,0
0.018750,-188.971550,75.695182,93.815920,2.104498,4.423768,-2.011141,-2.564528,-4.346458,1.857574,2.567393,0.048206,0.414178,-0.007290,4.160790,188.344587,1175.864473,15.263913,0
0.019792,-173.953949,8.443254,147.295427,3.185390,4.192591,-0.698851,-3.399612,-4.050222,0.546190,3.386079,0.048206,0.419690,-0.048173,13.775400,188.419902,1176.101579,15.079635,0
0.020833,-128.415250,-54.862350,184.783335,3.905986,3.322926,1.046782,-4.223097,-3.207086,-1.218138,4.170494,0.055498,0.421964,-0.029590,19.742312,188.495287,1176.954579,14.297440,0
0.021875,-55.824530,-107.550466,190.616137,3.996060,1.917518,2.669771,-4.199900,-1.744893,-2.753837,4.044835,0.070083,0.413283,0.000144,22.849609,188.269219,1177.875470,14.459460,0
0.022917,9.613338,-161.788922,160.249109,3.466873,0.380009,3.728597,-3.693437,-0.199145,-3.840905,3.565047,0.073729,0.402259,-0.018440,26.182073,188.344464,1178.940055,14.494476,0
0.023958,72.294024,-180.393018,107.352883,2.431017,-1.227220,4.072000,-2.382821,1.494721,-4.138555,2.137106,0.062790,0.420448,-0.018440,22.421793,188.419967,1178.952438,14.353571,0
0.025000,126.963062,-183.646386,27.856646,0.922271,-2.746382,4.027030,-0.786110,3.059458,-4.073848,0.606354,0.008098,0.411422,-0.014723,13.167450,188.495161,1179.480984,14.366332,0
0.026042,163.992918,-146.931484,-41.529399,-0.406326,-3.652742,3.323872,0.725545,3.887401,-3.262861,-0.897744,-0.035656,0.412387,-0.025873,2.821050,188.344475,1178.490620,15.098747,0
0.027083,189.022252,-73.912757,-93.635767,-1.464701,-4.063723,1.937995,2.461436,4.392523,-1.942850,-2.653159,-0.028364,0.415970,0.026161,-3.675004,188.476761,1178.506394,15.687469,0
0.028125,173.733453,-6.508144,-146.689966,-2.523075,-3.788512,0.633881,3.335181,4.100084,-0.614212,-3.448998,-0.108580,0.396609,-0.011006,-13.086963,188.404899,1178.202225,16.886752,0
0.029167,127.607158,56.010545,-184.457362,-3.288707,-2.959212,-1.115840,4.104540,3.272141,1.141489,-4.237221,-0.072118,0.407288,-0.025873,-19.706858,188.488777,1178.287853,18.110967,0
0.030208,54.892139,107.594629,-190.569652,-3.390041,-1.524448,-2.710212,4.100674,1.779564,2.651306,-4.138217,-0.104934,0.405290,-0.025873,-21.890973,188.344713,1177.061623,18.337007,0
0.031250,-10.048532,161.433755,-159.983895,-2.827076,-0.034642,-3.752685,3.543951,0.233816,3.811708,-3.650813,-0.086703,0.399365,-0.003573,-25.268470,188.344894,1177.526322,18.805031,0
0.032292,-72.412820,180.495907,-106.431478,-1.779961,1.594604,-4.153322,2.268130,-1.429667,4.031709,-2.215257,-0.053887,0.411905,-0.014723,-24.885687,188.420258,1177.050760,19.184739,0
0.033335,-127.353057,183.408669,-26.607146,-0.237437,3.102758,-4.002062,0.686884,-3.005797,4.010141,-0.684504,-0.028364,0.406461,0.026161,-12.433980,188.495720,1177.077665,19.857671,0
0.034375,-164.123014,147.046118,42.098406,1.102420,4.012787,-3.352048,-0.813173,-3.860326,3.220722,0.838632,-0.010133,0.408460,0.026161,-2.380296,188.344930,1176.831705,20.311504,0
0.035417,-189.005450,74.238801,94.034650,2.104498,4.438446,-1.941643,-2.529733,-4.365448,1.784240,2.575008,0.033621,0.408735,-0.014723,4.825031,188.344863,1176.574370,19.883072,0
0.036459,-173.694051,7.257008,147.234669,3.196650,4.174244,-0.621176,-3.418942,-4.061615,0.494425,3.393694,0.066437,0.420586,0.000144,13.786658,188.420345,1176.606883,19.622570,0
0.037500,-127.940653,-55.520071,184.819790,3.860949,3.315587,1.050870,-4.184435,-3.195693,-1.222452,4.151455,0.070083,0.424651,0.022444,19.731053,188.495758,1176.279291,19.780222,0
0.038542,-55.835830,-107.879326,190.737654,4.052357,1.873484,2.624801,-4.153506,-1.687924,-2.715014,4.029604,0.077375,0.427200,0.003860,23.378750,188.344999,1175.673589,19.534077,0
0.039584,9.263040,-161.988587,160.164048,3.489392,0.350653,3.704068,-3.654776,-0.191549,-3.827964,3.538392,0.066437,0.418588,-0.007290,25.900615,188.344797,1175.315824,19.286251,0
0.040625,72.079325,-180.486978,107.267821,2.431017,-1.230890,4.076088,-2.351892,1.521306,-4.125614,2.175185,0.026329,0.420241,0.000144,23.919150,188.420139,1175.534773,19.356811,0
0.041667,127.765357,-183.270546,28.184741,0.888493,-2.790416,3.998414,-0.755181,3.086043,-4.043652,0.613970,0.019036,0.411078,-0.007290,13.291292,188.495752,1175.513257,19.233223,0
0.042709,164.716113,-147.272090,-41.091939,-0.428845,-3.671089,3.360665,0.686884,3.910189,-3.288744,-0.916783,-0.032010,0.417623,0.015011,2.663433,188.344997,1176.246061,19.026296,0
0.043750,189.270851,-75.063768,-93.854497,-1.464701,-4.100418,1.929819,2.473034,4.407714,-1.899713,-2.702661,-0.068472,0.413489,-0.018440,-2.841888,188.269499,1176.755707,17.893053,0
0.044792,173.643054,-8.305130,-147.443370,-2.500556,-3.865571,0.621616,3.366110,4.134265,-0.562447,-3.536578,-0.075764,0.417210,-0.007290,-12.670405,188.420110,1178.102666,16.533923,0
0.045834,127.708858,55.200139,-185.113552,-3.209892,-2.981228,-1.103576,4.127737,3.245555,1.180313,-4.252452,-0.068472,0.416590,-0.003573,-19.414141,188.495682,1178.333806,15.660535,0
0.046875,55.592734,108.005705,-190.290164,-3.345004,-1.568481,-2.738829,4.154799,1.798553,2.703071,-4.195335,-0.112226,0.416934,-0.011006,-21.879715,188.420311,1179.525190,15.463422,0
0.047917,-9.811234,162.079731,-159.923136,-2.815817,-0.012625,-3.760862,3.601943,0.218624,3.816021,-3.669852,-0.053887,0.415625,0.018727,-25.504895,188.269396,1179.899118,15.413903,0
0.048959,-72.367620,180.472417,-106.516539,-1.701146,1.623960,-4.173763,2.264264,-1.486635,4.070533,-2.215257,-0.021072,0.421895,0.022444,-24.390321,188.420287,1180.609673,14.751266,0
0.050000,-127.737254,183.631824,-27.214730,-0.226178,3.168808,-4.083824,0.644357,-3.055170,4.048964,-0.646426,-0.024718,0.407564,-0.014723,-12.456497,188.420377,1181.507271,13.962531,0
0.051042,-164.156914,146.400142,42.219922,1.102420,4.038473,-3.356137,-0.886630,-3.924891,3.160330,0.861479,0.004452,0.413351,-0.003573,-2.256455,188.344912,1181.604406,13.135008,0
0.052084,-190.045043,73.076045,94.168319,2.127016,4.489818,-1.937555,-2.645717,-4.411023,1.814436,2.639742,0.029975,0.410871,0.003860,4.284632,188.269565,1182.862226,13.132781,0
0.053125,-172.925656,6.152977,147.489854,3.219168,4.236625,-0.645705,-3.476934,-4.073009,0.507366,3.435580,0.055498,0.394266,-0.011006,13.978049,188.420417,1183.232522,13.456651,0
0.054167,-126.697661,-56.013361,185.609648,3.894726,3.344943,1.148985,-4.250160,-3.233672,-1.282845,4.235227,0.081021,0.394473,0.003860,19.742312,188.420287,1184.699184,13.306889,0
0.055209,-53.993942,-108.184696,190.385255,3.962282,1.836789,2.718828,-4.226963,-1.672733,-2.831485,4.044835,0.070083,0.435675,-0.025873,22.984709,188.420301,1185.424862,12.704962,0
0.056250,11.398726,-162.387918,160.224806,3.466873,0.269925,3.818536,-3.658642,-0.126985,-3.940122,3.561239,0.070083,0.418863,-0.025873,26.373465,188.269557,1186.899542,12.152939,0
0.057292,72.949419,-180.310803,105.931137,2.352202,-1.307949,4.121058,-2.328695,1.559285,-4.151496,2.102836,0.029975,0.411973,-0.025873,22.230401,188.420291,1186.748721,11.555450,0
0.058334,128.059155,-183.928266,26.592872,0.888493,-2.867475,4.035207,-0.728118,3.162001,-4.095417,0.522581,0.004452,0.404601,-0.018440,13.133675,188.420399,1187.886139,10.522529,0
0.059375,164.173717,-146.156314,-42.173438,-0.462623,-3.689437,3.287078,0.787403,3.974753,-3.271489,-1.038634,-0.024718,0.408804,0.007577,2.629658,188.420529,1188.403404,9.144706,0
0.060417,190.276544,-73.149331,-93.818042,-1.430923,-4.107757,1.888937,2.554223,4.441895,-1.856575,-2.752163,-0.053887,0.405841,0.026161,-3.562420,188.269559,1188.924955,8.684934,0
0.061459,172.897259,-6.719554,-147.516280,-2.511815,-3.865571,0.580735,3.400905,4.130467,-0.549505,-3.540386,-0.061180,0.420862,0.003860,-13.289613,188.420356,1188.698764,8.995365,0
0.062500,127.143861,55.669940,-185.684680,-3.243670,-3.006915,-1.185338,4.143201,3.226566,1.236392,-4.275299,-0.079410,0.424444,-0.003573,-19.785666,188.420356,1189.085876,8.422270,0
0.063542,55.445835,108.299330,-190.071434,-3.345004,-1.528117,-2.755181,4.131603,1.737787,2.728953,-4.168680,-0.079410,0.422033,-0.003573,-21.936006,188.495687,1188.704449,7.598167,0
0.064584,-9.912933,162.373356,-159.983895,-2.838335,0.020400,-3.867153,3.582613,0.165454,3.846218,-3.635582,-0.097641,0.423204,-0.003573,-25.392312,188.269528,1188.779381,6.667061,0
0.065625,-72.627519,180.096576,-106.030472,-1.779961,1.627629,-4.177851,2.268130,-1.494231,4.053278,-2.188602,-0.064826,0.419001,0.003860,-24.626746,188.420323,1188.303493,6.514284,0
0.066667,-128.415250,183.490884,-27.105365,-0.237437,3.183486,-4.096089,0.648223,-3.089351,4.044651,-0.657850,0.008098,0.411629,-0.025873,-12.524047,188.420054,1188.656937,6.538830,0
0.067709,-164.541111,146.364907,41.806765,1.102420,4.031134,-3.343872,-0.828638,-3.917295,3.194840,0.899558,0.011744,0.414109,0.003860,-2.492880,188.495510,1189.023781,6.329758,0
0.068750,-190.316241,74.003900,94.277684,2.104498,4.500827,-1.945731,-2.637985,-4.437608,1.844632,2.708283,0.066437,0.413283,-0.022156,4.566090,188.269610,1190.132449,5.786089,0
0.069792,-172.812657,7.585868,148.231106,3.207909,4.221947,-0.645705,-3.465336,-4.069211,0.524621,3.466043,0.022683,0.424169,-0.011006,13.899241,188.344956,1190.578312,5.500430,0
0.070834,-127.194858,-55.367386,186.144322,3.951023,3.333934,1.124456,-4.234695,-3.188097,-1.291472,4.250459,0.048206,0.427545,-0.003573,19.888670,188.420262,1190.616952,4.753922,0
0.071875,-55.056135,-108.525302,190.130070,4.007319,1.847798,2.722916,-4.223097,-1.691722,-2.796975,4.037219,0.084667,0.418106,-0.003573,23.412525,188.495682,1190.460111,5.059388,0
0.072917,10.867630,-162.740268,160.127593,3.489392,0.335975,3.802183,-3.677973,-0.100400,-3.927181,3.519353,0.066437,0.412318,0.007577,25.979423,188.269391,1189.995101,4.464573,0
0.073959,72.972019,-180.404763,106.149867,2.419758,-1.282263,4.161939,-2.324829,1.589668,-4.220516,2.129491,0.015390,0.405152,0.000144,23.739017,188.420267,1191.156897,4.301489,0
0.075000,128.533752,-183.787326,26.677934,0.911012,-2.845458,4.063824,-0.755181,3.124022,-4.116986,0.541621,0.004452,0.411767,-0.011006,13.403875,188.420307,1191.176557,4.975771,0
0.076042,164.422315,-145.745238,-42.392168,-0.462623,-3.737140,3.332048,0.764206,3.963359,-3.284430,-0.958669,-0.028364,0.415350,-0.007290,2.550850,188.495721,1190.980831,6.191254,0
0.077084,190.694641,-72.080535,-94.085379,-1.464701,-4.206832,1.917554,2.531026,4.498864,-1.921281,-2.733123,-0.072118,0.426787,-0.003573,-2.808113,188.269650,1191.871507,7.369547,0
0.078125,172.467862,-5.768208,-147.747161,-2.523075,-3.880249,0.556206,3.447298,4.122871,-0.519309,-3.574656,-0.083057,0.428096,0.022444,-12.895571,188.344825,1192.018278,7.091861,0
0.079167,125.934769,56.445110,-186.037079,-3.288707,-2.973889,-1.234396,4.189595,3.272141,1.236392,-4.370495,-0.064826,0.404050,-0.014723,-19.312816,188.420403,1193.381341,7.691655,0
0.080209,53.558748,108.663425,-190.071434,-3.356263,-1.506100,-2.832856,4.131603,1.718797,2.741895,-4.195335,-0.123164,0.401707,-0.014723,-21.992298,188.495631,1193.559351,7.985072,0
0.081250,-11.867820,162.666981,-159.971743,-2.838335,0.101129,-3.891682,3.578747,0.142666,3.893669,-3.681276,-0.057533,0.397436,-0.007290,-25.718803,188.269498,1194.552007,8.350851,0
0.082292,-73.124715,180.343222,-104.730244,-1.734924,1.715697,-4.226909,2.217870,-1.600572,4.169750,-2.180986,-0.050241,0.414109,0.000144,-24.063829,188.420341,1196.270427,7.500697,0
0.083334,-128.596049,183.913705,-25.477041,-0.214918,3.300909,-4.108353,0.597963,-3.184299,4.070533,-0.593116,0.011744,0.405083,-0.018440,-12.310139,188.420291,1197.274784,6.545526,0
0.084375,-164.428112,145.249132,42.961174,1.102420,4.115532,-3.372489,-0.933023,-3.978061,3.164643,0.960483,0.022683,0.410802,0.011294,-2.087580,188.495687,1197.620001,5.859587,0
0.085417,-191.321934,71.795838,94.253380,2.127016,4.533852,-1.929378,-2.688245,-4.456597,1.797181,2.738745,0.070083,0.407082,0.033594,4.183307,188.269454,1197.791962,5.610342,0
0.086459,-172.010362,6.000292,148.267561,3.185390,4.196260,-0.576207,-3.565855,-4.069211,0.377953,3.526969,0.059144,0.420241,0.015011,14.146924,188.344916,1198.024577,4.050555,0
0.087500,-126.268264,-55.743226,186.581782,3.939764,3.319256,1.193955,-4.342947,-3.210884,-1.369120,4.284729,0.070083,0.426098,0.015011,19.686020,188.421441,1198.835318,3.610642,0
0.088542,-54.355539,-108.842417,189.777672,3.984801,1.833120,2.800591,-4.238561,-1.661339,-2.896192,4.113376,0.062790,0.422722,-0.011006,23.063517,188.496060,1200.214362,2.864684,0
0.089584,11.319627,-163.186578,160.273413,3.500651,0.251577,3.896210,-3.708902,-0.104198,-4.004828,3.553624,0.044560,0.422653,0.007577,26.395981,188.269861,1201.474843,2.886587,0
0.090625,73.039819,-180.052413,105.688104,2.408499,-1.399686,4.202820,-2.301632,1.601062,-4.203261,2.041910,0.022683,0.419897,0.000144,21.960202,188.269924,1200.611008,2.048088,0
0.091667,129.064849,-184.139676,26.957423,0.865975,-2.926186,4.108793,-0.681725,3.230364,-4.142869,0.499734,-0.002841,0.413489,0.026161,13.280033,188.420638,1201.890615,0.835625,0
0.092709,164.727413,-145.416378,-41.784584,-0.440104,-3.744479,3.303431,0.841529,4.031722,-3.297371,-1.061481,-0.064826,0.415556,-0.018440,2.787275,188.496029,1202.939510,-0.587753,0
0.093750,191.587335,-72.843961,-94.133986,-1.487219,-4.199493,1.872585,2.623813,4.552035,-1.878144,-2.824512,-0.068472,0.415763,-0.037023,-3.382287,188.345303,1204.267079,-2.063198,0
0.094792,171.914165,-7.083649,-148.537020,-2.556853,-3.902266,0.580735,3.458897,4.145659,-0.527937,-3.639390,-0.061180,0.422722,0.003860,-13.503521,188.269821,1205.209287,-2.464156,0
0.095834,126.522365,55.388059,-186.729724,-3.299967,-3.021593,-1.213955,4.216657,3.241757,1.245019,-4.393342,-0.083057,0.426167,-0.025873,-19.864474,188.420466,1205.481634,-3.222805,0
0.096875,54.835639,108.874835,-189.403092,-3.345004,-1.539126,-2.804239,4.139335,1.714999,2.832484,-4.180103,-0.097641,0.421275,0.018727,-22.048589,188.496098,1205.967815,-4.321666,0
0.097917,-11.348024,163.054567,-160.056805,-2.849594,0.057095,-3.908034,3.632872,0.131273,3.958375,-3.677468,-0.104934,0.423135,0.015011,-25.549928,188.345319,1206.708947,-4.922883,0
0.098959,-73.384614,179.908656,-104.888215,-1.734924,1.697349,-4.251438,2.229468,-1.581583,4.169750,-2.196218,-0.042949,0.419484,-0.003573,-24.311513,188.269776,1206.649347,-4.555373,0
0.100000,-129.059346,183.901960,-25.853743,-0.214918,3.249536,-4.157411,0.625026,-3.112139,4.122298,-0.623579,-0.050241,0.412111,0.003860,-12.512788,188.420712,1206.776848,-3.467591,0
0.101042,-164.213413,144.943761,42.839657,1.113679,4.075168,-3.360225,-0.929157,-3.943880,3.207781,0.952868,0.015390,0.413696,0.000144,-2.414071,188.496111,1206.641609,-2.924911,0
0.102083,-191.468833,71.290803,94.326290,2.160794,4.548530,-1.900761,-2.723040,-4.483183,1.801495,2.753977,0.051852,0.410595,0.022444,4.509798,188.345330,1207.058324,-2.879876,0
0.103125,-171.558365,5.283846,148.437685,3.196650,4.243964,-0.555766,-3.550391,-4.103392,0.425405,3.507929,0.055498,0.387721,0.003860,13.955533,188.269803,1207.177941,-1.789770,0
0.104167,-125.194771,-56.459672,186.994939,3.928504,3.363290,1.206219,-4.323616,-3.191895,-1.373434,4.284729,0.124775,0.393302,0.018727,19.911186,188.420638,1207.002530,-1.589399,0
0.105209,-52.750950,-109.124297,189.814127,4.007319,1.822112,2.771974,-4.273356,-1.638551,-2.865995,4.098145,0.051852,0.413972,0.003860,23.502592,188.495971,1206.393902,-1.142561,0
0.106250,13.082415,-163.174833,160.164048,3.478132,0.229560,3.871681,-3.681839,-0.100400,-4.030711,3.587894,0.029975,0.435744,0.000144,26.193332,188.345301,1206.959632,-0.590190,0
0.107292,73.616115,-180.310803,104.424330,2.397239,-1.407025,4.190556,-2.266837,1.680818,-4.224830,2.087604,0.011744,0.426994,-0.018440,23.558884,188.269807,1207.840657,-0.541236,0
0.108333,129.189148,-184.245382,25.195430,0.865975,-2.962881,4.108793,-0.673993,3.264545,-4.160124,0.499734,-0.032010,0.403912,0.018727,13.392617,188.420611,1208.299976,-0.254690,0
0.109375,164.546614,-144.488522,-43.084813,-0.462623,-3.799521,3.327960,0.856994,4.050711,-3.254234,-1.080520,0.019036,0.409217,0.059611,2.303167,188.496078,1208.026251,-0.384524,0
0.110417,192.084532,-70.812074,-94.146138,-1.475960,-4.203163,1.864408,2.677939,4.578620,-1.826379,-2.900668,-0.072118,0.402810,-0.014723,-2.774338,188.345256,1208.454832,-1.147276,0
0.111459,171.597768,-5.674248,-148.342593,-2.579371,-3.894927,0.498972,3.528487,4.176042,-0.437348,-3.692699,-0.061180,0.419139,0.029877,-13.041930,188.269930,1209.059826,-1.993987,0
0.112500,125.426273,56.198465,-187.082123,-3.322485,-2.992237,-1.299806,4.282382,3.287332,1.318353,-4.404766,-0.115872,0.426511,-0.025873,-19.290300,188.420636,1209.753303,-1.997688,0
