1-Time,2-VGERA,3-VGERB,4-VGERC,5-VN,6-IGERAN,7-IGERBN,8-IGERCN,9-IGERAT,10-IGERBT,11-IGERCT,12-IN,13-IFD,14-IFAULT,15-VFAULT,16-Speed (rad/s),17-Active Power,18-Reactive Power,19-FAULT 
0.000000,-146.894272,-64.859481,168.642614,6.049608,5.006908,-2.493764,-2.680793,-4.962133,2.598985,2.531733,-0.197847,0.526606,-0.076769,-11.443381,188.269445,960.038369,1030.989900,0
0.001042,-71.115026,-123.476028,183.957008,6.377598,4.779690,-0.366603,-4.378567,-4.730561,0.530016,4.143437,-0.201500,0.543656,-0.076769,-12.834511,188.495635,961.548350,1030.190007,0
0.002083,5.390140,-159.114695,168.359470,6.094848,3.806914,1.347825,-4.908421,-3.818975,-1.240989,4.755387,-0.252642,0.562078,-0.020755,-14.723281,188.420224,962.726914,1029.290573,0
0.003125,76.757153,-178.637435,118.193750,5.156118,2.003372,3.367834,-4.953198,-2.084021,-3.221828,4.794523,-0.227071,0.564756,-0.035692,-15.503671,188.495673,964.201433,1029.593576,0
0.004167,128.252105,-186.332971,37.645455,3.606648,0.235334,4.594126,-4.303939,-0.227767,-4.518606,4.207478,-0.248989,0.567108,-0.080503,-14.745901,188.269570,964.652447,1028.924750,0
0.005208,169.425382,-152.566845,-34.642424,2.226828,-1.667615,5.153697,-2.893481,1.602757,-5.080962,2.919538,-0.194194,0.556133,-0.043161,-5.969341,188.420168,966.002660,1027.345642,0
0.006250,175.391537,-98.118210,-107.730493,0.847008,-3.425003,4.990985,-1.121081,3.440632,-5.030602,1.137057,-0.179582,0.540913,-0.043161,2.501848,188.420189,965.952073,1026.283661,0
0.007292,175.051262,-12.162578,-150.202084,0.066618,-4.514939,4.137739,0.800575,4.480869,-4.157690,-0.599172,-0.143052,0.560249,-0.054364,8.858068,188.478577,966.816853,1026.761370,0
0.008333,146.808436,64.708214,-168.766478,-0.261372,-4.919670,2.554274,2.498348,4.973419,-2.693044,-2.346075,-0.073645,0.565410,-0.050629,15.463108,188.323930,966.607507,1027.573548,0
0.009375,71.460205,123.723430,-183.748485,-0.555432,-4.699553,0.458862,4.255823,4.697738,-0.565321,-4.000474,-0.051727,0.565214,-0.039427,18.188818,188.493981,967.578179,1026.776619,0
0.010417,-5.169728,159.507068,-168.298675,-0.283992,-3.730327,-1.227786,4.796872,3.800855,1.159520,-4.601750,-0.044421,0.568806,-0.043161,19.116238,188.453020,968.069516,1025.975438,0
0.011458,-77.160579,178.884838,-117.652841,0.654738,-1.926786,-3.291450,4.830454,2.040171,3.127769,-4.640886,-0.026156,0.562993,-0.054364,20.552608,188.501767,968.356928,1025.656564,0
0.012500,-128.655531,186.954882,-36.636743,2.136348,-0.158747,-4.462182,4.199853,0.220675,4.525267,-4.075189,-0.044421,0.559988,-0.035692,20.134138,188.344789,968.289143,1025.634884,0
0.013542,-169.477191,152.645114,35.023296,3.527478,1.715800,-5.061438,2.852828,-1.613525,4.995297,-2.812153,-0.095563,0.559530,-0.058098,10.328368,188.495740,968.120238,1025.484140,0
0.014583,-175.760936,98.220642,107.828220,4.929918,3.529992,-4.918569,0.983412,-3.436697,4.974314,-0.969189,-0.095563,0.553912,-0.028224,2.581018,188.420238,967.740567,1025.504309,0
0.015625,-174.966961,12.832812,150.410607,5.744238,4.609277,-4.073261,-0.889736,-4.491637,4.134975,0.791946,-0.150358,0.550907,-0.073035,-4.691311,188.495620,968.004741,1026.092034,0
0.016667,-147.075752,-63.929252,168.962690,6.083538,4.999807,-2.501702,-2.680793,-5.024621,2.624166,2.513943,-0.175929,0.551103,-0.054364,-11.692201,188.285023,968.490843,1026.762001,0
0.017708,-72.101824,-123.512270,183.686175,6.400218,4.811642,-0.362635,-4.393492,-4.804076,0.513229,4.111417,-0.230724,0.573053,-0.061832,-13.094641,188.495298,968.803284,1027.194630,0
0.018750,5.015837,-159.380474,168.544129,6.072228,3.831766,1.316076,-4.867376,-3.844705,-1.220005,4.762503,-0.241683,0.573249,-0.035692,-14.350051,188.420278,968.819960,1027.673209,0
0.019792,77.199510,-178.504545,117.615152,5.031708,2.010473,3.383708,-4.942003,-2.058291,-3.221828,4.741155,-0.274560,0.562927,-0.069301,-15.639391,188.495658,968.310780,1027.004891,0
0.020833,128.320160,-186.912855,36.500568,3.617958,0.235334,4.621906,-4.262894,-0.242470,-4.547982,4.211036,-0.205153,0.562143,-0.061832,-13.694071,188.346570,968.400000,1027.564533,0
0.021875,169.141819,-152.325226,-35.036364,2.272068,-1.685367,5.173540,-2.949452,1.562323,-5.110339,2.905307,-0.190541,0.557113,-0.069301,-5.912791,188.499703,968.086236,1027.806224,0
0.022917,175.573017,-98.178615,-107.681250,0.880938,-3.464056,5.054482,-1.113618,3.433280,-5.085159,1.144172,-0.117481,0.559726,-0.058098,2.196478,188.495209,968.322397,1028.471519,0
0.023958,175.051262,-13.225698,-150.534470,0.043998,-4.525589,4.161551,0.800575,4.477193,-4.182870,-0.620520,-0.080951,0.563842,-0.043161,9.491428,188.495289,968.805687,1028.497948,0
0.025000,147.216766,63.777984,-169.111175,-0.261372,-4.919670,2.534431,2.569244,4.925635,-2.655274,-2.424348,-0.095563,0.564364,-0.076769,16.096468,188.344420,969.767259,1027.306464,0
0.026042,71.596315,123.675106,-184.105493,-0.645912,-4.674701,0.431082,4.255823,4.752874,-0.573714,-3.996916,-0.044421,0.563972,-0.065566,18.505498,188.495215,970.042769,1028.001848,0
0.027083,-6.077128,159.652039,-168.249432,-0.317922,-3.716126,-1.311126,4.785678,3.789828,1.205683,-4.644444,-0.029809,0.558420,-0.046895,19.206718,188.495184,970.735466,1028.112412,0
0.028125,-78.067979,179.307669,-116.914205,0.677358,-1.880632,-3.390664,4.830454,1.999738,3.203309,-4.623097,-0.040768,0.553912,-0.076769,20.349028,188.495217,971.425040,1027.817991,0
0.029167,-128.814326,187.027367,-35.848864,2.226828,-0.087742,-4.545522,4.147614,0.117754,4.563038,-4.071631,-0.011544,0.562013,-0.039427,20.145448,188.419835,972.503468,1027.239960,0
0.030208,-169.806123,152.778004,35.146402,3.561408,1.818758,-5.124935,2.830440,-1.639255,5.075034,-2.737438,-0.069992,0.558681,-0.084238,10.328368,188.495227,973.714589,1026.992032,0
0.031250,-175.624826,98.776363,107.742046,4.907298,3.604548,-4.934443,0.916247,-3.502860,4.999494,-0.951399,-0.117481,0.560575,-0.050629,2.954248,188.502629,974.889947,1026.970558,0
0.032302,-175.545428,12.482466,151.530872,5.687688,4.648330,-3.993889,-1.024065,-4.609261,4.067828,0.920028,-0.175929,0.558681,-0.058098,-4.928821,188.495604,977.434160,1026.304073,0
0.033335,-147.109780,-64.062142,168.765720,6.026988,5.021109,-2.386613,-2.751689,-5.028297,2.523445,2.624237,-0.201500,0.560575,-0.069301,-11.432071,188.420339,979.029069,1024.887396,0
0.034377,-70.298366,-123.294814,185.175758,6.422838,4.758388,-0.291200,-4.427074,-4.734237,0.475459,4.175458,-0.223418,0.560837,-0.061832,-12.823201,188.495718,979.581570,1024.299281,0
0.035417,6.490362,-159.416717,168.260985,6.060918,3.778511,1.435134,-4.889764,-3.734433,-1.291349,4.801639,-0.245336,0.521576,-0.039427,-14.734591,188.495613,980.289890,1023.162444,0
0.036458,77.823348,-179.531422,116.962690,5.110878,1.896864,3.482923,-4.919615,-1.970073,-3.247008,4.751829,-0.256295,0.562339,-0.080503,-15.560221,188.495658,980.977372,1022.757192,0
0.037500,128.388215,-186.393376,36.377462,3.606648,0.146577,4.594126,-4.221849,-0.146900,-4.547982,4.179016,-0.248989,0.560380,-0.046895,-14.678041,188.495658,981.499563,1021.557914,0
0.038542,169.629547,-152.820544,-34.568561,2.272068,-1.727970,5.197351,-2.871093,1.650541,-5.160700,2.930211,-0.186888,0.562405,-0.046895,-6.082441,188.495571,983.157818,1021.875873,0
0.039583,175.255427,-98.613527,-107.816667,0.937488,-3.467606,4.994953,-0.971826,3.492092,-5.026405,1.115710,-0.172276,0.558877,-0.050629,2.332198,188.420233,983.750069,1020.904942,0
0.040625,175.459592,-13.757258,-150.694508,0.089238,-4.582394,4.098053,0.841620,4.532329,-4.145100,-0.677445,-0.121134,0.561490,-0.080503,8.677108,188.495586,985.105754,1020.310286,0
0.041681,145.878351,66.580754,-168.507955,-0.261372,-4.880617,2.423311,2.636409,4.888877,-2.575537,-2.481273,-0.110175,0.556460,-0.050629,15.757168,188.495609,984.760764,1019.573310,0
0.042715,68.715320,123.880482,-185.767425,-0.600672,-4.656950,0.327899,4.311794,4.712441,-0.498174,-4.064515,-0.044421,0.552083,-0.069301,18.132268,188.495828,985.489346,1019.249404,0
0.043754,-7.608366,159.881576,-167.510796,-0.272682,-3.680623,-1.342875,4.781947,3.716313,1.243454,-4.615981,-0.044421,0.538626,-0.065566,19.093618,188.571035,985.052236,1018.354089,0
0.044792,-78.260802,179.621773,-116.655682,0.677358,-1.866431,-3.343041,4.845380,1.985035,3.232686,-4.598192,-0.011544,0.532355,-0.043161,20.654398,188.495551,985.256964,1018.071614,0
0.045834,-128.802984,186.652859,-36.562879,2.204208,-0.066440,-4.525679,4.155076,0.103051,4.474907,-4.046726,-0.029809,0.563384,-0.039427,20.077588,188.437773,984.386530,1017.182481,0
0.046875,-170.112371,152.790085,34.457008,3.538788,1.804557,-5.097155,2.774470,-1.639255,5.129591,-2.762343,-0.059033,0.562993,-0.046895,10.407538,188.515609,984.997574,1017.801582,0
0.047917,-175.738251,99.138790,107.705114,4.884678,3.547743,-4.890789,0.919979,-3.506536,4.970117,-0.937168,-0.106522,0.556656,-0.076769,2.694118,188.520684,985.104076,1017.335172,0
0.048958,-175.613483,13.376453,150.570644,5.676378,4.619927,-3.966109,-0.979289,-4.561476,4.063631,0.855987,-0.157664,0.558942,-0.043161,-4.668691,188.507575,984.169699,1017.051287,0
0.050000,-146.746820,-64.799077,168.654925,6.038298,4.982056,-2.366770,-2.751689,-4.980512,2.498265,2.602890,-0.175929,0.531571,-0.031958,-11.703511,188.513900,983.370447,1016.602938,0
0.051042,-69.674529,-123.548513,184.929546,6.400218,4.758388,-0.271357,-4.456925,-4.730561,0.450279,4.207478,-0.216112,0.546008,-0.065566,-12.981541,188.500396,983.661323,1016.501141,0
0.052084,7.329707,-159.525445,168.174811,6.072228,3.789162,1.411322,-4.889764,-3.804272,-1.291349,4.776734,-0.216112,0.566324,-0.054364,-14.304811,188.499523,983.205162,1017.366874,0
0.053125,77.675895,-179.313966,117.258144,5.144808,1.953668,3.435300,-4.975586,-1.984776,-3.276385,4.776734,-0.256295,0.554696,-0.065566,-15.662011,188.495269,983.720623,1017.615994,0
0.054167,128.467612,-186.477942,37.313068,3.651888,0.174979,4.598095,-4.236774,-0.172631,-4.602539,4.168342,-0.241683,0.566128,-0.043161,-13.603591,188.646120,984.364618,1017.780288,0
0.055209,169.913109,-152.699735,-34.137689,2.294688,-1.756372,5.217194,-2.852436,1.654217,-5.114536,2.873286,-0.183235,0.566389,-0.076769,-6.093751,188.495387,984.156993,1016.728620,0
0.056250,175.504962,-98.637689,-107.668940,0.824388,-3.499559,5.014796,-0.956900,3.528850,-5.026405,1.069458,-0.154011,0.557375,-0.054364,2.196478,188.570676,984.943283,1016.280160,0
0.057292,175.323482,-12.392115,-150.546781,0.089238,-4.578844,4.105991,0.916247,4.565411,-4.115723,-0.755718,-0.139399,0.546792,-0.069301,9.423568,188.495278,985.618825,1015.758992,0
0.058345,145.572103,67.136476,-168.643372,-0.250062,-4.887718,2.419342,2.688648,4.973419,-2.533570,-2.523968,-0.106522,0.531049,-0.069301,16.345288,188.646301,986.785892,1016.054093,0
0.059386,67.138712,124.122100,-186.259849,-0.691152,-4.642749,0.264401,4.349108,4.683035,-0.397453,-4.085862,-0.051727,0.546204,-0.076769,18.607288,188.495012,987.313710,1015.189769,0
0.060422,-7.245406,160.219841,-167.104546,-0.283992,-3.613168,-1.386529,4.860305,3.675880,1.293814,-4.630213,-0.026156,0.554108,-0.054364,19.138858,188.570729,987.978358,1014.526407,0
0.061461,-77.829787,180.286223,-116.286364,0.699978,-1.767023,-3.450193,4.822992,1.889465,3.337603,-4.648002,-0.048074,0.551561,-0.065566,20.439508,188.495360,990.068568,1013.918659,0
0.062504,-129.279369,186.012571,-36.427462,2.136348,0.004566,-4.553459,4.050598,0.051590,4.550448,-4.000474,-0.059033,0.561294,-0.020755,20.009728,188.646156,991.010217,1013.300374,0
0.063546,-170.758893,153.043784,35.638826,3.493548,1.879113,-5.124935,2.673723,-1.767906,5.028871,-2.698302,-0.121134,0.559596,-0.050629,10.237888,188.495370,991.543506,1011.720117,0
0.064586,-175.329921,97.749486,108.492993,4.929918,3.640051,-4.859040,0.789381,-3.602106,4.949133,-0.851780,-0.091910,0.542611,-0.050629,2.705428,188.570653,992.500386,1010.919132,0
0.065634,-175.919731,10.597845,151.038447,5.732928,4.722885,-3.981983,-1.124812,-4.576179,3.988091,0.984069,-0.132093,0.512104,-0.050629,-4.940131,188.495309,993.210836,1009.960042,0
0.066678,-145.090815,-67.130691,168.408713,6.060918,4.996257,-2.251681,-2.822585,-4.962133,2.439511,2.727414,-0.179582,0.550711,-0.102909,-11.409451,188.646310,993.768143,1009.399015,0
0.067714,-68.041209,-123.125681,186.320645,6.468078,4.754838,-0.164206,-4.494239,-4.715858,0.345361,4.271520,-0.238030,0.556917,-0.054364,-12.789271,188.495262,995.127054,1008.691538,0
0.068758,6.739897,-160.262380,166.783713,6.060918,3.707506,1.494662,-4.975586,-3.738108,-1.383676,4.819428,-0.227071,0.569002,-0.061832,-14.689351,188.570770,996.314046,1007.689230,0
0.069797,77.074743,-180.546218,116.642614,5.099568,1.854261,3.578169,-4.960660,-1.936991,-3.402285,4.812312,-0.270907,0.561555,-0.043161,-15.662011,188.495218,998.407327,1007.549035,0
0.070838,128.558352,-185.596036,36.709849,3.595338,0.050719,4.693341,-4.162147,-0.073385,-4.577359,4.107859,-0.205153,0.559269,-0.069301,-14.655421,188.721483,998.375924,1005.948894,0
0.071879,170.094589,-152.953433,-36.033523,2.204208,-1.830928,5.185445,-2.740495,1.790220,-5.143913,2.755877,-0.212459,0.556656,-0.065566,-6.093751,188.570683,1000.119631,1004.751693,0
0.072918,174.824412,-97.055091,-108.358334,0.880938,-3.531511,4.951299,-0.900930,3.591337,-4.980242,0.976954,-0.186888,0.552410,-0.054364,2.592328,188.570609,1000.488304,1003.548517,0
0.073958,175.743154,-11.159863,-150.460607,0.055308,-4.614346,4.070273,0.953561,4.576438,-4.086346,-0.769949,-0.113828,0.522099,-0.065566,8.711038,188.495432,1000.518613,1003.432272,0
0.075000,146.241311,65.662605,-168.680304,-0.329232,-4.940972,2.411405,2.655066,4.966068,-2.533570,-2.499063,-0.077298,0.563188,-0.061832,15.587518,188.721552,1000.614869,1003.028852,0
0.076042,69.429897,123.203951,-185.681251,-0.634602,-4.681802,0.300119,4.296869,4.660981,-0.435223,-4.107209,-0.066339,0.562013,-0.073035,18.120958,188.574730,1001.030133,1002.520895,0
0.077083,-5.634771,159.784929,-167.596970,-0.295302,-3.634470,-1.350812,4.774484,3.712637,1.302207,-4.633771,-0.044421,0.564495,-0.069301,19.116238,188.571145,1001.622870,1002.467234,0
0.078125,-77.183264,180.237899,-116.618750,0.654738,-1.795425,-3.422413,4.811798,1.885789,3.270456,-4.619539,-0.059033,0.562731,-0.020755,20.722258,188.495761,1000.821047,1002.010822,0
0.079167,-128.984464,186.326675,-36.156629,2.158968,-0.009635,-4.533616,4.091643,0.073645,4.537857,-3.996916,-0.062686,0.560118,-0.054364,19.975798,188.721998,1000.509555,1002.108303,0
0.080208,-170.067001,152.910894,36.143561,3.527478,1.872012,-5.093187,2.696111,-1.742176,5.083428,-2.698302,-0.095563,0.557113,-0.050629,10.294438,188.571046,1000.524315,1002.557876,0
0.081250,-175.432003,97.362898,108.492993,4.918608,3.618749,-4.894758,0.796844,-3.550645,4.936543,-0.873127,-0.121134,0.552867,-0.046895,2.524468,188.571064,999.624562,1002.696551,0
0.082292,-175.874361,11.721369,150.570644,5.766858,4.669631,-3.950235,-1.050185,-4.554125,4.030058,0.916470,-0.143052,0.540717,-0.031958,-4.612141,188.495772,999.027211,1003.178955,0
0.083333,-146.440572,-64.762834,168.605682,6.094848,4.999807,-2.354864,-2.811391,-5.017269,2.489871,2.631352,-0.219765,0.552083,-0.035692,-11.737441,188.721971,999.025961,1003.837153,0
0.084375,-69.969434,-123.016953,185.397349,6.445458,4.761938,-0.219766,-4.471851,-4.759967,0.378935,4.275078,-0.241683,0.564299,-0.035692,-12.992851,188.571152,999.346390,1004.212260,0
0.085417,5.492222,-159.863711,167.608523,6.083538,3.792713,1.466882,-4.942003,-3.804272,-1.312332,4.822986,-0.248989,0.565606,-0.073035,-14.316121,188.571196,999.125629,1005.056837,0
0.086458,77.256223,-180.026739,116.765720,5.110878,1.879113,3.490860,-4.949466,-1.981100,-3.297368,4.773176,-0.245336,0.559465,-0.043161,-15.809041,188.495562,997.332209,1005.189725,0
0.087500,128.263447,-186.417538,36.069697,3.584028,0.114624,4.602064,-4.177073,-0.102791,-4.631916,4.154111,-0.230724,0.559726,-0.061832,-13.580971,188.722000,997.903497,1006.293359,0
0.088544,169.708944,-152.723896,-36.452083,2.272068,-1.816727,5.221163,-2.818854,1.760814,-5.173290,2.823476,-0.146705,0.553651,-0.087972,-5.969341,188.571084,997.533003,1007.413624,0
0.089583,175.028577,-97.212142,-108.173675,0.892248,-3.574115,5.002890,-0.953169,3.550904,-5.022209,1.026763,-0.161317,0.553978,-0.069301,2.275648,188.571105,997.088536,1008.327436,0
0.090625,175.607044,-11.884717,-150.719129,0.077928,-4.603695,4.102022,0.919979,4.561735,-4.077953,-0.784181,-0.132093,0.556003,-0.046895,9.333088,188.495738,997.215333,1007.979160,0
0.091667,146.626956,64.671971,-169.012690,-0.283992,-4.930321,2.431248,2.673723,4.991798,-2.579734,-2.513294,-0.084604,0.558877,-0.084238,16.220878,188.721967,997.760957,1008.483763,0
0.092708,69.792857,123.179789,-185.853599,-0.611982,-4.639198,0.304087,4.330451,4.660981,-0.401650,-4.075189,-0.018850,0.565997,-0.087972,18.539428,188.571009,997.794707,1008.092438,0
0.093750,-5.895648,159.954061,-167.695455,-0.306612,-3.584766,-1.430184,4.763290,3.661177,1.327387,-4.633771,-0.051727,0.571550,-0.035692,19.127548,188.571237,998.042264,1007.467986,0
0.094792,-77.852472,180.588245,-115.978599,0.643428,-1.727970,-3.470036,4.830454,1.878438,3.312423,-4.591077,-0.037115,0.542938,-0.031958,20.473438,188.495957,998.174294,1007.384903,0
0.095833,-128.927751,186.592455,-35.097917,2.226828,0.050719,-4.569334,4.039404,0.011157,4.579824,-3.968453,-0.048074,0.556656,-0.069301,20.021038,188.722036,998.898870,1006.887609,0
0.096875,-170.157741,153.164593,36.525190,3.606648,1.950118,-5.120967,2.666260,-1.778934,5.070837,-2.655608,-0.059033,0.555480,-0.058098,10.283128,188.571152,999.291241,1006.264320,0
0.097917,-175.250523,97.749486,108.345265,4.941228,3.686204,-4.902695,0.796844,-3.627836,4.944937,-0.798412,-0.110175,0.554174,-0.046895,2.875078,188.571265,1000.796240,1005.488200,0
0.098958,-176.237321,12.844893,150.804546,5.698998,4.747737,-3.978015,-1.098692,-4.668073,4.030058,0.962722,-0.154011,0.557571,-0.035692,-4.793101,188.571085,1002.870021,1005.565758,0
0.100000,-146.735477,-64.400407,168.691857,6.060918,5.021109,-2.275492,-2.844973,-5.031972,2.456298,2.713183,-0.216112,0.553520,-0.031958,-11.409451,188.721942,1004.208952,1005.013890,0
0.101042,-69.390966,-122.594122,186.308334,6.422838,4.715785,-0.152300,-4.501702,-4.730561,0.345361,4.285751,-0.212459,0.562797,-0.058098,-12.823201,188.571178,1004.527314,1004.495551,0
0.102083,6.705870,-159.791225,167.337690,6.038298,3.718157,1.526411,-4.964392,-3.723405,-1.379479,4.840775,-0.197847,0.548556,-0.080503,-14.723281,188.571073,1005.043735,1003.516745,0
0.103125,77.800663,-180.824079,116.100947,5.110878,1.832959,3.542452,-4.971854,-1.878179,-3.402285,4.833660,-0.234377,0.552083,-0.061832,-15.684631,188.571165,1007.049350,1003.264246,0
0.104167,128.433585,-186.079272,35.712690,3.606648,0.047169,4.657624,-4.173341,-0.040304,-4.648703,4.139879,-0.212459,0.558812,-0.028224,-14.632801,188.722058,1007.529998,1002.705009,0
0.105208,169.845054,-153.158809,-35.873485,2.260758,-1.880632,5.292597,-2.781540,1.775517,-5.169093,2.791455,-0.205153,0.560641,-0.050629,-6.138991,188.571227,1007.968795,1002.145226,0
0.106250,174.790384,-97.864511,-108.198296,0.903558,-3.616718,5.014796,-0.912124,3.591337,-5.030602,0.962722,-0.164970,0.559269,-0.050629,2.377438,188.571093,1009.038637,1001.489818,0
0.107292,175.970004,-12.742462,-150.977652,0.066618,-4.667600,4.078210,0.968487,4.620547,-4.094740,-0.819759,-0.143052,0.561490,-0.054364,8.586628,188.495712,1010.370217,1001.654708,0
0.108333,146.570243,65.070641,-168.754167,-0.306612,-4.933871,2.435217,2.692379,4.999150,-2.537767,-2.541757,-0.099216,0.564103,-0.065566,15.632758,188.702603,1010.778956,1001.212875,0
0.109375,68.806060,123.107304,-186.432198,-0.657222,-4.646299,0.252496,4.360302,4.708765,-0.389060,-4.132114,-0.091910,0.545551,-0.102909,18.087028,188.626932,1011.605810,1001.916148,0
0.110417,-7.245406,159.797009,-167.547728,-0.283992,-3.613168,-1.422247,4.845380,3.672204,1.323191,-4.672907,-0.022503,0.557309,-0.054364,19.116238,188.570937,1011.586549,1002.555185,0
