1-Time,2-VGERA,3-VGERB,4-VGERC,5-VN,6-IGERAN,7-IGERBN,8-IGERCN,9-IGERAT,10-IGERBT,11-IGERCT,12-IN,13-IFD,14-IFAULT,15-VFAULT,16-Speed (rad/s),17-Active Power,18-Reactive Power,19-FAULT 
0.000000,58.892714,92.059381,-200.564773,-0.838182,0.494504,-5.930558,4.886425,-0.106467,6.010897,-4.751180,-0.000585,0.324295,-0.043161,5.928778,188.495521,1497.034080,-908.023877,0
0.001048,12.694710,156.776783,-159.508902,-0.148272,3.025852,-6.359165,2.759544,-2.536138,6.422173,-2.762343,-0.077298,0.305677,-0.058098,6.482968,188.495392,1496.915868,-907.546601,0
0.002084,-36.225495,207.456176,-94.053409,1.061898,5.163120,-5.819438,0.166242,-4.704831,5.935356,-0.278966,-0.113828,0.301366,-0.061832,6.878818,188.495537,1496.365363,-906.678534,0
0.003125,-109.509390,182.146682,-42.816667,2.079798,6.391516,-4.347093,-2.318850,-5.961937,4.546251,2.158159,-0.168623,0.301888,-0.039427,4.662058,188.570933,1496.093600,-906.392275,0
0.004167,-180.048401,133.835147,4.763826,2.973288,6.760745,-2.454079,-4.333790,-6.384648,2.691313,4.157669,-0.223418,0.306592,-0.043161,3.089968,188.495503,1495.864407,-905.261454,0
0.005208,-193.477922,73.539355,64.445644,4.104288,5.802170,0.260433,-5.837532,-5.480414,0.005429,5.595039,-0.296478,0.310838,-0.031958,3.078658,188.495405,1495.246533,-905.180120,0
0.006260,-172.176706,22.292160,147.271402,5.653758,4.467265,2.617772,-6.613657,-4.175523,-2.395079,6.456038,-0.245336,0.331023,-0.039427,2.264338,188.516955,1495.082310,-905.357384,0
0.007306,-117.279003,-27.046252,191.454167,6.535938,2.159585,4.419509,-5.930816,-1.900233,-4.140903,5.797836,-0.241683,0.309270,-0.024490,0.443428,188.515402,1493.795283,-904.913333,0
0.008334,-58.422768,-92.355619,200.674811,6.750828,-0.346912,6.122031,-5.001705,0.672792,-5.962268,4.908374,-0.238030,0.307572,-0.058098,-1.083422,188.501505,1493.307262,-904.379358,0
0.009375,-12.723834,-155.913255,160.332955,5.947818,-2.807255,6.503015,-2.904675,3.098787,-6.365150,2.965790,-0.212459,0.331154,-0.050629,-1.603682,188.503170,1492.946758,-903.863912,0
0.010417,36.377851,-207.679929,93.867993,4.703718,-5.019078,5.995036,-0.300179,5.322616,-5.932891,0.446834,-0.128440,0.295160,-0.076769,-1.818572,188.501874,1492.987728,-903.314989,0
0.011458,109.786514,-181.718066,42.951326,3.731058,-6.155167,4.518723,2.207301,6.535613,-4.522802,-1.912018,-0.099216,0.301105,-0.046895,-0.031592,188.502182,1492.528557,-902.564447,0
0.012500,180.166730,-133.563583,-4.739962,2.781018,-6.559899,2.605866,4.229704,7.009785,-2.655274,-3.968453,-0.044421,0.308748,-0.043161,1.619668,188.509902,1493.354999,-902.538805,0
0.013542,192.836303,-73.340276,-64.791099,1.672638,-5.651028,-0.092771,5.740909,6.054090,0.055790,-5.409381,-0.018850,0.314627,-0.024490,1.811938,188.362614,1493.226567,-902.391536,0
0.014583,171.932074,-22.866259,-146.865910,0.179718,-4.404880,-2.402487,6.528228,4.756550,2.393347,-6.259707,0.003068,0.323707,-0.031958,2.614948,188.515138,1493.647680,-903.513054,0
0.015636,117.238537,27.245331,-191.614963,-0.702462,-2.004892,-4.267721,5.811805,2.470234,4.214712,-5.622852,-0.007891,0.344938,-0.031958,4.401928,188.516427,1493.669581,-904.206558,0
0.016676,57.622354,94.064811,-200.158523,-0.906042,0.601012,-5.974212,4.867768,-0.172631,6.044470,-4.758295,-0.011544,0.328018,-0.017021,5.996638,188.506136,1494.307302,-904.225092,0
0.017717,11.753282,157.948631,-158.253220,-0.125652,3.036503,-6.375039,2.767007,-2.536138,6.447353,-2.740996,-0.037115,0.285100,-0.024490,6.550828,188.426870,1494.754838,-903.691681,0
0.018753,-36.928730,207.975655,-92.883902,1.118448,5.237676,-5.847218,0.151317,-4.763643,6.031880,-0.232714,-0.143052,0.303456,-0.054364,6.878818,188.503541,1496.103896,-904.309722,0
0.019795,-110.825121,181.168129,-42.065720,2.113728,6.416368,-4.339156,-2.356164,-5.991343,4.546251,2.168832,-0.157664,0.302672,-0.073035,4.763848,188.498391,1496.616169,-903.944943,0
0.020838,-180.672239,133.496881,5.699432,2.984598,6.750094,-2.394550,-4.393492,-6.447136,2.657739,4.182574,-0.234377,0.309205,-0.039427,3.214378,188.495640,1497.417072,-904.374367,0
0.021878,-193.024222,73.430627,65.922917,4.115598,5.848324,0.312024,-5.878577,-5.513496,-0.074308,5.655522,-0.278213,0.314104,-0.031958,3.112588,188.367021,1498.004184,-905.403194,0
0.022924,-172.369528,22.292160,147.480682,5.653758,4.509869,2.613803,-6.658434,-4.215956,-2.390882,6.470269,-0.270907,0.324818,-0.046895,2.207788,188.511511,1498.699203,-905.360625,0
0.023970,-116.904701,-27.154980,192.205114,6.524628,2.156034,4.475069,-6.001712,-1.944342,-4.199657,5.829857,-0.292825,0.330436,-0.020755,0.488668,188.495863,1499.841840,-905.695466,0
0.025006,-58.048466,-93.648276,200.219319,6.682968,-0.410817,6.197434,-4.990511,0.764686,-6.004235,4.983089,-0.252642,0.300974,-0.054364,-1.185212,188.495423,1500.899194,-906.440608,0
0.026050,-11.805091,-157.906604,158.006250,5.925198,-2.906662,6.538732,-2.871093,3.212735,-6.381937,2.901749,-0.186888,0.307506,-0.046895,-1.705472,188.495258,1500.914426,-906.995051,0
0.027089,37.126456,-208.006113,92.452273,4.692408,-5.040380,5.955351,-0.266597,5.410834,-5.953875,0.436161,-0.121134,0.298688,-0.028224,-1.818572,188.495307,1501.726453,-907.343431,0
0.028128,110.296927,-181.017373,41.757197,3.708438,-6.222622,4.518723,2.248346,6.568695,-4.526999,-1.983175,-0.095563,0.304697,-0.061832,0.081508,188.495376,1501.939014,-907.686418,0
0.029170,180.359552,-132.826647,-5.786364,2.792328,-6.570550,2.637615,4.203584,6.980379,-2.667864,-3.975569,-0.029809,0.313974,-0.076769,1.721458,188.495450,1501.996261,-906.968764,0
0.030208,192.688850,-73.279872,-65.578977,1.683948,-5.651028,-0.092771,5.770760,6.002629,0.013823,-5.427171,-0.044421,0.314300,-0.043161,1.834558,188.420231,1501.982241,-906.524394,0
0.031250,171.966102,-23.035392,-147.185985,0.134478,-4.351626,-2.394550,6.520765,4.738171,2.393347,-6.241917,0.003068,0.325079,-0.028224,2.603638,188.495481,1501.738148,-906.531082,0
0.032292,118.384129,26.423829,-191.060985,-0.736392,-2.008442,-4.228035,5.845387,2.551100,4.176942,-5.658431,-0.000585,0.332787,-0.031958,4.390618,188.420150,1502.414141,-906.237920,0
0.033346,57.531614,95.043364,-199.813826,-0.883422,0.604563,-5.950401,4.808066,-0.161603,6.044470,-4.697812,-0.055380,0.317632,-0.050629,5.917468,188.495588,1502.033113,-905.918321,0
0.034385,11.401665,158.286896,-157.539205,-0.114342,3.075556,-6.323448,2.722230,-2.620680,6.355025,-2.698302,-0.080951,0.309989,-0.039427,6.539518,188.495508,1500.730293,-906.183254,0
0.035417,-37.212292,208.072302,-92.120644,1.107138,5.205723,-5.740066,0.121466,-4.748940,5.926963,-0.172231,-0.128440,0.303195,-0.020755,6.890128,188.495539,1499.161223,-906.043265,0
0.036458,-110.303366,181.397666,-41.167046,2.136348,6.345363,-4.307407,-2.359895,-5.954586,4.491694,2.183064,-0.157664,0.297446,-0.058098,4.673368,188.498034,1498.210635,-905.852813,0
0.037500,-180.524786,132.784108,5.773295,3.018528,6.750094,-2.402487,-4.307671,-6.417730,2.649346,4.171900,-0.227071,0.308421,-0.046895,3.123898,188.495434,1497.667843,-905.361785,0
0.038542,-192.978852,72.814501,65.849053,4.138218,5.791519,0.292181,-5.856189,-5.454684,-0.007161,5.595039,-0.238030,0.313843,-0.043161,3.112588,188.495542,1497.015562,-903.821829,0
0.039583,-172.222076,23.331118,147.677652,5.665068,4.513419,2.597929,-6.628583,-4.197577,-2.340522,6.416901,-0.241683,0.319918,-0.039427,2.264338,188.495577,1496.306892,-903.274189,0
0.040625,-118.889638,-26.164346,190.961743,6.535938,2.187987,4.387760,-5.919622,-2.025209,-4.082150,5.790720,-0.245336,0.334028,-0.050629,0.420808,188.495510,1495.744592,-902.151129,0
0.041667,-59.069291,-93.612033,200.280872,6.694278,-0.403716,6.137905,-4.919615,0.672792,-5.966465,4.901259,-0.241683,0.321551,-0.024490,-1.128662,188.495475,1494.966660,-901.422159,0
0.042708,-12.202079,-157.000536,159.028031,5.925198,-2.835657,6.491109,-2.856168,3.128193,-6.352560,2.891075,-0.197847,0.310969,-0.035692,-1.637612,188.420169,1494.358956,-900.876483,0
0.043750,37.341963,-207.981951,92.439962,4.681098,-5.026179,5.955351,-0.236746,5.304237,-5.920301,0.379235,-0.132093,0.304371,-0.035692,-1.852502,188.495512,1493.223220,-900.141467,0
0.044792,110.455722,-180.981131,41.067803,3.685818,-6.204871,4.471100,2.255809,6.553992,-4.459852,-1.976059,-0.099216,0.296401,-0.024490,0.013648,188.495412,1492.535423,-899.845137,0
0.045835,180.609087,-131.908499,-6.241856,2.781018,-6.570550,2.613803,4.222241,6.987731,-2.571340,-3.979127,-0.026156,0.305416,-0.050629,1.687528,188.495579,1491.813169,-900.118577,0
0.046875,192.496028,-71.636869,-66.034470,1.683948,-5.640377,-0.112614,5.759566,6.032035,0.068380,-5.444960,0.010374,0.314823,-0.009553,1.845868,188.495448,1492.003162,-900.083297,0
0.047917,171.659854,-22.177648,-147.555303,0.089238,-4.330324,-2.418361,6.509571,4.734496,2.368167,-6.252591,0.006721,0.315933,0.020321,2.626258,188.495454,1492.284373,-899.471580,0
0.048958,117.987142,26.798337,-191.282576,-0.725082,-1.994241,-4.239941,5.819267,2.506991,4.172745,-5.644199,-0.029809,0.331350,-0.013287,4.379308,188.495472,1491.880021,-899.478588,0
0.050000,58.904057,94.076892,-199.961554,-0.872112,0.576160,-5.994055,4.800603,-0.121170,6.010897,-4.761853,-0.007891,0.320114,-0.035692,6.007948,188.495555,1492.236285,-899.441432,0
0.051042,12.535915,157.900308,-158.339394,-0.114342,3.054255,-6.355196,2.722230,-2.605977,6.401189,-2.726765,-0.040768,0.315019,-0.031958,6.460348,188.495524,1492.761974,-900.089981,0
0.052083,-37.643307,207.999816,-92.292993,1.095828,5.255427,-5.835312,0.102809,-4.767318,5.973126,-0.193578,-0.121134,0.305155,-0.035692,6.856198,188.498886,1493.614897,-900.102850,0
0.053125,-111.369561,180.769459,-40.834659,2.091108,6.405717,-4.295501,-2.419597,-6.006046,4.508481,2.190179,-0.190541,0.296728,-0.054364,4.707298,188.481479,1494.444679,-900.120868,0
0.054167,-180.819691,132.445843,6.622727,3.007218,6.696840,-2.374707,-4.356178,-6.443460,2.607379,4.221710,-0.223418,0.303718,-0.031958,3.169138,188.495872,1494.676610,-900.737079,0
0.055208,-192.786029,71.340630,66.526137,4.149528,5.805720,0.331867,-5.900965,-5.473062,-0.065915,5.666196,-0.241683,0.308878,-0.035692,3.112588,188.495761,1495.096745,-901.304406,0
0.056250,-171.961198,21.736438,147.382197,5.687688,4.556022,2.641583,-6.617388,-4.157144,-2.390882,6.456038,-0.267254,0.321617,-0.035692,2.207788,188.495921,1494.989927,-901.643173,0
0.057292,-117.097523,-26.732148,191.700379,6.524628,2.163135,4.467132,-5.983056,-1.977424,-4.161887,5.812067,-0.245336,0.329325,-0.043161,0.466048,188.496006,1495.245023,-902.176212,0
0.058333,-58.740358,-93.962379,200.046970,6.728208,-0.417917,6.189497,-4.953198,0.702198,-5.949678,4.929721,-0.227071,0.316129,-0.002084,-1.185212,188.495899,1495.384115,-902.035176,0
0.059375,-12.689806,-158.003251,158.178599,5.879958,-2.881811,6.534764,-2.815123,3.157599,-6.390331,2.912422,-0.175929,0.313778,-0.020755,-1.716782,188.495884,1496.117550,-902.340133,0
0.060417,37.636868,-207.812819,92.698485,4.692408,-5.043930,5.995036,-0.184507,5.329967,-5.932891,0.375678,-0.132093,0.303522,-0.035692,-1.886432,188.495843,1496.366576,-902.658008,0
0.061458,111.397149,-180.594542,41.314015,3.651888,-6.208421,4.427446,2.326705,6.583398,-4.472442,-2.000964,-0.069992,0.300125,-0.054364,0.081508,188.495828,1496.874797,-902.998453,0
0.062500,180.643115,-132.186360,-6.500379,2.781018,-6.574100,2.534431,4.214778,7.009785,-2.579734,-3.986243,-0.040768,0.307180,-0.046895,1.755388,188.495917,1497.308313,-903.154301,0
0.063542,192.405288,-70.912014,-66.502273,1.661328,-5.569371,-0.152300,5.737177,5.984251,0.068380,-5.434286,0.014027,0.308094,-0.050629,1.891108,188.420537,1496.840096,-902.636631,0
0.064583,171.398977,-20.752101,-147.666099,0.134478,-4.269969,-2.386613,6.464794,4.683035,2.401741,-6.217013,0.017680,0.297838,-0.028224,2.648878,188.495906,1496.106553,-902.342607,0
0.065625,116.592014,27.450706,-191.541099,-0.736392,-1.976490,-4.224067,5.826730,2.426125,4.193729,-5.597947,-0.037115,0.316717,-0.054364,4.458478,188.420596,1495.074192,-902.334622,0
0.066667,57.611012,94.439319,-199.949243,-0.883422,0.579711,-5.918652,4.822992,-0.187334,5.973126,-4.690696,-0.004238,0.332003,-0.028224,5.928778,188.495807,1493.848193,-902.161400,0
0.067708,11.775967,157.924469,-158.240910,-0.125652,3.032953,-6.307573,2.684917,-2.587599,6.334042,-2.676955,-0.055380,0.304371,-0.031958,6.516898,188.495825,1492.828588,-901.532851,0
0.068751,-38.187747,207.927331,-92.600758,1.084518,5.184422,-5.732129,0.106540,-4.730561,5.926963,-0.175789,-0.128440,0.302999,-0.061832,6.856198,188.487794,1492.191317,-901.196099,0
0.069792,-111.891316,180.793621,-41.080871,2.057178,6.338262,-4.247878,-2.427060,-5.910477,4.432940,2.207969,-0.168623,0.300713,-0.024490,4.650748,188.473188,1490.762983,-900.849734,0
0.070833,-181.341446,132.409600,6.770455,2.995908,6.675538,-2.331052,-4.337521,-6.311133,2.594789,4.154111,-0.234377,0.306984,-0.054364,3.067348,188.492658,1489.466631,-899.491638,0
0.071875,-192.808714,71.437278,66.920076,4.126908,5.745366,0.359647,-5.848726,-5.399547,-0.091095,5.619944,-0.234377,0.308944,-0.046895,3.078658,188.360970,1488.388791,-899.210048,0
0.072917,-171.666293,21.337769,147.936175,5.665068,4.428212,2.609834,-6.546492,-4.090980,-2.378292,6.399112,-0.274560,0.325471,-0.043161,2.230408,188.518422,1487.391603,-898.661260,0
0.073958,-116.655166,-27.505326,191.441857,6.524628,2.109881,4.439352,-5.882309,-1.848773,-4.132510,5.730237,-0.238030,0.332591,-0.054364,0.477358,188.497509,1485.397296,-898.627168,0
0.075000,-57.061668,-94.590586,199.936175,6.660348,-0.428568,6.149811,-4.878570,0.746307,-5.907711,4.883469,-0.252642,0.298100,-0.039427,-1.094732,188.495698,1484.613665,-897.940849,0
0.076042,-11.271994,-157.773714,157.944697,5.913888,-2.839207,6.439518,-2.796466,3.164950,-6.289610,2.862612,-0.201500,0.315933,-0.065566,-1.637612,188.571259,1483.249360,-897.124237,0
0.077083,38.385473,-207.873223,92.489205,4.692408,-4.994226,5.872010,-0.206895,5.340994,-5.853154,0.411256,-0.146705,0.301039,-0.002084,-1.852502,188.495852,1482.902446,-896.524241,0
0.078125,111.964274,-180.497895,41.424811,3.719748,-6.140966,4.383791,2.308048,6.520910,-4.396901,-1.997406,-0.077298,0.301039,-0.031958,0.013648,188.495897,1481.791475,-896.129025,0
0.079167,181.278295,-132.222602,-6.721970,2.747088,-6.513745,2.506651,4.199853,6.914216,-2.567143,-3.979127,-0.055380,0.307506,-0.054364,1.664908,188.495870,1481.019511,-895.651525,0
0.080208,192.303205,-71.455655,-67.290152,1.604778,-5.523218,-0.223734,5.722252,5.954845,0.139723,-5.427171,0.032292,0.310969,-0.076769,1.845868,188.495846,1480.483269,-896.327396,0
0.081250,171.467032,-20.800425,-148.010796,0.157098,-4.252218,-2.446141,6.412555,4.668332,2.452101,-6.177876,0.006721,0.319069,-0.073035,2.660188,188.495854,1480.043469,-896.698895,0
0.082292,116.206369,28.199722,-191.848864,-0.713772,-1.916135,-4.224067,5.752103,2.422449,4.197925,-5.530348,-0.022503,0.325014,-0.031958,4.413238,188.495892,1479.544637,-896.235316,0
0.083333,56.646899,95.164173,-199.776895,-0.838182,0.629415,-5.962307,4.759558,-0.165279,6.010897,-4.644444,-0.026156,0.300125,-0.035692,6.041878,188.495911,1479.617767,-895.861153,0
0.084375,10.732457,158.721809,-157.046781,-0.103032,3.068456,-6.331385,2.714768,-2.635383,6.392796,-2.659166,-0.077298,0.320898,-0.031958,6.505588,188.495861,1480.297748,-896.029158,0
0.085417,-38.675475,207.999816,-91.726705,1.129758,5.212824,-5.748003,0.035644,-4.785697,5.876602,-0.136652,-0.099216,0.292612,-0.054364,6.878818,188.495875,1479.822517,-896.428079,0
0.086458,-112.798716,180.298304,-40.822349,2.102418,6.377315,-4.232004,-2.430791,-5.950910,4.449727,2.207969,-0.150358,0.298818,-0.028224,4.695988,188.495803,1480.561748,-896.362072,0
0.087500,-181.522926,132.566652,7.373674,3.018528,6.679089,-2.315178,-4.359910,-6.369945,2.598985,4.175458,-0.194194,0.307768,-0.073035,3.157828,188.495902,1481.480308,-896.741242,0
0.088542,-192.559179,71.848028,68.040341,4.194768,5.773768,0.411239,-5.927085,-5.406899,-0.086898,5.655522,-0.289172,0.311883,-0.035692,3.078658,188.495866,1482.085388,-896.990081,0
0.089583,-172.074623,21.168636,148.145455,5.653758,4.414011,2.649520,-6.546492,-4.127738,-2.428653,6.452480,-0.274560,0.325275,-0.050629,2.173858,188.495879,1483.094284,-897.856585,0
0.090625,-116.246836,-27.940239,192.205114,6.524628,2.127632,4.498880,-5.942011,-1.867152,-4.203854,5.783605,-0.245336,0.329586,-0.031958,0.454738,188.495968,1484.392194,-898.484039,0
0.091667,-57.004956,-95.097984,199.726895,6.671658,-0.471172,6.157748,-4.874839,0.775713,-5.987448,4.837217,-0.208806,0.305873,-0.043161,-1.185212,188.495803,1484.399560,-899.408346,0
0.092708,-10.750239,-158.824753,156.812122,5.879958,-2.888911,6.459361,-2.777809,3.234790,-6.356757,2.866170,-0.201500,0.307572,-0.046895,-1.739402,188.495892,1485.387356,-899.963337,0
0.093750,38.793803,-207.909466,91.245834,4.703718,-5.033279,5.879948,-0.177044,5.359373,-5.832170,0.347215,-0.143052,0.316587,-0.046895,-1.863812,188.495826,1484.877558,-900.118289,0
0.094792,112.497372,-180.099225,40.526136,3.719748,-6.215522,4.395697,2.296854,6.579722,-4.350738,-2.079237,-0.066339,0.297773,-0.024490,0.070198,188.495897,1484.773859,-901.135084,0
0.095833,181.198897,-131.908499,-7.435985,2.792328,-6.503094,2.482840,4.192390,6.928919,-2.520980,-3.993358,-0.040768,0.310446,-0.017021,1.744078,188.495881,1484.631027,-901.362237,0
0.096875,192.167095,-71.564383,-68.225758,1.582158,-5.555170,-0.219766,5.748371,5.962196,0.127133,-5.409381,-0.015197,0.313778,-0.035692,1.834558,188.420401,1484.962097,-900.923861,0
0.097917,171.557772,-21.066204,-148.527841,0.077928,-4.227366,-2.469953,6.408824,4.653629,2.443708,-6.177876,0.003068,0.322858,-0.043161,2.671498,188.495955,1485.004873,-901.001761,0
0.098958,116.387849,28.380936,-192.107387,-0.770322,-1.898383,-4.263753,5.707326,2.400394,4.189532,-5.569484,-0.011544,0.331285,-0.039427,4.447168,188.420352,1485.402357,-901.254311,0
0.100000,56.998517,95.768218,-199.518372,-0.906042,0.632965,-5.926589,4.714782,-0.205712,5.939553,-4.633771,-0.048074,0.318677,-0.028224,5.917468,188.495948,1484.733971,-901.023125,0
0.101042,10.256072,158.854699,-156.800569,-0.103032,3.072006,-6.252013,2.662529,-2.620680,6.367616,-2.605798,-0.080951,0.311426,-0.050629,6.516898,188.495821,1484.054836,-900.753933,0
0.102083,-39.174545,208.036059,-90.778788,1.141068,5.195072,-5.676569,0.043107,-4.763643,5.876602,-0.118863,-0.143052,0.297708,-0.028224,6.867508,188.495868,1483.991242,-900.187234,0
0.103125,-112.673948,180.237899,-39.443561,2.125038,6.313410,-4.196287,-2.408403,-5.881071,4.374186,2.250663,-0.186888,0.296271,-0.061832,4.707298,188.571328,1482.608836,-899.804285,0
0.104167,-181.727091,131.443128,8.001515,3.075078,6.629385,-2.307241,-4.296476,-6.278052,2.582199,4.154111,-0.197847,0.305351,-0.065566,3.067348,188.495921,1481.567082,-898.663465,0
0.105208,-192.411727,71.159417,68.495834,4.194768,5.716963,0.359647,-5.818875,-5.333384,-0.116275,5.609270,-0.270907,0.312014,-0.020755,3.101278,188.496007,1480.419569,-898.082519,0
0.106250,-171.768376,21.555225,148.822538,5.710308,4.403360,2.637615,-6.524104,-4.079953,-2.407669,6.356418,-0.256295,0.321029,-0.046895,2.219098,188.495884,1479.198757,-897.381345,0
0.107303,-115.543601,-29.269138,192.919129,6.524628,1.971420,4.475069,-5.841264,-1.793637,-4.229034,5.676869,-0.252642,0.329848,-0.035692,0.375568,188.495901,1478.022660,-897.333446,0
0.108343,-56.778106,-97.345032,198.963637,6.637728,-0.567029,6.094251,-4.770360,0.841876,-5.962268,4.762503,-0.259948,0.317109,-0.024490,-1.117352,188.495910,1477.290841,-897.253364,0
0.109375,-10.443991,-158.909319,156.652084,5.868648,-2.885361,6.427612,-2.725570,3.190681,-6.289610,2.762993,-0.201500,0.312994,-0.050629,-1.671542,188.495890,1475.673899,-896.795131,0
0.110417,39.440326,-208.006113,90.901137,4.669788,-5.036829,5.844230,-0.162119,5.337319,-5.794400,0.300963,-0.154011,0.303064,-0.058098,-1.795952,188.495881,1475.062472,-896.637230,0
0.111458,112.724222,-179.930092,39.455114,3.685818,-6.133865,4.352043,2.281929,6.491504,-4.342344,-2.057890,-0.069992,0.297446,-0.043161,0.058888,188.495830,1474.542723,-895.237609,0
