1-Time,2-VGERA,3-VGERB,4-VGERC,5-VN,6-IGERAN,7-IGERBN,8-IGERCN,9-IGERAT,10-IGERBT,11-IGERCT,12-IN,13-IFD,14-IFAULT,15-VFAULT,16-Speed (rad/s),17-Active Power,18-Reactive Power,19-FAULT 
0.000000,-84.260984,-59.942554,205.315910,6.784758,0.732373,5.423560,-5.356185,-0.459339,-5.211060,5.324642,-0.234377,0.324099,-0.039427,-56.920890,188.495850,1493.545819,-889.686354,0
0.001042,-32.743347,-141.065824,180.177652,6.377598,-1.795425,6.463329,-3.833787,2.106334,-6.230856,3.819673,-0.205153,0.314953,-0.035692,-20.989021,188.345127,1494.183318,-890.487390,0
0.002083,17.027545,-188.857880,126.712690,5.325768,-3.847486,6.046628,-1.483023,4.150051,-5.987448,1.656502,-0.194194,0.319461,-0.069301,8.654488,188.269798,1493.703439,-890.581580,0
0.003125,80.171245,-200.624681,62.882197,4.092978,-5.846293,5.201320,1.203563,6.134956,-5.097749,-1.051019,-0.110175,0.305285,-0.050629,44.642907,188.420519,1494.313910,-891.442837,0
0.004167,149.814198,-166.073295,9.885038,3.075078,-6.368184,3.340054,3.330444,6.792916,-3.381302,-3.132359,-0.048074,0.308356,-0.054364,91.127006,188.495978,1494.446546,-891.935059,0
0.005208,196.341135,-98.637689,-38.963447,2.125038,-5.970553,0.887469,5.184935,6.318744,-0.964007,-4.865031,-0.007891,0.314300,-0.046895,124.740326,188.420566,1493.995605,-891.848884,0
0.006250,187.856945,-43.633333,-113.639584,0.711288,-4.855765,-1.402404,6.073001,5.355697,1.331584,-5.846996,-0.007891,0.324426,-0.046895,122.795006,188.269774,1493.632213,-890.588955,0
0.007292,141.602228,6.949412,-180.757008,-0.555432,-3.155182,-3.434319,6.293151,3.536201,3.413144,-6.014215,0.017680,0.317828,-0.054364,98.896976,188.420488,1493.260434,-889.471466,0
0.008333,83.074925,60.709435,-205.378220,-0.996522,-0.559929,-5.172558,5.211054,1.080800,5.226115,-5.121196,-0.004238,0.283597,-0.035692,60.228087,188.495926,1493.149566,-888.014123,0
0.009375,31.035533,140.962880,-179.821402,-0.532812,1.950118,-6.236139,3.699849,-1.503252,6.220731,-3.641131,-0.062686,0.311361,-0.046895,25.789138,188.420528,1492.429830,-887.808844,0
0.010417,-17.986754,189.274415,-125.827084,0.439848,3.916972,-5.878966,1.423714,-3.557997,6.069650,-1.492192,-0.102869,0.335531,-0.050629,-3.944851,188.269729,1491.919754,-887.434171,0
0.011458,-80.143657,200.594222,-61.836553,1.650018,5.894477,-4.954286,-1.292724,-5.454684,5.075034,1.176193,-0.135746,0.301431,-0.039427,-40.057681,188.420515,1491.087972,-886.213375,0
0.012500,-150.104200,166.429426,-9.504167,2.656608,6.526427,-3.172392,-3.449455,-6.208212,3.442521,3.303785,-0.212459,0.306853,-0.050629,-85.422090,188.495922,1490.924627,-885.913790,0
0.013542,-196.324889,99.477056,39.110417,3.617958,6.142997,-0.711870,-5.326334,-5.741392,1.004242,5.047130,-0.248989,0.316848,-0.035692,-120.324749,188.420564,1490.388943,-885.726084,0
0.014583,-188.351111,45.076745,114.069697,5.054328,5.024659,1.542285,-6.251714,-4.811427,-1.287152,6.018422,-0.267254,0.324818,-0.050629,-116.083499,188.269722,1489.920771,-885.668139,0
0.015625,-142.357272,-6.049641,180.731629,6.332358,3.345377,3.625792,-6.412163,-3.025013,-3.360318,6.199873,-0.263601,0.334812,-0.043161,-93.825419,188.420528,1489.465984,-884.892594,0
0.016667,-84.680657,-60.304981,205.439016,6.784758,0.721722,5.332283,-5.337529,-0.466691,-5.152306,5.278390,-0.230724,0.335531,-0.046895,-55.280940,188.496020,1488.841669,-884.307196,0
0.017708,-32.164880,-140.787963,180.029925,6.298428,-1.798976,6.403801,-3.871100,2.084280,-6.209873,3.784095,-0.216112,0.316260,-0.054364,-20.683651,188.420511,1488.239988,-883.793707,0
0.018750,17.458560,-189.244469,126.207955,5.314458,-3.797782,6.042659,-1.497949,4.094915,-6.046202,1.631597,-0.154011,0.320506,-0.046895,8.190778,188.269830,1488.767097,-883.292117,0
0.019792,80.137218,-200.564276,62.045076,4.059048,-5.828541,5.193383,1.244608,6.098199,-5.097749,-1.015441,-0.084604,0.303064,-0.031958,45.072687,188.420553,1488.739793,-882.244289,0
0.020833,149.791513,-165.952486,9.355682,3.131628,-6.364633,3.328148,3.345369,6.844376,-3.398089,-3.150149,-0.055380,0.304763,-0.050629,89.837666,188.495926,1489.450449,-882.479931,0
0.021875,196.273080,-97.792026,-39.049621,2.125038,-6.009606,0.899375,5.211054,6.322420,-0.972400,-4.900609,-0.029809,0.312928,-0.050629,125.192726,188.420591,1489.634022,-882.456962,0
0.022917,187.777548,-43.041369,-113.861175,0.767838,-4.901919,-1.426215,6.076732,5.374076,1.331584,-5.896806,0.006721,0.318024,-0.058098,121.030646,188.269754,1490.333172,-882.587729,0
0.023959,140.967048,6.949412,-181.335607,-0.589362,-3.208436,-3.501785,6.308077,3.525174,3.476094,-6.092488,0.017680,0.337621,-0.043161,98.048726,188.420472,1491.208779,-883.585721,0
0.025000,83.142980,60.914810,-205.439773,-0.985212,-0.549278,-5.220181,5.274487,0.999934,5.276475,-5.149658,-0.051727,0.324230,-0.069301,60.861447,188.420486,1491.381389,-884.867235,0
0.026042,31.772796,141.905191,-179.612122,-0.544122,1.953668,-6.279793,3.755820,-1.543686,6.317255,-3.673152,-0.059033,0.315868,-0.043161,25.642108,188.420405,1492.723350,-886.066195,0
0.027084,-17.759904,189.238173,-126.097917,0.507708,3.941824,-5.922621,1.375206,-3.565348,6.128404,-1.499308,-0.091910,0.319265,-0.069301,-3.650791,188.269801,1493.402223,-886.470688,0
0.028125,-81.311934,200.642546,-62.279735,1.638708,5.986784,-5.049532,-1.371082,-5.557605,5.133788,1.190424,-0.146705,0.302215,-0.005818,-40.702351,188.420468,1495.039543,-887.486737,0
0.029167,-150.240310,165.801219,-9.824242,2.679228,6.554829,-3.168424,-3.542740,-6.259673,3.434127,3.296670,-0.194194,0.307310,-0.039427,-86.349510,188.420455,1495.292167,-887.670415,0
0.030209,-197.220947,98.570988,39.147349,3.617958,6.217553,-0.676153,-5.430813,-5.759771,0.995849,5.150308,-0.230724,0.313974,-0.050629,-119.849729,188.420598,1496.132733,-888.667703,0
0.031250,-187.489081,44.134434,114.168182,5.065638,5.074363,1.629594,-6.255446,-4.807752,-1.329119,6.100253,-0.252642,0.322074,-0.054364,-117.429389,188.269857,1496.424726,-889.264334,0
0.032292,-141.052884,-6.327502,181.827273,6.264498,3.327626,3.713101,-6.460671,-2.999283,-3.448449,6.295935,-0.227071,0.335596,-0.058098,-94.515329,188.420595,1497.504840,-890.436875,0
0.033334,-83.160762,-60.534518,205.069698,6.750828,0.661367,5.459278,-5.359917,-0.451988,-5.219453,5.331758,-0.227071,0.333244,-0.046895,-55.733340,188.420582,1498.271634,-890.560851,0
0.034375,-31.087342,-141.790678,179.771402,6.332358,-1.855780,6.554607,-3.856175,2.187201,-6.306397,3.805442,-0.208806,0.302280,-0.065566,-19.767541,188.495892,1499.566352,-891.759947,0
0.035417,17.753465,-188.857880,125.309281,5.269218,-3.882989,6.098220,-1.468098,4.216215,-6.037808,1.592461,-0.172276,0.302738,-0.058098,8.925928,188.269639,1499.228014,-892.911763,0
0.036458,80.829110,-201.047512,61.577273,4.104288,-5.881796,5.193383,1.211026,6.204796,-5.127126,-1.083040,-0.113828,0.299210,-0.024490,45.095307,188.345167,1500.311248,-894.393541,0
0.037500,149.576006,-164.961852,9.651136,3.109008,-6.414337,3.391645,3.382683,6.899513,-3.356122,-3.178611,-0.018850,0.308094,-0.058098,91.364516,188.420529,1500.017901,-895.080537,0
0.038542,197.373303,-98.033644,-39.098864,2.181588,-6.048659,0.907312,5.248368,6.388583,-0.938827,-4.968208,-0.029809,0.315933,-0.065566,125.226656,188.496027,1501.223288,-896.481572,0
0.039584,187.040285,-44.297783,-114.439773,0.756528,-4.912570,-1.406372,6.106583,5.366725,1.352568,-5.918153,0.014027,0.323968,-0.054364,122.455706,188.269789,1501.113461,-897.153844,0
0.040625,141.284638,5.850050,-182.258902,-0.566742,-3.197785,-3.513690,6.352853,3.576634,3.492881,-6.152971,-0.011544,0.330762,-0.054364,98.908286,188.420535,1502.425385,-897.857647,0
0.041667,84.390655,61.035619,-204.811932,-1.030452,-0.503124,-5.267804,5.240905,0.974203,5.255492,-5.135427,0.006721,0.339581,-0.050629,60.601317,188.420564,1501.872859,-898.224256,0
0.042708,31.738768,142.485074,-179.550569,-0.566742,1.985621,-6.323448,3.714775,-1.576767,6.329845,-3.669594,-0.037115,0.321486,-0.013287,25.461148,188.495892,1502.081026,-898.624385,0
0.043750,-17.714534,189.117363,-125.310038,0.451158,3.998629,-5.871029,1.308041,-3.591078,6.107421,-1.428151,-0.084604,0.319526,-0.039427,-3.865681,188.269758,1501.156390,-899.098155,0
0.044792,-81.572812,201.077458,-61.417993,1.695258,6.043589,-5.009847,-1.397202,-5.575983,5.179951,1.243792,-0.154011,0.302280,-0.013287,-40.589251,188.420611,1501.820957,-899.505060,0
0.045834,-150.160912,165.136769,-9.073295,2.701848,6.572580,-3.156518,-3.542740,-6.278052,3.421537,3.325132,-0.194194,0.304893,-0.020755,-85.489950,188.420600,1501.827314,-899.556112,0
0.046875,-197.958209,97.338736,39.245833,3.584028,6.203351,-0.652341,-5.404693,-5.807556,0.991652,5.168097,-0.219765,0.311687,-0.073035,-120.969419,188.495971,1502.628936,-899.486208,0
0.047917,-187.058066,43.252528,114.512879,5.054328,5.067262,1.629594,-6.315148,-4.789373,-1.366889,6.118042,-0.238030,0.332134,-0.039427,-115.529309,188.269778,1502.500285,-899.616641,0
0.048958,-140.304279,-6.508715,182.504357,6.321048,3.366679,3.748818,-6.471865,-3.036040,-3.473629,6.292377,-0.270907,0.324556,-0.024490,-93.327780,188.420437,1502.987657,-899.379836,0
0.050000,-82.877199,-60.812379,204.995834,6.739518,0.654267,5.487058,-5.389768,-0.378473,-5.290797,5.324642,-0.267254,0.286210,-0.084238,-54.817230,188.420495,1502.870520,-900.602602,0
0.051042,-31.144055,-142.551775,179.722160,6.343668,-1.884182,6.566513,-3.908414,2.172498,-6.344167,3.823231,-0.172276,0.324360,-0.061832,-20.559241,188.495975,1503.711109,-900.607570,0
0.052084,17.458560,-189.147822,125.518561,5.280528,-3.854587,6.126000,-1.497949,4.201512,-6.092365,1.620924,-0.164970,0.334747,-0.054364,7.749688,188.269856,1504.583861,-900.611153,0
0.053125,81.906648,-201.119998,62.303599,4.115598,-5.952801,5.284660,1.259533,6.248905,-5.185880,-1.086597,-0.095563,0.305873,-0.024490,45.751287,188.420537,1505.878532,-901.090510,0
0.054167,150.199843,-164.828962,10.155871,3.109008,-6.492444,3.359897,3.408802,6.921567,-3.465236,-3.214190,-0.051727,0.312014,-0.024490,90.323996,188.420571,1507.306362,-901.160894,0
0.055208,198.394128,-97.731621,-39.209659,2.147658,-6.148067,0.891438,5.326727,6.498856,-0.938827,-5.050039,-0.037115,0.317436,-0.031958,126.233246,188.495893,1509.259956,-902.291533,0
0.056250,186.609270,-43.790385,-114.969129,0.688668,-4.937422,-1.469870,6.218524,5.381428,1.440698,-6.007100,0.010374,0.325601,-0.024490,120.431216,188.269415,1509.919470,-903.651851,0
0.057292,140.014278,6.212477,-183.576137,-0.555432,-3.201336,-3.612905,6.390167,3.572959,3.547438,-6.209897,0.017680,0.339385,-0.039427,97.539776,188.420495,1510.880986,-904.099198,0
0.058334,82.768678,61.373884,-204.947349,-0.973902,-0.478272,-5.359082,5.296876,0.952149,5.385589,-5.178121,-0.000585,0.339712,-0.046895,59.775687,188.420587,1512.017640,-904.960851,0
0.059375,30.751971,143.475708,-179.636743,-0.578052,2.074378,-6.434568,3.774477,-1.584119,6.476730,-3.708731,-0.037115,0.305743,-0.050629,23.990848,188.495835,1514.252054,-905.553674,0
0.060417,-17.930041,189.419386,-124.399053,0.519018,4.090936,-6.029773,1.330429,-3.664593,6.199748,-1.424593,-0.106522,0.298492,-0.050629,-3.729961,188.269653,1515.485123,-906.325353,0
0.061458,-82.468869,201.572775,-60.937879,1.695258,6.103944,-5.073344,-1.371082,-5.700959,5.272279,1.279371,-0.150358,0.301823,-0.028224,-41.437501,188.420569,1517.658314,-907.534830,0
0.062500,-150.172255,164.037407,-9.233333,2.667918,6.625835,-3.184298,-3.606173,-6.322161,3.488684,3.424752,-0.194194,0.310577,-0.028224,-86.666190,188.420403,1518.439493,-908.303803,0
0.063542,-199.410049,97.036713,39.356629,3.640578,6.316960,-0.715839,-5.553948,-5.958261,0.962275,5.246370,-0.245336,0.315280,-0.028224,-120.822389,188.495904,1520.780710,-909.794357,0
0.064583,-186.207379,44.074030,115.140720,5.065638,5.109866,1.693092,-6.423357,-4.906997,-1.421446,6.178526,-0.245336,0.333049,-0.039427,-117.112709,188.345070,1522.262744,-910.715918,0
0.065625,-140.145484,-5.324787,184.043182,6.321048,3.387981,3.792472,-6.583806,-3.065446,-3.549170,6.413343,-0.263601,0.345983,-0.039427,-94.571879,188.420453,1524.192238,-912.437089,0
0.066667,-83.932052,-61.090239,204.318751,6.705588,0.657817,5.566429,-5.427081,-0.429933,-5.349551,5.374452,-0.234377,0.330240,-0.050629,-56.016090,188.420571,1525.329221,-912.822585,0
0.067708,-31.858632,-143.735704,179.832955,6.332358,-1.965839,6.677633,-3.912145,2.205580,-6.457478,3.915735,-0.208806,0.325210,-0.065566,-19.801471,188.495864,1527.686798,-913.905425,0
0.068750,17.174998,-188.845799,124.878409,5.280528,-3.957545,6.173623,-1.423322,4.278703,-6.134332,1.585345,-0.186888,0.319330,-0.035692,8.439598,188.345070,1527.755480,-915.004802,0
0.069792,82.553170,-201.711962,61.774243,4.104288,-6.045108,5.328314,1.334161,6.340798,-5.253027,-1.129292,-0.128440,0.305351,-0.046895,45.773907,188.345059,1529.347433,-916.056230,0
0.070833,149.780171,-163.596710,10.106629,3.097698,-6.542147,3.359897,3.531938,6.958325,-3.410679,-3.296020,-0.066339,0.307898,-0.043161,91.500236,188.414240,1528.657788,-917.123458,0
0.071875,199.380926,-96.475207,-39.123485,2.147658,-6.187120,0.867626,5.434936,6.528262,-0.934630,-5.121196,0.010374,0.315411,-0.046895,126.086216,188.493116,1529.513604,-917.650895,0
0.072917,185.724555,-43.005126,-114.919887,0.711288,-4.948072,-1.481775,6.259569,5.414509,1.474272,-6.049794,-0.007891,0.314888,-0.058098,121.912826,188.346438,1529.862957,-917.790139,0
0.073958,139.254330,6.345367,-184.364016,-0.589362,-3.233288,-3.628779,6.427481,3.620743,3.631372,-6.217013,0.039598,0.301366,-0.024490,98.263616,188.345330,1530.660275,-918.229847,0
0.075001,82.156183,61.796716,-204.479546,-0.985212,-0.506674,-5.374956,5.334189,0.966852,5.385589,-5.235047,-0.029809,0.307833,-0.035692,59.639967,188.420484,1531.376720,-917.682748,0
0.076042,30.332298,144.043511,-179.649054,-0.521502,2.060177,-6.422662,3.800596,-1.646607,6.506106,-3.744309,-0.055380,0.322858,-0.028224,24.895648,188.495303,1532.162411,-918.246998,0
0.077083,-17.793931,189.298577,-124.374432,0.485088,4.108687,-5.986118,1.349086,-3.716054,6.140994,-1.442382,-0.066339,0.331023,-0.043161,-3.503761,188.420477,1531.691499,-918.495687,0
0.078125,-83.024652,201.681504,-61.565720,1.695258,6.182050,-5.116998,-1.400933,-5.715662,5.297459,1.279371,-0.161317,0.306527,-0.050629,-41.188681,188.420766,1532.269942,-918.768377,0
0.079167,-150.705352,164.085730,-9.688826,2.633988,6.679089,-3.200172,-3.591247,-6.358918,3.471898,3.378500,-0.201500,0.311753,-0.046895,-86.270340,188.420484,1532.600890,-918.695393,0
0.080208,-199.909119,97.652839,39.332008,3.617958,6.348913,-0.684090,-5.520366,-5.954586,0.966472,5.281948,-0.245336,0.318938,-0.035692,-121.659329,188.496248,1532.965225,-919.348763,0
0.081250,-186.093954,44.267324,115.399243,5.076948,5.060162,1.716903,-6.363655,-4.848185,-1.480200,6.192757,-0.248989,0.326124,-0.058098,-115.212629,188.344909,1532.268632,-920.268480,0
0.082292,-139.737154,-5.373110,184.560228,6.377598,3.345377,3.820252,-6.587538,-3.083825,-3.549170,6.402670,-0.256295,0.341083,-0.076769,-93.135510,188.419826,1532.460796,-919.970396,0
0.083333,-83.047337,-61.211048,204.392614,6.739518,0.643616,5.538649,-5.456932,-0.393176,-5.349551,5.374452,-0.259948,0.330044,-0.043161,-54.059460,188.420063,1532.254588,-919.936950,0
0.084375,-30.690355,-144.061888,179.586743,6.298428,-1.933886,6.637947,-3.886026,2.209255,-6.411314,3.876599,-0.201500,0.320767,-0.024490,-19.303831,188.495322,1531.613037,-919.221492,0
0.085417,17.447218,-189.232388,123.942803,5.257908,-4.000148,6.177591,-1.427053,4.300757,-6.130136,1.567556,-0.172276,0.311361,-0.039427,7.919338,188.419922,1531.597494,-919.174862,0
0.086458,82.677938,-201.699881,60.949432,4.059048,-6.027357,5.300534,1.349086,6.340798,-5.223650,-1.143523,-0.084604,0.305351,-0.017021,46.101897,188.419996,1531.283263,-919.004555,0
0.087500,149.904938,-163.222202,9.651136,3.109008,-6.556349,3.359897,3.535669,6.943622,-3.419072,-3.306694,-0.051727,0.309336,-0.028224,90.459716,188.419954,1531.294726,-918.705699,0
0.088542,199.902681,-95.653706,-39.283523,2.136348,-6.158717,0.863658,5.427474,6.542965,-0.875876,-5.160332,-0.022503,0.316717,-0.080503,126.855296,188.495211,1531.381748,-919.391786,0
0.089584,185.361595,-43.017207,-115.510796,0.699978,-4.955173,-1.493681,6.304346,5.399806,1.470075,-6.049794,0.014027,0.342129,-0.043161,120.001436,188.344484,1531.344072,-919.234214,0
0.090625,139.038823,5.765483,-185.164205,-0.623292,-3.194235,-3.652591,6.479720,3.583986,3.627175,-6.266822,-0.026156,0.328018,-0.043161,98.127896,188.419847,1531.659340,-919.824319,0
0.091667,83.177008,61.663826,-204.504167,0.756528,-0.464071,-5.402736,5.364040,0.874958,5.440146,-5.235047,-0.015197,0.327627,-0.039427,60.160227,188.421099,1531.380646,-921.697007,0
0.092709,31.466548,144.768365,-179.562879,-0.555432,2.127632,-6.521877,3.785671,-1.679688,6.539680,-3.751425,-0.062686,0.318546,-0.043161,24.228358,188.496328,1531.814805,-922.659939,0
0.093751,-17.669164,189.516033,-123.992803,0.496398,4.208095,-6.013898,1.296847,-3.760163,6.187158,-1.456614,-0.121134,0.321159,-0.069301,-3.311491,188.345214,1532.559961,-923.107383,0
0.094792,-83.898024,201.935203,-61.294887,1.683948,6.238854,-5.120967,-1.460635,-5.785501,5.234508,1.343412,-0.139399,0.303914,-0.035692,-42.444091,188.421602,1532.368607,-924.287486,0
0.095834,-150.614612,162.853478,-9.504167,2.769708,6.718142,-3.144612,-3.706920,-6.414054,3.400554,3.474562,-0.219765,0.307833,-0.031958,-86.994180,188.420321,1531.841019,-925.665415,0
0.096876,-200.714437,96.251454,39.565909,3.617958,6.359564,-0.628530,-5.591262,-5.980316,0.932898,5.349547,-0.227071,0.313974,-0.046895,-121.342649,188.495356,1532.452948,-926.255105,0
0.097917,-185.197896,43.312933,115.645455,5.110878,5.060162,1.724840,-6.453208,-4.837158,-1.522167,6.224778,-0.227071,0.324099,-0.028224,-116.694239,188.419905,1532.332054,-926.390112,0
0.098959,-138.750357,-5.989236,185.274243,6.366288,3.359579,3.848033,-6.598732,-3.054419,-3.641497,6.470269,-0.248989,0.314104,-0.017021,-93.881969,188.419920,1533.099256,-927.457963,0
0.100000,-82.049197,-61.404343,204.134092,6.762138,0.611663,5.641832,-5.438276,-0.308634,-5.353747,5.353105,-0.234377,0.313516,-0.058098,-54.885090,188.419851,1532.275039,-927.768557,0
0.101042,-30.066517,-144.484720,179.759091,6.287118,-1.940987,6.685570,-3.919608,2.271743,-6.541412,3.897946,-0.212459,0.320114,-0.043161,-18.851431,188.495246,1533.808576,-929.115716,0
0.102083,17.594670,-189.111579,123.622728,5.235288,-4.000148,6.193466,-1.423322,4.297081,-6.163709,1.567556,-0.128440,0.331089,-0.084238,8.326498,188.419938,1534.135014,-929.006913,0
0.103125,83.154323,-202.001904,61.367993,4.092978,-6.069960,5.272754,1.285653,6.392259,-5.248830,-1.164870,-0.102869,0.308160,-0.073035,46.339407,188.419922,1534.884315,-929.831819,0
0.104167,150.120446,-162.920179,10.328220,3.109008,-6.559899,3.336085,3.572983,6.991406,-3.419072,-3.331599,-0.055380,0.312471,-0.061832,91.975256,188.419990,1535.198600,-930.540783,0
0.105208,200.311011,-96.873877,-39.345076,2.136348,-6.204871,0.863658,5.397623,6.539289,-0.934630,-5.142543,0.003068,0.320963,-0.024490,126.470756,188.495381,1535.784376,-930.333036,0
0.106250,185.123402,-44.092407,-115.929356,0.688668,-4.987126,-1.541304,6.341659,5.381428,1.495255,-6.071141,-0.011544,0.332657,-0.061832,121.675316,188.495320,1535.650307,-931.156287,0
0.107292,139.322385,5.523865,-185.336554,-0.623292,-3.240389,-3.644654,6.490914,3.576634,3.639765,-6.288169,0.024986,0.338536,-0.054364,98.218376,188.495303,1535.888201,-931.648080,0
0.108333,83.006870,61.965849,-204.208713,-0.985212,-0.449870,-5.418611,5.311801,0.904364,5.431753,-5.213700,-0.018850,0.334812,-0.039427,59.504247,188.419911,1535.774344,-931.078551,0
0.109375,30.661231,144.816688,-179.612122,-0.510192,2.145383,-6.502034,3.785671,-1.676013,6.489320,-3.751425,-0.051727,0.321813,-0.020755,24.183118,188.495369,1535.462321,-930.355110,0
0.110417,-17.805274,189.334820,-123.549622,0.507708,4.151291,-5.982150,1.293116,-3.734433,6.145191,-1.428151,-0.121134,0.315868,-0.050629,-3.684721,188.495314,1534.622730,-929.917254,0
