1-Time,2-VGERA,3-VGERB,4-VGERC,5-VN,6-IGERAN,7-IGERBN,8-IGERCN,9-IGERAT,10-IGERBT,11-IGERCT,12-IN,13-IFD,14-IFAULT,15-VFAULT,16-Speed (rad/s),17-Active Power,18-Reactive Power,19-FAULT 
0.000000,133.718905,76.942555,-171.244361,-0.351852,-4.768018,1.427090,3.146505,4.442191,-1.406350,-3.121016,-0.062686,0.548360,-0.046895,101.011946,188.799729,928.811807,1022.354579,0
0.001042,51.796155,129.026814,-190.112025,-0.713772,-4.545628,-0.617859,4.661776,4.317879,0.531462,-4.810588,-0.015197,0.508577,-0.054364,50.083017,188.970477,927.289447,1022.207009,0
0.002083,-18.626470,168.074962,-159.337703,-0.125652,-3.520370,-2.343949,5.091480,3.403816,2.014275,-5.272430,-0.011544,0.518572,-0.017021,0.805348,188.952305,925.271892,1022.261937,0
0.003125,-90.232095,184.060147,-107.940010,0.914868,-1.677168,-4.393150,5.076402,1.615910,3.858650,-5.307068,-0.033462,0.551626,-0.046895,-56.106570,188.805411,923.387580,1022.048865,0
0.004167,-138.575845,179.149036,-25.359979,2.475648,0.154727,-5.400744,4.220764,-0.098871,4.817400,-4.468055,-0.040768,0.549144,-0.031958,-90.081810,188.797710,922.398285,1021.899229,0
0.005208,-173.269595,152.005518,50.815432,3.923328,2.084624,-5.915170,2.829882,-1.963559,5.373962,-3.055588,-0.091910,0.543003,0.001650,-114.828089,188.872552,921.420914,1021.075025,0
0.006250,-174.008970,83.611074,118.929429,5.178738,3.912749,-5.638825,0.945217,-3.586934,5.138337,-1.088910,-0.117481,0.535164,-0.058098,-119.996759,188.947921,921.096848,1020.673600,0
0.007292,-174.520845,-0.888926,157.394241,5.879958,4.983239,-4.792786,-0.777367,-4.680152,4.394900,0.696879,-0.161317,0.548098,-0.069301,-121.987319,188.872602,921.077289,1020.648208,0
0.008333,-133.297845,-76.180592,171.575899,6.207948,5.258400,-2.964661,-2.530106,-4.899527,2.863337,2.474971,-0.154011,0.537124,-0.031958,-98.620859,188.797092,921.237989,1020.321168,0
0.009375,-52.114470,-128.698185,190.517747,6.581178,5.028471,-0.915461,-3.992606,-4.702090,0.937712,4.110662,-0.219765,0.536079,-0.035692,-44.344171,188.872600,921.035396,1019.123492,0
0.010417,18.330905,-168.047259,159.187040,5.993058,3.965519,0.789372,-4.441156,-3.769746,-0.528850,4.587899,-0.219765,0.550973,-0.028224,4.718608,188.947937,920.468364,1017.988562,0
0.011458,90.175405,-183.707444,108.197363,5.031708,2.141164,2.757795,-4.429848,-2.033027,-2.389475,4.564806,-0.223418,0.555349,-0.031958,59.775687,188.872203,920.587110,1017.085617,0
0.012500,138.894530,-178.519481,25.815159,3.493548,0.282884,3.807904,-3.577980,-0.332871,-3.327913,3.721945,-0.179582,0.557048,-0.050629,95.503976,188.732130,920.506361,1016.377246,0
0.013542,173.463155,-151.628740,-50.520986,2.023248,-1.665860,4.326581,-2.175789,1.469660,-3.921038,2.328721,-0.216112,0.553063,-0.009553,118.678166,188.963425,920.580185,1016.422721,0
0.014584,173.815780,-83.679666,-119.117185,0.654738,-3.441214,4.088500,-0.272277,3.195410,-3.648850,0.385136,-0.146705,0.542154,-0.039427,125.622506,188.952142,920.993680,1016.444711,0
0.015625,174.168405,0.615704,-157.693273,-0.046482,-4.515473,3.238209,1.393767,4.222816,-2.921663,-1.408351,-0.102869,0.540063,-0.039427,128.054156,188.802355,920.504378,1016.520807,0
0.016667,133.730280,76.232370,-171.479279,-0.317922,-4.801942,1.435593,3.176660,4.537254,-1.390100,-3.182595,-0.080951,0.543134,-0.050629,100.729196,188.727446,922.154498,1016.939798,0
0.017709,52.717530,129.147185,-189.901834,-0.702462,-4.553166,-0.634865,4.654237,4.292285,0.511150,-4.864470,-0.044421,0.550581,-0.017021,50.139567,188.878200,922.717941,1016.881549,0
0.018750,-17.693720,168.411999,-158.880230,-0.114342,-3.542986,-2.352452,5.132942,3.341660,1.981775,-5.299371,-0.048074,0.564691,-0.017021,1.585738,188.953212,922.767851,1016.384155,0
0.019792,-90.106970,183.987925,-107.915282,0.824388,-1.680937,-4.354887,5.102788,1.586660,3.870837,-5.291674,-0.037115,0.556460,-0.013287,-55.258320,188.801995,922.965139,1015.871078,0
0.020834,-139.144595,178.462925,-25.978186,2.430408,0.188651,-5.434756,4.258458,-0.109840,4.870212,-4.471904,-0.066339,0.554043,-0.031958,-90.330630,188.727462,923.638198,1016.020391,0
0.021875,-173.849720,151.849036,50.419779,3.912018,2.103470,-5.940679,2.871344,-1.919684,5.390212,-3.124864,-0.073645,0.554174,-0.031958,-114.285209,188.884878,923.188743,1017.164104,0
0.022917,-173.861095,84.525889,119.572364,5.201358,3.924057,-5.655831,0.952755,-3.612527,5.191150,-1.150489,-0.117481,0.545224,-0.024490,-119.906279,188.772573,923.507490,1018.439557,0
0.023958,-174.486720,0.266630,158.012447,5.913888,5.024701,-4.848055,-0.709519,-4.680152,4.447712,0.673787,-0.139399,0.550842,-0.043161,-122.100419,188.763925,923.587589,1019.181846,0
0.025000,-133.764220,-75.590777,171.439893,6.230568,5.303632,-3.011427,-2.575338,-4.961684,2.891775,2.486517,-0.164970,0.552018,-0.043161,-96.743399,188.743493,924.269890,1019.841379,0
0.026042,-52.956220,-129.023185,190.295193,6.535938,5.088780,-0.940969,-4.026530,-4.764246,0.974275,4.122208,-0.201500,0.558158,-0.043161,-44.061421,188.830728,924.499992,1020.844659,0
0.027084,17.204780,-168.420407,158.927393,5.993058,3.999443,0.780869,-4.527851,-3.853840,-0.508538,4.587899,-0.248989,0.565932,-0.020755,3.757258,188.744702,924.403172,1021.776017,0
0.028125,90.016155,-183.887999,108.184999,4.952538,2.171318,2.813064,-4.475080,-2.087871,-2.421975,4.661024,-0.256295,0.568023,-0.024490,59.447697,188.815923,925.150917,1023.302784,0
0.029167,139.440530,-178.158370,26.136626,3.357828,0.331885,3.850419,-3.604365,-0.362121,-3.413225,3.810464,-0.201500,0.558616,-0.039427,96.329606,188.735697,925.998973,1024.976645,0
0.030209,173.906780,-151.809296,-50.694084,1.944078,-1.665860,4.432868,-2.205943,1.524504,-3.945413,2.401846,-0.186888,0.556133,-0.028224,118.632926,188.890886,926.688823,1025.995676,0
0.031250,174.054655,-84.016703,-119.661206,0.666048,-3.471369,4.131014,-0.298662,3.213691,-3.721975,0.439017,-0.143052,0.548948,-0.043161,124.604606,188.737232,927.003139,1027.516776,0
0.032292,174.361780,0.447185,-158.014741,-0.080412,-4.605937,3.276472,1.420152,4.295941,-2.958225,-1.400654,-0.091910,0.560380,-0.039427,126.900536,188.810768,927.815252,1028.476303,0
0.033333,133.457280,76.268481,-171.837839,-0.408402,-4.839635,1.422839,3.236969,4.581129,-1.402288,-3.278812,-0.080951,0.553455,-0.054364,100.457756,188.737932,929.204745,1028.922074,0
0.034375,52.603780,129.412000,-190.173845,-0.770322,-4.636092,-0.690134,4.707008,4.325191,0.543650,-4.872167,-0.022503,0.561033,-0.046895,49.585377,188.884826,929.712769,1029.159687,0
0.035417,-17.727845,169.206444,-158.484578,-0.114342,-3.558063,-2.424727,5.178174,3.367254,2.054900,-5.357101,-0.044421,0.565540,-0.043161,-0.042902,188.731885,930.980027,1029.705067,0
0.036459,-90.630220,183.735147,-107.754548,0.869628,-1.654552,-4.427161,5.095249,1.634191,4.004900,-5.376345,-0.029809,0.560575,-0.009553,-57.079230,188.738394,932.695496,1031.099990,0
0.037500,-139.997720,178.511073,-25.112697,2.407788,0.199959,-5.481522,4.247150,-0.128121,4.910837,-4.529634,-0.055380,0.557962,-0.028224,-90.816960,188.886354,933.199928,1032.233683,0
0.038542,-173.337845,152.198111,51.730377,3.844158,2.163780,-6.000199,2.822343,-2.007434,5.463337,-3.063285,-0.099216,0.554370,-0.035692,-114.624509,188.966599,934.804469,1032.017149,0
0.039584,-174.350220,83.225889,119.869103,5.156118,4.003213,-5.668586,0.922601,-3.711246,5.211462,-1.108154,-0.132093,0.549340,-0.031958,-120.528329,188.948828,936.070247,1032.238006,0
0.040625,-174.475345,-1.117630,157.962991,5.981748,5.054856,-4.792786,-0.796214,-4.786184,4.476150,0.770004,-0.161317,0.547380,-0.020755,-121.817669,188.948240,937.842164,1032.788554,0
0.041667,-132.649470,-76.397259,172.132285,6.196638,5.281016,-2.934901,-2.646955,-4.979965,2.830837,2.513458,-0.205153,0.559334,-0.028224,-97.704749,188.872974,938.232787,1032.606511,0
0.042708,-51.909720,-129.191703,190.765030,6.513318,5.085010,-0.898455,-4.079300,-4.815434,0.962087,4.156846,-0.208806,0.569133,-0.031958,-43.303651,189.026705,938.744222,1033.410669,0
0.043750,18.569780,-169.010222,158.581197,5.947818,3.999443,0.882904,-4.497696,-3.831902,-0.601975,4.661024,-0.230724,0.567957,-0.035692,6.290698,188.948095,940.128502,1033.644198,0
0.044792,91.153655,-183.406518,107.603885,4.975158,2.118548,2.842824,-4.478849,-2.062277,-2.499163,4.684116,-0.230724,0.565410,-0.054364,61.155507,188.948064,940.915851,1033.835310,0
0.045833,139.906905,-178.435222,24.504561,3.369138,0.248960,3.931196,-3.589288,-0.296309,-3.441663,3.779675,-0.227071,0.557636,-0.039427,96.001616,188.872479,941.405297,1033.579193,0
0.046875,173.087780,-151.833370,-52.289057,1.842288,-1.760093,4.432868,-2.164481,1.542785,-3.977913,2.336418,-0.168623,0.552018,-0.028224,118.157906,189.023395,941.719299,1033.225583,0
0.047917,174.293530,-82.235222,-120.019766,0.609498,-3.527909,4.148020,-0.245892,3.242941,-3.705725,0.369741,-0.164970,0.549013,-0.043161,125.984426,188.948050,941.995856,1032.743324,0
0.048958,174.236655,2.397185,-158.014741,-0.057792,-4.658708,3.301981,1.454076,4.328848,-3.023225,-1.450687,-0.102869,0.552410,-0.091706,127.816646,188.948053,942.397068,1033.748416,0
0.050000,131.796530,78.314777,-171.924388,-0.340542,-4.817020,1.376073,3.285970,4.559191,-1.386038,-3.240325,-0.080951,0.543199,-0.043161,99.315446,188.872624,941.082245,1034.001645,0
0.051042,50.954405,129.712925,-190.445856,-0.736392,-4.590860,-0.664625,4.707008,4.339816,0.539587,-4.856772,-0.026156,0.532028,-0.054364,48.488307,188.948035,940.522158,1034.478045,0
0.052083,-19.490970,169.074036,-158.299116,-0.125652,-3.520370,-2.411972,5.151789,3.403816,2.075212,-5.380193,-0.018850,0.549536,-0.024490,-0.755432,188.872773,940.472935,1035.294922,0
0.053125,-91.733595,183.879592,-106.678869,0.858318,-1.677168,-4.384647,5.170635,1.626879,3.939900,-5.364799,-0.029809,0.551561,-0.046895,-57.045300,188.952461,939.222367,1035.547056,0
0.054167,-139.872595,178.511073,-23.876284,2.464338,0.150957,-5.430504,4.277304,-0.076934,4.866150,-4.487299,-0.059033,0.548882,-0.039427,-90.805650,188.890301,937.870994,1035.438612,0
0.055208,-173.064845,151.620333,52.917334,3.923328,2.137394,-5.949182,2.871344,-1.934309,5.418650,-3.090226,-0.055380,0.543918,-0.031958,-113.561369,188.958573,936.193369,1035.876278,0
0.056250,-174.020345,81.841629,120.598587,5.167428,3.950442,-5.694094,0.945217,-3.597902,5.211462,-1.146641,-0.146705,0.529154,-0.054364,-120.290819,188.880506,934.110071,1036.423169,0
0.057292,-174.134095,-2.887074,158.012447,5.868648,5.032240,-4.835301,-0.743443,-4.680152,4.455837,0.693030,-0.157664,0.515501,-0.039427,-121.693259,188.955752,931.733535,1036.405321,0
0.058333,-131.614345,-78.166703,171.687176,6.185328,5.281016,-2.960410,-2.575338,-4.914152,2.879587,2.486517,-0.208806,0.512104,-0.013287,-95.318339,188.882644,930.079162,1036.759196,0
0.059375,-49.964595,-129.625037,190.789758,6.547248,5.039779,-0.928215,-4.026530,-4.727684,1.010837,4.106813,-0.234377,0.547772,-0.035692,-42.183961,188.954620,928.236290,1036.415828,0
0.060417,20.287405,-168.673185,158.148453,5.993058,3.984366,0.827635,-4.505235,-3.831902,-0.532913,4.591747,-0.238030,0.554174,-0.002084,6.075808,188.880463,926.276117,1036.507595,0
0.061458,92.177405,-183.635222,106.466385,4.941228,2.144933,2.821567,-4.482619,-2.076902,-2.409788,4.603293,-0.223418,0.558877,-0.039427,61.234677,188.951460,924.199633,1036.282538,0
0.062500,139.941030,-178.158370,23.490702,3.357828,0.279115,3.867424,-3.566672,-0.325559,-3.413225,3.737339,-0.205153,0.553390,-0.035692,96.974276,188.881253,923.211192,1036.043378,0
0.063542,172.848905,-151.327814,-53.389464,1.944078,-1.711092,4.407359,-2.270022,1.520848,-3.941350,2.359510,-0.168623,0.547772,-0.054364,118.067426,188.948659,922.223851,1036.303677,0
0.064583,174.100155,-80.634296,-120.811070,0.632118,-3.475138,4.118260,-0.279816,3.206379,-3.709788,0.415925,-0.139399,0.543134,-0.046895,124.887356,188.873008,920.961403,1037.104174,0
0.065625,173.827155,4.034222,-158.051833,-0.057792,-4.605937,3.276472,1.465384,4.328848,-2.962288,-1.416049,-0.106522,0.497276,-0.054364,126.414206,188.948347,920.111687,1036.862826,0
0.066667,131.114030,78.832370,-172.035665,-0.374472,-4.839635,1.376073,3.263354,4.515316,-1.353538,-3.294206,-0.066339,0.531963,-0.046895,99.304136,188.872891,920.300952,1036.176701,0
0.067708,49.191280,130.182370,-190.532405,-0.736392,-4.583321,-0.647619,4.744701,4.310566,0.588337,-4.895259,-0.055380,0.562797,-0.054364,48.443067,189.023778,920.559223,1035.888883,0
0.068750,-21.060720,169.567555,-157.705637,-0.159582,-3.490215,-2.462990,5.189482,3.334348,2.099587,-5.337858,-0.029809,0.555219,-0.080503,-1.728092,188.872969,920.007831,1035.104073,0
0.069792,-93.053095,183.434222,-106.221396,0.937488,-1.631936,-4.452670,5.140481,1.528160,3.988650,-5.330160,-0.029809,0.572465,-0.043161,-58.459050,188.872938,920.522759,1034.019761,0
0.070833,-140.395845,178.426814,-22.837697,2.498268,0.248960,-5.498528,4.273535,-0.164684,4.947400,-4.494996,-0.062686,0.553978,-0.024490,-91.235430,188.871172,921.929997,1034.145628,0
0.071875,-172.302720,151.873111,54.289752,3.957258,2.209012,-5.953433,2.811035,-2.000121,5.438962,-3.028647,-0.059033,0.546465,-0.028224,-114.194729,188.872747,922.771783,1033.537457,0
0.072917,-174.645970,80.024037,120.882962,5.303148,3.999443,-5.668586,0.839675,-3.660059,5.162712,-1.019634,-0.139399,0.535099,-0.024490,-120.878939,188.872907,923.764149,1032.250762,0
0.073958,-173.826970,-3.633370,158.173181,5.913888,5.077472,-4.784283,-0.784906,-4.676496,4.398962,0.762307,-0.150358,0.508446,-0.017021,-121.263479,188.881346,924.177672,1031.286749,0
0.075000,-130.363095,-78.106518,172.503209,6.219258,5.262169,-2.879632,-2.684648,-4.892215,2.790212,2.594280,-0.172276,0.510928,-0.043161,-96.607679,188.649142,925.450281,1030.100504,0
0.076042,-48.679220,-129.721333,190.876307,6.547248,5.020932,-0.872946,-4.045376,-4.727684,0.909275,4.145300,-0.194194,0.553912,-0.013287,-42.636361,188.654197,926.393382,1029.523292,0
0.077083,21.186030,-169.672259,157.604431,5.925198,3.908980,0.891407,-4.482619,-3.740496,-0.650725,4.622537,-0.219765,0.562143,-0.080503,7.172878,188.651636,927.800351,1028.559761,0
0.078125,93.076030,-182.804666,106.330380,4.997778,2.050700,2.859830,-4.426079,-1.956246,-2.462600,4.560958,-0.241683,0.537385,-0.035692,62.173407,188.653540,928.515852,1026.949264,0
0.079167,140.418780,-178.001888,23.132142,3.414378,0.192420,3.935448,-3.544056,-0.263402,-3.384788,3.702701,-0.186888,0.554043,-0.035692,96.408776,188.653829,928.560121,1026.147993,0
0.080208,172.041280,-151.448185,-54.316774,1.910148,-1.737477,4.407359,-2.126787,1.626879,-3.912913,2.282537,-0.190541,0.546661,-0.054364,117.943016,188.653320,929.504821,1024.689825,0
0.081250,174.782655,-79.707444,-120.922348,0.632118,-3.580679,4.050237,-0.181813,3.257566,-3.628538,0.281221,-0.121134,0.538300,-0.013287,126.855296,188.650980,930.545690,1022.841396,0
0.082292,173.520030,3.492556,-158.299116,-0.103032,-4.632322,3.165935,1.491769,4.303254,-2.844475,-1.539207,-0.132093,0.518310,-0.069301,127.171976,188.647829,931.563566,1020.482605,0
0.083333,130.442905,78.158296,-172.789877,-0.363162,-4.794404,1.282541,3.327433,4.526285,-1.264163,-3.317299,-0.080951,0.506682,-0.024490,98.749946,188.650484,932.330691,1019.561354,0
0.084375,49.259530,130.098111,-190.470584,-0.702462,-4.553166,-0.707140,4.725855,4.263035,0.608650,-4.872167,-0.022503,0.555349,-0.031958,48.725817,188.571674,932.072398,1018.748699,0
0.085417,-20.764970,170.109222,-157.124523,-0.069102,-3.437445,-2.552270,5.178174,3.290473,2.119900,-5.372496,-0.011544,0.561490,-0.043161,-1.038182,188.646732,932.603408,1018.449815,0
0.086458,-93.132720,183.024962,-105.998842,0.948798,-1.556549,-4.427161,5.106557,1.546441,4.008962,-5.314766,-0.048074,0.557962,-0.054364,-57.441150,188.646757,932.495688,1018.424663,0
0.087500,-140.862220,177.885147,-23.035523,2.520888,0.301731,-5.502779,4.247150,-0.237809,4.939275,-4.414174,-0.040768,0.554370,-0.046895,-91.382460,188.646621,932.828210,1016.929404,0
0.088542,-172.405095,151.656444,54.462850,3.945948,2.235397,-5.957685,2.803496,-2.069590,5.430837,-2.974766,-0.077298,0.547249,-0.061832,-113.448269,188.571219,933.606880,1016.074455,0
0.089583,-174.862095,80.469407,121.130244,5.280528,4.063522,-5.643077,0.790674,-3.703934,5.158650,-0.969601,-0.143052,0.543526,-0.024490,-121.512299,188.646639,934.609245,1015.681352,0
0.090625,-173.690470,-2.634296,158.779023,5.959128,5.081241,-4.724763,-0.867831,-4.745965,4.370525,0.831583,-0.172276,0.538169,-0.028224,-120.980729,188.646625,936.252207,1015.273510,0
0.091667,-130.363095,-77.384296,172.923589,6.264498,5.288554,-2.854124,-2.726111,-4.947059,2.725212,2.655859,-0.183235,0.541109,-0.043161,-94.628429,188.646768,937.837381,1014.852023,0
0.092708,-49.634720,-129.745407,190.765030,6.592488,5.009624,-0.813426,-4.075531,-4.705746,0.823962,4.199181,-0.241683,0.560380,-0.020755,-42.738151,188.774957,939.322810,1013.907726,0
0.093750,20.241905,-170.189851,157.072773,5.936508,3.890133,0.967933,-4.535389,-3.696621,-0.723850,4.641780,-0.241683,0.568023,-0.039427,6.075808,188.704350,940.435317,1013.100995,0
0.094792,92.985030,-182.756518,106.355108,4.963848,1.982852,2.983122,-4.388385,-1.901402,-2.572288,4.549412,-0.230724,0.556525,-0.046895,61.743627,188.630552,941.979364,1012.351090,0
0.095833,141.203655,-177.568555,23.231055,3.369138,0.068032,3.999219,-3.502593,-0.190277,-3.498538,3.702701,-0.216112,0.557440,-0.046895,97.573706,188.634550,943.810099,1012.462361,0
0.096875,172.189155,-151.797259,-54.687698,1.910148,-1.861865,4.432868,-2.070248,1.685379,-3.949475,2.228655,-0.175929,0.554566,-0.061832,117.795986,188.708677,944.993291,1012.088887,0
0.097917,175.362780,-79.888000,-121.120174,0.643428,-3.633450,4.092751,-0.023501,3.396504,-3.677288,0.177307,-0.113828,0.536797,-0.039427,126.583856,188.649742,947.744500,1011.946203,0
0.098958,173.679280,2.890704,-158.707132,-0.069102,-4.673785,3.165935,1.608619,4.387348,-2.885100,-1.646970,-0.099216,0.552736,0.001650,125.679056,188.653018,949.933649,1012.256161,0
0.100000,129.862780,77.532370,-173.828464,-0.419712,-4.828327,1.146494,3.474437,4.555535,-1.191038,-3.463549,-0.062686,0.551626,-0.017021,98.410646,188.650392,952.293184,1011.554200,0
0.101042,49.634905,130.110148,-190.693139,-0.702462,-4.519242,-0.877198,4.797472,4.230129,0.718337,-4.983779,-0.037115,0.555807,-0.046895,48.409137,188.501657,954.537639,1010.564223,0
0.102083,-20.309970,171.156444,-156.765963,-0.125652,-3.316826,-2.696820,5.253561,3.202723,2.327087,-5.434075,-0.040768,0.546792,-0.031958,-2.847781,188.648503,957.568763,1009.163850,0
0.103125,-93.655970,182.362925,-106.209032,0.869628,-1.473624,-4.584465,5.095249,1.400191,4.122712,-5.345555,-0.018850,0.559008,-0.043161,-59.216820,188.652172,959.778746,1007.928248,0
0.104167,-141.931470,177.981444,-22.367860,2.475648,0.456273,-5.638825,4.092607,-0.376746,5.048962,-4.341049,-0.037115,0.553063,-0.046895,-91.891410,188.653317,961.981408,1006.971778,0
0.105208,-171.438220,152.294407,55.909454,3.968568,2.438941,-6.046965,2.630107,-2.237777,5.483650,-2.859305,-0.117481,0.553390,-0.028224,-113.753639,188.496237,964.487802,1005.635146,0
0.106250,-176.625220,78.880518,121.080788,5.190048,4.244450,-5.630323,0.617285,-3.897715,5.178962,-0.781016,-0.121134,0.557636,-0.058098,-122.699849,188.646715,968.128108,1004.784341,0
0.107292,-173.690470,-3.248185,158.952121,5.925198,5.220706,-4.707757,-1.090222,-4.881246,4.321775,1.000925,-0.161317,0.550450,-0.013287,-120.845009,188.646750,971.126309,1004.086174,0
0.108333,-128.907095,-77.167629,174.778209,6.241878,5.371480,-2.641551,-2.914577,-5.020184,2.607400,2.913721,-0.219765,0.552475,-0.050629,-94.990349,188.646672,975.172471,1003.417705,0
0.109375,-48.815720,-129.649111,191.271959,6.569868,4.941776,-0.605105,-4.211227,-4.734996,0.645212,4.306945,-0.227071,0.562993,-0.031958,-41.799421,188.571321,977.907296,1002.673429,0
0.110417,21.117780,-171.417629,156.998588,5.936508,3.765745,1.244278,-4.644700,-3.689309,-0.902600,4.764938,-0.241683,0.582721,-0.061832,9.061648,188.646717,980.966004,1003.143365,0
