1-Time,2-VGERA,3-VGERB,4-VGERC,5-VN,6-IGERAN,7-IGERBN,8-IGERCN,9-IGERAT,10-IGERBT,11-IGERCT,12-IN,13-IFD,14-IFAULT,15-VFAULT,16-Speed (rad/s),17-Active Power,18-Reactive Power,19-FAULT 
0.000000,150.975404,-157.396288,5.376054,0.426862,-6.151653,3.332048,3.397039,6.640883,-3.189527,-3.698842,-0.061180,0.319785,-0.014723,65.878926,188.495693,1504.122250,-908.066393,0
0.001042,199.000086,-92.364168,-44.166312,-0.563957,-5.799384,0.793318,5.322370,6.299071,-0.678918,-5.621802,-0.112226,0.321232,-0.022156,85.963777,188.495727,1505.424483,-907.959041,0
0.002083,183.643488,-39.429407,-118.546694,-2.016406,-4.654508,-1.475596,6.230909,5.034369,1.637572,-6.387179,-0.123164,0.329362,-0.014723,83.318071,188.495794,1505.966600,-908.448509,0
0.003125,137.743191,9.077485,-183.485228,-3.243670,-2.922517,-3.609601,6.486074,3.298726,3.703864,-6.627073,-0.115872,0.346587,-0.022156,62.433879,188.344851,1506.426900,-908.709561,0
0.004167,80.203971,64.008897,-199.331008,-3.536412,-0.232793,-5.392027,5.407424,0.564234,5.455251,-5.458065,-0.093995,0.339560,0.015011,35.717874,188.495721,1506.896364,-909.018988,0
0.005208,26.936123,142.242409,-174.893996,-3.086040,2.196398,-6.463117,3.903501,-1.927192,6.520750,-3.973007,-0.075764,0.335012,-0.011006,11.816451,188.495702,1507.968299,-909.080091,0
0.006250,-22.026453,184.031155,-120.126412,-2.016406,4.236625,-6.103362,1.545164,-4.000849,6.003098,-1.490294,-0.028364,0.322059,-0.022156,-7.592901,188.495694,1508.224631,-909.535949,0
0.007292,-87.260922,195.200659,-55.783310,-0.834180,6.210801,-5.175356,-1.203652,-6.009941,5.049757,1.198042,0.048206,0.310966,-0.003573,-34.759238,188.345068,1508.496820,-910.072104,0
0.008333,-150.551804,157.252532,-4.478952,0.167898,6.772230,-3.323432,-3.453738,-6.564435,3.203467,3.418014,0.059144,0.315307,-0.040740,-64.368632,188.495754,1509.489467,-910.535355,0
0.009375,-198.813785,91.492220,43.921156,1.091161,6.408953,-0.743820,-5.425462,-6.211230,0.619524,5.371437,0.095606,0.316754,-0.025873,-85.241565,188.495483,1509.896769,-911.042070,0
0.010416,-183.592785,38.428265,118.009899,2.532351,5.271416,1.521005,-6.326270,-5.011092,-1.632259,6.155852,0.143006,0.332670,-0.022156,-80.997177,188.495720,1511.001417,-911.408205,0
0.011458,-137.070993,-9.373926,183.713987,3.804652,3.524747,3.671363,-6.612363,-3.286842,-3.758944,6.369091,0.124775,0.318132,-0.025873,-61.171267,188.344880,1511.876027,-911.709093,0
0.012500,-79.407474,-63.706343,199.681284,4.164950,0.871718,5.474229,-5.495052,-0.514371,-5.506017,5.203892,0.091960,0.320268,-0.003573,-34.489038,188.495611,1512.735161,-912.005483,0
0.013541,-26.738522,-142.362676,175.280727,3.601985,-1.652879,6.586201,-3.998861,2.053013,-6.562889,3.749296,0.070083,0.331154,-0.048173,-11.499539,188.495807,1514.149833,-912.476000,0
0.014583,21.783358,-184.233637,120.792631,2.633685,-3.656411,6.189652,-1.625060,4.096286,-6.062493,1.201850,0.011744,0.320681,-0.040740,7.583321,188.495667,1514.982600,-913.213314,0
0.015625,87.492423,-195.450121,57.409512,1.406421,-5.619579,5.249382,1.170150,6.162347,-5.130720,-1.478871,-0.010133,0.319716,0.000144,35.323833,188.344871,1515.771588,-914.272976,0
0.016666,150.873704,-157.736894,6.044396,0.438121,-6.261737,3.409722,3.420235,6.709245,-3.249920,-3.748344,-0.090349,0.319923,-0.014723,64.753093,188.495568,1516.875227,-915.282468,0
0.017708,199.293884,-92.998398,-43.522273,-0.563957,-5.836078,0.838287,5.388094,6.348444,-0.717742,-5.709383,-0.104934,0.325366,0.011294,86.391593,188.420314,1517.991764,-916.416523,0
0.018750,183.971186,-40.145853,-118.169992,-1.982628,-4.735236,-1.451067,6.312098,5.125518,1.611689,-6.486183,-0.115872,0.334805,-0.044457,80.661106,188.495703,1519.742473,-917.138844,0
0.019792,138.116089,8.161374,-183.946991,-3.221151,-2.955542,-3.646394,6.563396,3.382280,3.755629,-6.699422,-0.115872,0.347001,-0.029590,61.476921,188.344974,1521.376280,-917.982947,0
0.020833,80.723768,63.433391,-199.707710,-3.558930,-0.306183,-5.461525,5.519542,0.609809,5.498388,-5.557069,-0.097641,0.342798,-0.003573,36.280790,188.495698,1522.979636,-918.418853,0
0.021875,27.704518,142.406839,-175.246394,-3.176114,2.214745,-6.557144,4.031083,-1.957576,6.559574,-4.072011,-0.053887,0.327640,-0.029590,11.782676,188.420245,1524.376588,-919.031363,0
0.022916,-21.325858,184.254310,-120.089957,-2.095221,4.295336,-6.213741,1.607022,-4.042626,6.089374,-1.494102,-0.032010,0.334530,-0.014723,-7.063759,188.495698,1525.335844,-919.966860,0
0.023958,-87.125323,195.376835,-56.305832,-0.856698,6.317216,-5.244854,-1.226849,-6.101091,5.157601,1.182811,0.048206,0.313102,-0.037023,-35.063213,188.344956,1527.160147,-920.798816,0
0.025000,-150.551804,156.911927,-5.110839,0.156639,6.885984,-3.388842,-3.538792,-6.670776,3.220722,3.467516,0.084667,0.315927,0.000144,-64.740156,188.420242,1528.108706,-922.024483,0
0.026041,-199.514380,91.821081,43.362179,1.124939,6.486011,-0.821495,-5.541446,-6.347954,0.688544,5.398092,0.113837,0.319854,-0.011006,-85.331632,188.420253,1530.323845,-922.329100,0
0.027083,-183.491086,39.003770,117.706107,2.532351,5.418195,1.574151,-6.407458,-5.090848,-1.692652,6.258664,0.128422,0.292708,0.007577,-82.742217,188.495761,1531.611987,-923.872172,0
0.028125,-137.353491,-8.739696,183.920566,3.793393,3.616484,3.753126,-6.666489,-3.332417,-3.797768,6.483327,0.106545,0.313791,-0.040740,-61.621600,188.420206,1533.270918,-924.870302,0
0.029166,-79.656072,-63.130838,199.827104,4.164950,0.871718,5.527375,-5.580107,-0.537159,-5.540527,5.272433,0.117483,0.322335,0.018727,-36.583086,188.420316,1534.247400,-925.266846,0
0.030208,-27.043620,-142.104285,175.706036,3.658281,-1.605176,6.627083,-4.083916,2.053013,-6.618968,3.840684,0.095606,0.288367,0.000144,-12.208814,188.420193,1535.681157,-925.563637,0
0.031250,21.173162,-184.233637,120.634660,2.622425,-3.718792,6.234622,-1.663721,4.153255,-6.140140,1.251352,0.040913,0.341075,-0.018440,7.898554,188.495749,1536.889806,-926.175353,0
0.032291,86.780528,-195.814216,57.385209,1.428940,-5.670952,5.335233,1.158551,6.192730,-5.281702,-1.501718,-0.013779,0.318063,-0.003573,35.042375,188.420226,1538.520866,-926.738609,0
0.033333,150.342608,-157.631189,6.591221,0.438121,-6.261737,3.442428,3.447298,6.743426,-3.275803,-3.759768,-0.072118,0.321714,0.000144,65.732568,188.420178,1538.727603,-927.114785,0
0.034375,199.463383,-93.292023,-42.951145,-0.541438,-5.898459,0.891433,5.422889,6.431998,-0.765193,-5.736038,-0.104934,0.329845,-0.022156,86.211460,188.420206,1539.984509,-927.428551,0
0.035416,183.959886,-40.733103,-117.696077,-1.993888,-4.786609,-1.451067,6.335295,5.182487,1.598748,-6.524261,-0.126811,0.332049,0.022444,83.363104,188.495792,1540.697383,-927.739810,0
0.036458,138.500286,7.550633,-183.837626,-3.198633,-3.006915,-3.675011,6.598191,3.408865,3.742687,-6.748924,-0.097641,0.340180,-0.003573,62.760370,188.420359,1541.332998,-927.987097,0
0.037500,81.706862,62.869631,-199.768468,-3.547671,-0.339208,-5.453349,5.546605,0.636394,5.545840,-5.583724,-0.108580,0.343073,-0.029590,36.269532,188.420303,1541.923404,-928.754596,0
0.038541,28.597212,142.007509,-175.623096,-3.119818,2.214745,-6.536704,4.081343,-1.965171,6.628594,-4.098666,-0.086703,0.337424,-0.025873,12.413142,188.420267,1542.617920,-929.728150,0
0.039583,-20.580063,184.042900,-120.648933,-2.061443,4.251303,-6.217829,1.610888,-4.054019,6.115256,-1.558835,0.000805,0.344865,-0.003573,-6.996209,188.495852,1543.230270,-929.869627,0
0.040625,-86.356928,195.482540,-56.864809,-0.867958,6.276852,-5.281647,-1.211384,-6.108686,5.192111,1.213274,0.022683,0.315169,-0.014723,-34.275130,188.420439,1543.227730,-930.629161,0
0.041667,-150.371005,157.698842,-5.694119,0.100342,6.893323,-3.413370,-3.500131,-6.632797,3.268174,3.475132,0.081021,0.317856,-0.011006,-64.289823,188.420260,1543.289950,-930.715970,0
0.042708,-199.243182,92.267391,42.791051,1.068642,6.511698,-0.805142,-5.479588,-6.306177,0.649720,5.424747,0.128422,0.321232,0.018727,-85.421699,188.420220,1542.383118,-931.536533,0
0.043750,-183.965683,39.403101,117.062068,2.543610,5.392509,1.541446,-6.407458,-5.075656,-1.662456,6.216778,0.143006,0.331705,-0.022156,-81.121019,188.495640,1541.831008,-931.233707,0
0.044791,-137.455190,-8.140700,183.713987,3.759615,3.627492,3.749037,-6.685819,-3.347609,-3.810709,6.456672,0.132068,0.302836,-0.018440,-61.272592,188.344909,1541.494440,-931.372381,0
0.045833,-80.153269,-62.590567,200.094441,4.142431,0.912082,5.527375,-5.591706,-0.540957,-5.544841,5.295280,0.121129,0.323506,-0.003573,-34.455263,188.420222,1541.729491,-931.765366,0
0.046875,-27.473017,-141.716700,175.742491,3.647022,-1.707921,6.647523,-4.080050,2.026427,-6.679360,3.791183,0.088314,0.358438,0.018727,-11.555831,188.420312,1541.579448,-932.313415,0
0.047916,20.664665,-184.445047,120.938451,2.611166,-3.678428,6.271415,-1.679185,4.134265,-6.170337,1.304662,0.004452,0.320405,-0.040740,7.166763,188.495721,1542.280585,-932.089380,0
0.048958,86.046033,-195.955157,57.518877,1.417680,-5.652605,5.355673,1.131488,6.207922,-5.268760,-1.459831,-0.006487,0.311724,-0.003573,34.760917,188.420439,1542.190527,-932.038626,0
0.050000,150.173109,-158.112734,6.980074,0.449381,-6.320449,3.454692,3.458897,6.781405,-3.288744,-3.763576,-0.053887,0.320612,-0.022156,64.482894,188.344919,1542.613115,-932.557976,0
0.051041,199.293884,-93.092358,-42.222044,-0.507660,-5.920476,0.907785,5.422889,6.458583,-0.756566,-5.732230,-0.097641,0.326744,-0.011006,86.459143,188.417673,1542.499611,-932.718490,0
0.052083,184.287584,-40.897533,-117.124949,-2.005147,-4.786609,-1.475596,6.404885,5.212870,1.624630,-6.573763,-0.093995,0.336183,0.003860,80.875014,188.496074,1543.000566,-933.543804,0
0.053125,138.534186,6.939893,-183.618896,-3.299967,-3.014254,-3.683187,6.667782,3.416461,3.777197,-6.813657,-0.123164,0.345416,-0.037023,61.814671,188.344717,1543.560023,-934.379184,0
0.054166,82.023259,62.258890,-199.962895,-3.558930,-0.383242,-5.473789,5.600731,0.651586,5.576036,-5.633226,-0.093995,0.352375,0.015011,36.877482,188.344399,1544.252967,-934.852446,0
0.055208,29.218708,141.737373,-175.708158,-3.119818,2.244101,-6.581673,4.038816,-1.968969,6.645849,-4.106281,-0.046595,0.328604,-0.025873,12.446917,188.420746,1544.313509,-935.280674,0
0.056250,-19.890767,184.183840,-121.098545,-2.095221,4.280658,-6.279151,1.649549,-4.095796,6.167021,-1.562643,-0.032010,0.333703,-0.014723,-6.455810,188.496129,1544.909191,-936.300368,0
0.057291,-86.074430,195.693950,-57.715426,-0.856698,6.295199,-5.293911,-1.203652,-6.120080,5.239563,1.194234,0.062790,0.316065,-0.040740,-34.534071,188.420833,1545.500767,-936.608796,0
0.058333,-150.246706,157.804547,-6.508281,0.111601,6.952035,-3.401106,-3.527194,-6.663181,3.229350,3.505594,0.091960,0.317994,0.011294,-64.571281,188.269866,1545.175521,-937.682139,0
0.059375,-199.197982,92.795916,42.232074,1.068642,6.500689,-0.792878,-5.514383,-6.340359,0.710113,5.424747,0.143006,0.322197,0.015011,-85.309115,188.420862,1545.800294,-937.566218,0
0.060416,-184.033482,40.096056,116.624608,2.509832,5.403517,1.537358,-6.457718,-5.140220,-1.675397,6.285319,0.128422,0.331636,-0.018440,-83.001159,188.420728,1546.782725,-938.462069,0
0.061458,-137.952387,-7.670900,183.215769,3.804652,3.594467,3.716332,-6.693552,-3.347609,-3.819337,6.506174,0.117483,0.330603,0.000144,-61.835509,188.420698,1547.093005,-939.091552,0
0.062500,-80.560066,-61.956336,200.203806,4.119912,0.941438,5.515111,-5.622635,-0.544755,-5.531900,5.379053,0.113837,0.317374,-0.003573,-36.706928,188.269928,1547.846716,-939.280827,0
0.063542,-27.902414,-141.270390,176.034131,3.647022,-1.638201,6.643435,-4.118711,2.045417,-6.649164,3.806414,0.091960,0.337010,-0.003573,-12.287622,188.420652,1547.545004,-939.511253,0
0.064583,20.246568,-184.092696,121.047817,2.689981,-3.729801,6.304120,-1.702382,4.130467,-6.183278,1.300854,0.019036,0.339215,-0.014723,7.662129,188.420739,1547.403087,-939.687111,0
0.065625,85.153339,-196.049117,57.470270,1.451458,-5.685630,5.314792,1.131488,6.173740,-5.238564,-1.444600,-0.002841,0.326675,-0.029590,34.209259,188.495428,1546.622553,-939.424941,0
0.066666,149.619413,-158.277164,7.065136,0.449381,-6.313110,3.458780,3.439566,6.762416,-3.323254,-3.729305,-0.039302,0.318890,-0.025873,65.383560,188.269250,1546.579483,-938.839822,0
0.067708,198.853187,-93.245043,-41.735978,-0.507660,-5.931485,0.915962,5.449952,6.450988,-0.769507,-5.755077,-0.083057,0.327020,-0.033307,85.941260,188.420604,1546.344252,-939.080764,0
0.068750,184.660481,-41.038474,-116.298635,-1.982628,-4.801287,-1.438803,6.424216,5.239456,1.529728,-6.520453,-0.101287,0.315031,0.000144,83.678337,188.419764,1546.292397,-937.777849,0
0.069791,139.178282,6.787208,-182.768279,-3.288707,-3.087643,-3.654570,6.660049,3.458238,3.738374,-6.787002,-0.137749,0.345209,-0.003573,63.131895,188.420226,1546.098338,-937.179160,0
0.070833,82.599556,61.636405,-200.145170,-3.581449,-0.408928,-5.453349,5.592998,0.704756,5.519957,-5.606571,-0.086703,0.335563,-0.037023,36.877482,188.269415,1545.692458,-936.527219,0
0.071875,29.941904,140.668578,-175.829675,-3.119818,2.174381,-6.532615,4.058146,-1.904405,6.611339,-4.113897,-0.083057,0.334530,-0.044457,13.144933,188.418265,1545.123929,-935.932975,0
0.072916,-19.450070,183.937195,-121.924859,-2.128999,4.236625,-6.238270,1.676612,-3.985657,6.145453,-1.593106,-0.028364,0.337217,0.003860,-6.579651,188.419761,1544.758386,-934.867922,0
0.073958,-84.752338,195.494285,-58.201493,-0.879217,6.258504,-5.240766,-1.157258,-6.055516,5.187797,1.125693,0.026329,0.314893,-0.033307,-33.622147,188.420732,1543.506518,-934.021341,0
0.075000,-150.020707,158.979048,-6.933590,0.089083,6.878645,-3.433811,-3.446005,-6.678372,3.311311,3.418014,0.059144,0.319647,-0.003573,-63.929557,188.269973,1544.542156,-933.240066,0
0.076041,-198.056690,93.700282,41.709552,1.068642,6.493350,-0.911433,-5.417730,-6.306177,0.666975,5.367629,0.102898,0.323919,0.011294,-85.230307,188.420708,1543.033413,-933.276582,0
0.077083,-185.231274,40.683307,115.919811,2.487314,5.374161,1.500565,-6.411324,-5.109837,-1.602063,6.205354,0.139360,0.340042,-0.014723,-81.503802,188.420689,1542.354164,-932.492665,0
0.078125,-138.878981,-7.259825,182.170725,3.815911,3.590797,3.679539,-6.639426,-3.328619,-3.776199,6.418593,0.139360,0.334668,-0.011006,-61.677892,188.420830,1540.868072,-932.111966,0
0.079166,-81.215462,-61.286871,200.823541,4.119912,0.923091,5.466053,-5.626501,-0.582734,-5.497390,5.329551,0.081021,0.331774,0.018727,-34.860563,188.269924,1540.363242,-931.947553,0
0.080208,-28.682109,-140.154614,176.131344,3.669540,-1.608846,6.553496,-4.076184,1.977055,-6.627595,3.779759,0.062790,0.345898,0.000144,-11.893581,188.345359,1539.519301,-931.560369,0
0.081250,19.805871,-184.386322,121.922737,2.644944,-3.594030,6.234622,-1.702382,4.084892,-6.101316,1.316085,0.055498,0.314204,-0.040740,6.964113,188.420768,1538.739769,-931.198525,0
0.082291,83.932947,-195.825962,57.919882,1.417680,-5.604902,5.245294,1.135355,6.162347,-5.178171,-1.452216,-0.028364,0.318614,-0.029590,33.905284,188.420799,1537.399395,-931.613922,0
0.083333,149.495114,-159.334215,7.101591,0.415603,-6.276415,3.446516,3.389306,6.739628,-3.314626,-3.702650,-0.035656,0.319372,-0.011006,63.998786,188.269935,1537.266570,-931.596080,0
0.084375,197.700595,-93.374238,-41.237759,-0.473882,-5.858095,0.932314,5.376495,6.394019,-0.756566,-5.621802,-0.079410,0.325091,-0.051890,85.930002,188.345315,1535.376515,-930.178897,0
0.085416,185.474076,-40.803573,-115.557383,-1.948850,-4.823304,-1.426538,6.315964,5.205275,1.546983,-6.463336,-0.115872,0.334254,-0.022156,81.381639,188.420737,1534.483490,-930.147994,0
0.086458,139.392980,6.869423,-181.759690,-3.243670,-3.003245,-3.564631,6.594325,3.424057,3.703864,-6.748924,-0.126811,0.331223,0.018727,62.129904,188.345332,1533.379901,-929.772646,0
0.087500,82.486556,60.990429,-200.801360,-3.570190,-0.364894,-5.420643,5.608463,0.685767,5.519957,-5.576108,-0.097641,0.318752,-0.033307,37.462915,188.269922,1532.909998,-930.169539,0
0.088541,30.269601,139.963877,-175.999798,-3.142336,2.141356,-6.528527,4.058146,-1.904405,6.559574,-4.102474,-0.083057,0.335632,-0.018440,13.212483,188.345321,1532.057471,-930.074181,0
0.089583,-19.043273,183.913705,-122.690414,-2.174036,4.243964,-6.213741,1.676612,-4.019838,6.110942,-1.612145,-0.042949,0.332049,-0.018440,-6.196868,188.420745,1531.872805,-930.626360,0
0.090625,-83.882244,195.083209,-58.954896,-0.879217,6.225479,-5.244854,-1.145660,-6.070707,5.170542,1.133309,0.015390,0.316065,-0.025873,-33.453272,188.420632,1531.229503,-931.248527,0
0.091666,-149.715609,159.730729,-7.334595,0.100342,6.926348,-3.409282,-3.422809,-6.644191,3.281115,3.395167,0.106545,0.317098,-0.018440,-64.413665,188.271954,1530.555645,-931.345265,0
0.092708,-197.423894,94.675118,41.381457,1.012346,6.452986,-0.882817,-5.375202,-6.294784,0.718741,5.356205,0.070083,0.323713,-0.011006,-84.644874,188.269942,1530.443249,-931.138263,0
0.093750,-185.717171,41.470222,115.190711,2.464795,5.388839,1.467860,-6.372663,-5.102241,-1.576181,6.197739,0.117483,0.331360,-0.011006,-83.530300,188.420746,1530.170524,-931.311533,0
0.094791,-139.771675,-7.001434,181.271501,3.714578,3.565111,3.650922,-6.631694,-3.321024,-3.724434,6.422401,0.164883,0.343625,-0.011006,-62.420941,188.496282,1529.835677,-931.143893,0
0.095833,-81.916057,-60.699620,200.957210,4.176209,0.963455,5.429260,-5.583973,-0.594127,-5.462880,5.287664,0.139360,0.342453,-0.022156,-37.337394,188.270027,1529.116834,-931.119700,0
0.096875,-29.337505,-139.261993,176.313619,3.647022,-1.546465,6.496262,-4.052987,1.969459,-6.524065,3.772143,0.095606,0.328673,-0.011006,-12.974380,188.269933,1527.764506,-930.699194,0
0.097916,19.399073,-183.940011,122.688292,2.701241,-3.575683,6.238710,-1.690784,4.062105,-6.079748,1.316085,0.040913,0.293741,-0.011006,7.493254,188.420954,1527.270064,-930.774129,0
0.098958,82.757755,-195.638041,58.418101,1.417680,-5.560868,5.212589,1.119890,6.018026,-5.191113,-1.436984,-0.035656,0.312206,-0.018440,33.027135,188.496243,1526.061586,-929.646583,0
0.100000,149.054416,-160.215091,7.478293,0.438121,-6.206695,3.442428,3.385440,6.671266,-3.301685,-3.637917,-0.057533,0.312895,-0.011006,65.000777,188.269836,1525.235356,-928.995587,0
0.101042,196.638402,-94.172899,-40.885360,-0.507660,-5.762689,0.895521,5.295307,6.306667,-0.773821,-5.614187,-0.093995,0.321921,-0.007290,85.153178,188.269875,1523.868445,-928.845516,0
0.102083,186.310270,-40.874043,-114.451581,-1.903813,-4.705881,-1.389745,6.246374,5.190083,1.529728,-6.413834,-0.152334,0.322472,-0.022156,84.286287,188.420714,1523.189479,-928.619588,0
0.103125,140.364774,7.210028,-180.179973,-3.164855,-2.992237,-3.527838,6.505404,3.412663,3.634843,-6.672767,-0.126811,0.345072,-0.040740,63.593486,188.496145,1521.848576,-927.684245,0
0.104166,82.475256,60.520629,-201.165910,-3.525153,-0.416267,-5.371586,5.511810,0.712352,5.386230,-5.534222,-0.083057,0.339766,-0.037023,37.474173,188.269935,1520.795463,-926.258759,0
0.105208,30.540800,138.225615,-176.218528,-3.153596,2.086314,-6.369090,4.004020,-1.798063,6.468985,-4.087242,-0.068472,0.328260,-0.029590,13.865466,188.269957,1519.416450,-924.780996,0
0.106250,-18.738175,183.937195,-123.844823,-2.128999,4.144888,-6.136067,1.730738,-3.921093,6.033295,-1.638800,-0.024718,0.323299,-0.040740,-6.320710,188.420689,1518.626633,-923.791410,0
0.107291,-82.266355,194.589919,-59.720452,-0.901736,6.100717,-5.150827,-1.110865,-5.903599,5.097208,1.083807,0.011744,0.311793,-0.051890,-32.620156,188.496232,1516.206794,-922.303502,0
0.108333,-149.659110,161.116640,-7.626235,0.111601,6.797917,-3.433811,-3.357084,-6.553041,3.259546,3.292355,0.055498,0.316616,-0.014723,-63.535516,188.269879,1515.383906,-921.238031,0
0.109375,-195.480307,95.849619,40.992603,1.057383,6.320885,-0.878728,-5.266951,-6.135272,0.748937,5.222931,0.113837,0.322679,-0.025873,-84.622358,188.269819,1512.479235,-919.509481,0
0.110416,-186.948863,41.963513,114.473762,2.464795,5.359483,1.369744,-6.287608,-5.041475,-1.528729,6.053041,0.113837,0.331429,-0.014723,-82.145526,188.420779,1510.900612,-918.477327,0
