1-Time,2-VGERA,3-VGERB,4-VGERC,5-VN,6-IGERAN,7-IGERBN,8-IGERCN,9-IGERAT,10-IGERBT,11-IGERCT,12-IN,13-IFD,14-IFAULT,15-VFAULT,16-Speed (rad/s),17-FAULT 
0.000000,-131.037456,-75.236978,169.984470,6.117468,4.989156,-1.634495,-3.474633,-4.943754,1.891246,3.286116,-0.172276,0.555480,-0.046895,39.474238,188.344655,0
0.001042,-50.074688,-126.798276,184.806440,6.524628,4.669631,0.300904,-4.998711,-4.668073,-0.139281,4.957343,-0.205153,0.566585,-0.024490,24.635518,188.269310,0
0.002083,21.065475,-168.380748,160.936175,5.981748,3.632950,1.885798,-5.488453,-3.635187,-1.726639,5.402750,-0.238030,0.557440,-0.017021,9.152128,188.193863,0
0.003125,89.335986,-182.346273,113.491099,5.167428,1.751303,3.668803,-5.257295,-1.771582,-3.527523,5.261895,-0.227071,0.565410,-0.017021,-8.276581,188.193892,0
0.004167,138.539753,-178.250846,30.012879,3.504858,-0.119694,4.625073,-4.289564,0.073645,-4.494442,4.317785,-0.205153,0.566455,-0.024490,-21.633691,188.344654,0
0.005208,169.334642,-152.494359,-45.217235,2.136348,-2.033294,4.948910,-2.702799,1.996062,-4.933583,2.760764,-0.179582,0.550450,-0.046895,-29.697721,188.193785,0
0.006250,173.542709,-82.328469,-110.869697,0.813078,-3.797782,4.503158,-0.348118,3.745719,-4.470269,0.529923,-0.154011,0.549144,0.009119,-34.199101,188.193904,0
0.007292,173.236462,2.032484,-152.775000,0.077928,-4.806061,3.664993,1.458052,4.826389,-3.644359,-1.331649,-0.080951,0.556460,-0.028224,-38.259391,188.193874,0
0.008333,129.885425,76.644147,-170.034470,-0.329232,-4.912570,1.798171,3.417021,4.936662,-1.895849,-3.193221,-0.029809,0.533923,-0.039427,-32.321641,188.344722,0
0.009375,50.102276,126.888627,-185.693561,-0.566742,-4.600145,-0.175326,4.945018,4.627899,0.122592,-4.826379,-0.044421,0.565997,-0.039427,-20.989021,188.193800,0
0.010417,-19.597389,169.002658,-159.952084,-0.159582,-3.559914,-1.821177,5.481775,3.598689,1.681748,-5.328890,-0.029809,0.574294,-0.005818,-6.263401,188.269283,0
0.011458,-90.397277,182.267491,-111.989962,0.824388,-1.621462,-3.539415,5.203601,1.702002,3.478604,-5.066214,-0.004238,0.562209,-0.039427,14.660098,188.194005,0
0.012500,-138.602904,178.715705,-30.062879,2.294688,0.302789,-4.491875,4.141840,-0.168955,4.493867,-4.106876,-0.033462,0.561098,-0.039427,25.834378,188.344621,0
0.013542,-169.567931,153.285402,44.539394,3.821538,2.148934,-4.838571,2.594254,-2.084021,4.888692,-2.595538,-0.066339,0.557113,-0.035692,35.730628,188.193915,0
0.014583,-174.252383,80.908706,110.721212,5.009088,3.913422,-4.240426,0.172968,-3.738108,4.344801,-0.273332,-0.080951,0.526868,-0.028224,38.399788,188.269306,0
0.015625,-173.617203,-1.386412,152.688069,5.879958,4.900399,-3.432740,-1.601858,-4.870239,3.587382,1.569206,-0.143052,0.553390,-0.050629,42.923788,188.193865,0
0.016667,-130.515701,-74.753742,170.550758,6.207948,4.996257,-1.623065,-3.521648,-4.962133,1.834843,3.396516,-0.186888,0.550123,0.012853,39.836158,188.269406,0
0.017708,-48.815670,-126.460011,186.062122,6.502008,4.616377,0.358052,-4.990875,-4.565152,-0.235973,4.976378,-0.238030,0.539476,-0.035692,25.529008,188.269254,0
0.018750,18.728920,-168.719013,160.209849,6.060918,3.622299,1.958185,-5.523715,-3.686648,-1.779013,5.471274,-0.216112,0.574490,-0.005818,11.108758,188.269246,0
0.019792,89.381356,-181.959684,112.481629,5.043018,1.644794,3.664993,-5.225951,-1.672337,-3.563783,5.235246,-0.208806,0.564691,-0.013287,-8.842081,188.193931,0
0.020833,137.961285,-179.156914,29.323485,3.572718,-0.226202,4.609834,-4.172026,0.139808,-4.478326,4.218805,-0.212459,0.556199,-0.020755,-21.362251,188.269299,0
0.021875,169.504779,-153.195052,-44.995644,2.068488,-2.061696,5.009867,-2.647948,2.007089,-4.981929,2.768378,-0.175929,0.563450,-0.020755,-29.754271,188.269315,0
0.022917,174.166547,-81.857313,-110.451137,0.892248,-3.819084,4.484109,-0.301102,3.764098,-4.425951,0.507082,-0.139399,0.547968,-0.017021,-34.131241,188.269335,0
0.023958,173.315859,3.300979,-151.974811,0.055308,-4.802511,3.581177,1.516821,4.833741,-3.579898,-1.423014,-0.088257,0.524385,0.001650,-38.564761,188.193718,0
0.025000,131.144443,74.578313,-170.379167,-0.295302,-4.930321,1.794362,3.471873,4.980771,-1.879734,-3.216062,-0.055380,0.559269,-0.020755,-34.165171,188.269218,0
0.026042,49.376356,126.683252,-185.878220,-0.600672,-4.575293,-0.198185,4.995951,4.598493,0.130650,-4.864448,-0.015197,0.559530,0.016587,-21.916441,188.269210,0
0.027083,-20.482104,168.579827,-160.309091,-0.159582,-3.559914,-1.844036,5.450432,3.583986,1.734122,-5.306048,-0.007891,0.571289,-0.002084,-4.985371,188.269295,0
0.028125,-88.945437,182.533271,-110.340341,0.801768,-1.621462,-3.596563,5.176176,1.698326,3.530978,-5.119510,-0.044421,0.572203,-0.017021,14.094598,188.193902,0
0.029167,-137.979067,179.150618,-26.320455,2.486958,0.341842,-4.484256,4.157512,-0.227767,4.469695,-4.072614,-0.040768,0.558093,-0.013287,25.608178,188.269330,0
0.030208,-169.601958,153.285402,48.688068,3.798918,2.180886,-4.819522,2.551157,-2.098724,4.880635,-2.546049,-0.091910,0.552018,-0.002084,34.859758,188.269321,0
0.031250,-174.104931,83.216159,112.887879,5.088258,3.934724,-4.320433,0.200394,-3.804272,4.437464,-0.315208,-0.132093,0.550385,-0.002084,39.044458,188.269295,0
0.032292,-173.855396,-2.207913,153.106629,5.846028,4.896849,-3.444169,-1.644955,-4.859212,3.583353,1.584433,-0.175929,0.547380,-0.009553,42.380908,188.193924,0
0.033333,-130.708524,-75.478596,170.156819,6.162708,4.953654,-1.565918,-3.517730,-4.940079,1.802612,3.407936,-0.190541,0.539737,-0.013287,39.587338,188.269310,0
0.034375,-50.880005,-125.904289,187.231629,6.490698,4.676732,0.399960,-5.061398,-4.686452,-0.219858,5.018253,-0.238030,0.564495,-0.013287,24.771238,188.346863,0
0.035417,19.953910,-168.247858,158.498675,5.947818,3.576146,1.984854,-5.562894,-3.646215,-1.795129,5.471274,-0.238030,0.575862,-0.031958,9.367018,188.274381,0
0.036458,89.052423,-182.539567,110.117993,5.065638,1.673196,3.771669,-5.276884,-1.694391,-3.648388,5.239053,-0.201500,0.562731,-0.024490,-8.265271,188.194061,0
0.037502,137.972628,-178.770325,26.922917,3.459618,-0.229753,4.674601,-4.199451,0.169214,-4.534730,4.272102,-0.201500,0.568023,-0.028224,-21.407491,188.194184,0
0.038542,169.232559,-153.050081,-48.984280,2.057178,-2.104300,4.998438,-2.604850,2.113686,-4.933583,2.677012,-0.205153,0.549013,-0.017021,-29.709031,188.344885,0
0.039583,173.917012,-81.796909,-112.457765,0.824388,-3.819084,4.415532,-0.222744,3.822910,-4.341346,0.381454,-0.113828,0.538757,-0.017021,-34.210411,188.269509,0
0.040625,173.678819,0.957284,-153.538258,0.032688,-4.791860,3.573557,1.544247,4.826389,-3.571841,-1.449663,-0.102869,0.554239,-0.050629,-38.315941,188.194020,0
0.041667,130.203015,75.387733,-170.231440,-0.295302,-4.880617,1.725784,3.475791,4.910932,-1.827359,-3.246518,-0.059033,0.550777,0.009119,-32.468671,188.194195,0
0.042708,50.022879,126.115449,-187.318561,-0.600672,-4.507838,-0.247713,4.956771,4.572763,0.235399,-4.879676,-0.051727,0.555807,-0.031958,-21.022951,188.420318,0
0.043750,-18.633277,168.712717,-159.053410,-0.148272,-3.499559,-1.878325,5.458267,3.561931,1.766353,-5.309855,-0.022503,0.573706,-0.039427,-6.365191,188.194130,0
0.044792,-89.421822,182.412462,-110.758902,0.892248,-1.550456,-3.623232,5.125243,1.606432,3.555151,-5.062407,-0.011544,0.559596,-0.013287,14.354728,188.268997,0
0.045833,-137.933697,179.392236,-27.120644,2.373858,0.345392,-4.457587,3.996876,-0.231443,4.461637,-4.015510,-0.040768,0.557244,-0.009553,25.676038,188.193872,0
0.046875,-169.624643,153.732396,47.715530,3.832848,2.195087,-4.823332,2.519814,-2.109751,4.920923,-2.507980,-0.091910,0.560706,-0.020755,35.662768,188.420133,0
0.047917,-174.479233,81.536913,112.186175,5.076948,3.931173,-4.263285,0.129871,-3.785893,4.328686,-0.227649,-0.128440,0.541435,0.005384,38.433718,188.193888,0
0.048958,-174.138958,-1.326007,153.426705,5.800788,4.886198,-3.360353,-1.660627,-4.829806,3.494719,1.664378,-0.157664,0.545877,-0.005818,43.014268,188.269371,0
0.050000,-131.457129,-73.557732,170.538447,6.174018,5.003357,-1.543059,-3.564745,-4.951106,1.770382,3.453619,-0.183235,0.555872,-0.017021,39.983188,188.193884,0
0.051042,-49.280713,-125.686833,187.625569,6.513318,4.577324,0.411389,-5.057480,-4.561476,-0.304463,5.003026,-0.216112,0.550123,-0.005818,25.676038,188.420059,0
0.052083,18.649523,-168.332424,158.917235,5.981748,3.512241,2.015332,-5.539386,-3.635187,-1.843475,5.444626,-0.252642,0.569198,-0.050629,11.040898,188.269348,0
0.053125,88.042941,-182.237545,110.832008,5.043018,1.609291,3.745000,-5.222033,-1.639255,-3.624215,5.250474,-0.234377,0.566324,-0.009553,-8.491471,188.269297,0
0.054167,137.235365,-179.640150,26.565909,3.504858,-0.279457,4.655552,-4.144600,0.228026,-4.518614,4.218805,-0.205153,0.555872,-0.017021,-21.158671,188.193870,0
0.055208,169.584177,-153.243375,-48.134849,2.045868,-2.079448,4.960339,-2.620522,2.098983,-4.917468,2.677012,-0.201500,0.554043,-0.069301,-29.595931,188.420083,0
0.056250,174.007752,-83.222456,-112.297728,0.869628,-3.826185,4.480299,-0.308938,3.789828,-4.438038,0.446171,-0.124787,0.549536,-0.035692,-34.119931,188.269348,0
0.057292,173.780902,2.684853,-153.095076,-0.001242,-4.788310,3.565937,1.532493,4.855795,-3.575869,-1.403980,-0.088257,0.538692,0.012853,-38.677861,188.269387,0
0.058333,130.906250,75.182358,-170.059091,-0.250062,-4.852215,1.721975,3.456201,4.907256,-1.799157,-3.223676,-0.048074,0.543852,-0.024490,-34.278271,188.193861,0
0.059375,50.986992,125.813426,-187.207766,-0.645912,-4.511388,-0.243903,5.015540,4.532329,0.183025,-4.841607,-0.066339,0.557375,-0.017021,-22.063471,188.420164,0
0.060417,-19.858267,167.879134,-159.004167,-0.035172,-3.471157,-1.817367,5.419088,3.617068,1.705920,-5.241331,-0.007891,0.508185,-0.002084,-5.335981,188.269290,0
0.061458,-87.901927,182.871536,-110.721970,0.779148,-1.575308,-3.524176,5.125243,1.665244,3.522921,-5.062407,-0.037115,0.561359,-0.031958,14.015428,188.269275,0
0.062500,-137.434627,179.295589,-27.526894,2.419098,0.281487,-4.419489,4.118332,-0.176306,4.433435,-4.068807,-0.048074,0.558093,-0.028224,25.427218,188.193919,0
0.063542,-169.681356,153.212917,47.026137,3.832848,2.124082,-4.766184,2.496306,-2.036236,4.796029,-2.530821,-0.113828,0.545877,-0.043161,34.780588,188.420164,0
0.064583,-173.719286,84.412168,111.299811,4.975158,3.845967,-4.225187,0.235655,-3.712378,4.385089,-0.391346,-0.117481,0.546988,-0.043161,38.840878,188.269246,0
0.065625,-174.082246,-0.504506,152.995834,5.868648,4.868447,-3.375592,-1.531335,-4.785697,3.514863,1.493068,-0.164970,0.547380,-0.031958,42.482698,188.269324,0
0.066667,-131.752034,-74.910794,169.639773,6.117468,4.903950,-1.588777,-3.447207,-4.873915,1.830814,3.297536,-0.194194,0.541501,-0.035692,39.790918,188.193814,0
0.067708,-52.048283,-125.360649,186.726895,6.456768,4.630578,0.339002,-5.006547,-4.631316,-0.183599,4.926888,-0.219765,0.561033,-0.031958,24.861718,188.344630,0
0.068750,18.161795,-167.414276,159.520455,5.981748,3.579696,1.878178,-5.472781,-3.653566,-1.698437,5.402750,-0.216112,0.560053,-0.035692,9.887278,188.344670,0
0.069792,87.940858,-183.095289,110.745834,5.088258,1.637694,3.626895,-5.210279,-1.716446,-3.467091,5.208598,-0.216112,0.557897,-0.028224,-8.050381,188.269349,0
0.070833,136.906433,-179.048186,28.671023,3.482238,-0.126795,4.537447,-4.203369,0.114078,-4.421923,4.253067,-0.216112,0.562274,-0.050629,-21.260461,188.193902,0
0.071875,170.196672,-152.893029,-46.916099,2.125038,-1.990691,4.964149,-2.659701,2.025468,-4.877180,2.783606,-0.164970,0.552606,-0.020755,-29.765581,188.344706,0
0.072917,173.100352,-83.174132,-111.583712,0.880938,-3.716126,4.385053,-0.352036,3.719989,-4.389692,0.537537,-0.164970,0.528958,-0.020755,-33.938971,188.344715,0
0.073958,173.928354,-0.190402,-152.947349,0.077928,-4.703103,3.565937,1.450216,4.723468,-3.563783,-1.327842,-0.091910,0.552606,-0.020755,-38.508211,188.269216,0
0.075000,132.221980,74.300452,-169.702084,-0.272682,-4.827363,1.821030,3.326909,4.859471,-1.903907,-3.086628,-0.073645,0.542350,0.009119,-32.559151,188.193868,0
0.076042,50.714772,125.897993,-186.616857,-0.600672,-4.500737,-0.182946,4.878413,4.591141,0.170938,-4.727400,-0.040768,0.527848,-0.028224,-20.943781,188.269312,0
0.077083,-17.215464,167.685840,-159.755114,-0.159582,-3.503109,-1.722121,5.364237,3.606040,1.617286,-5.226103,-0.015197,0.569198,-0.017021,-6.919381,188.420066,0
0.078125,-87.822530,182.883617,-111.472917,0.835698,-1.649864,-3.470838,5.125243,1.705678,3.442344,-5.031952,-0.022503,0.555676,-0.020755,13.902328,188.269313,0
0.079167,-137.026297,179.513045,-28.351705,2.396478,0.210482,-4.324242,4.114415,-0.077061,4.340772,-4.053579,-0.007891,0.550254,-0.017021,25.608178,188.269270,0
0.080208,-170.611441,153.514939,45.142614,3.719748,2.035325,-4.762374,2.598172,-1.951694,4.844375,-2.629800,-0.051727,0.559792,-0.017021,35.775868,188.269297,0
0.081250,-173.401696,84.532977,111.102841,5.043018,3.721707,-4.259475,0.349276,-3.635187,4.348830,-0.448449,-0.132093,0.543526,-0.005818,38.218828,188.420016,0
0.082292,-174.161643,-0.939418,152.552652,5.766858,4.733536,-3.425120,-1.511745,-4.697479,3.539036,1.466420,-0.128440,0.548948,-0.039427,43.014268,188.344731,0
0.083333,-133.555492,-72.832878,169.725947,6.162708,4.914600,-1.684023,-3.361012,-4.895970,1.879160,3.183330,-0.183235,0.554108,-0.005818,40.345108,188.269221,0
0.084375,-51.583240,-125.493539,186.320645,6.490698,4.662531,0.262806,-4.963449,-4.568828,-0.147339,4.888819,-0.241683,0.553978,-0.024490,25.721278,188.193973,0
0.085417,18.309248,-167.039768,159.963637,6.004368,3.657802,1.794362,-5.406176,-3.708702,-1.617860,5.353260,-0.208806,0.572661,-0.024490,11.459368,188.420028,0
0.086458,86.398278,-182.865752,112.112311,5.088258,1.783255,3.565937,-5.222033,-1.826718,-3.430832,5.204791,-0.263601,0.566128,-0.031958,-8.118241,188.420099,0
0.087500,136.486760,-179.301885,28.424811,3.595338,-0.052239,4.491729,-4.266056,0.011157,-4.345375,4.264488,-0.179582,0.554566,-0.009553,-21.136051,188.269265,0
0.088542,170.457549,-152.675573,-46.103599,2.068488,-1.884182,4.922241,-2.749814,1.878438,-4.869122,2.855937,-0.150358,0.552018,-0.028224,-29.562001,188.269290,0
0.089583,172.317719,-85.928578,-111.325190,0.858318,-3.616718,4.476489,-0.528343,3.591337,-4.474297,0.689813,-0.132093,0.549928,-0.031958,-33.825871,188.420084,0
0.090625,173.735532,0.848555,-152.627273,0.089238,-4.688902,3.664993,1.297417,4.694062,-3.648388,-1.186987,-0.102869,0.547576,-0.005818,-38.553451,188.419048,0
0.091667,133.310860,74.807850,-168.963447,-0.227442,-4.774109,1.889608,3.205453,4.848444,-1.992541,-2.949580,-0.044421,0.541435,-0.024490,-34.538401,188.269648,0
0.092708,53.482342,125.716779,-185.705872,-0.611982,-4.582394,-0.026742,4.796136,4.598493,0.001727,-4.693138,-0.029809,0.559530,-0.039427,-22.187881,188.269767,0
0.093750,-18.327029,166.598558,-159.853599,-0.091722,-3.662872,-1.558298,5.352483,3.697934,1.488364,-5.153772,0.006721,0.572269,-0.009553,-6.444361,188.420605,0
0.094792,-86.847075,183.391015,-111.620644,0.722598,-1.735071,-3.390832,5.129161,1.823302,3.305364,-5.092862,-0.018850,0.559661,-0.028224,13.766608,188.420627,0
0.095833,-136.617967,179.186860,-29.311932,2.419098,-0.002535,-4.320433,4.235871,0.073645,4.280340,-4.221083,-0.026156,0.564038,-0.024490,25.449838,188.269818,0
0.096875,-170.974401,152.560548,45.622727,3.810228,1.893314,-4.701417,2.747054,-1.812015,4.808116,-2.785883,-0.066339,0.553128,-0.020755,35.052028,188.269445,0
0.097917,-172.403556,86.502165,111.459849,4.963848,3.629400,-4.286144,0.498157,-3.528591,4.421349,-0.600725,-0.121134,0.544506,0.012853,38.433718,188.419826,0
0.098958,-173.923451,1.416358,152.860417,5.902578,4.726436,-3.562274,-1.323684,-4.657046,3.647814,1.279882,-0.139399,0.554958,-0.002084,42.448768,188.419909,0
0.100000,-134.077247,-74.330910,168.716478,6.151398,4.868447,-1.809748,-3.223885,-4.848185,2.064486,3.053895,-0.201500,0.530395,-0.039427,40.130218,188.269631,0
0.101042,-53.295958,-125.759319,185.446591,6.445458,4.673182,0.144701,-4.853747,-4.638667,0.009785,4.805067,-0.197847,0.558289,-0.020755,24.986128,188.269143,0
0.102083,16.244913,-166.230347,160.086743,5.981748,3.789162,1.691496,-5.425766,-3.804272,-1.476851,5.357067,-0.219765,0.573183,-0.024490,10.486708,188.419448,0
0.103125,86.738553,-183.445635,111.779925,5.110878,1.882663,3.489741,-5.237705,-1.907585,-3.342198,5.258088,-0.230724,0.562143,-0.020755,-7.620601,188.495360,0
0.104167,135.965005,-179.144833,29.902083,3.516168,0.121725,4.430771,-4.336579,-0.102791,-4.333289,4.363467,-0.208806,0.562797,-0.020755,-21.328321,188.268437,0
0.105208,171.614484,-152.204417,-44.417046,2.136348,-1.791875,4.910811,-2.933957,1.749787,-4.885238,2.989178,-0.190541,0.563058,-0.005818,-30.025711,188.268961,0
0.106250,172.068184,-85.831931,-111.583712,0.892248,-3.488908,4.499348,-0.688978,3.477389,-4.486384,0.838282,-0.146705,0.539476,0.001650,-33.633601,188.419799,0
0.107292,173.678819,-1.084389,-152.639584,0.043998,-4.642749,3.756430,1.195550,4.620547,-3.728965,-1.084201,-0.113828,0.552214,-0.028224,-38.598691,188.492814,0
0.108333,134.887468,73.478950,-168.791099,-0.317922,-4.894818,2.087719,3.080079,4.929310,-2.157723,-2.884862,-0.051727,0.558485,-0.009553,-32.762731,188.269346,0
0.109375,52.404804,126.344986,-184.622538,-0.532812,-4.610796,0.041835,4.776546,4.664656,-0.058705,-4.632228,0.010374,0.549013,-0.017021,-20.841991,188.269362,0
0.110417,-16.205981,166.356940,-160.493750,-0.159582,-3.698375,-1.485911,5.328976,3.782476,1.423903,-5.184228,-0.015197,0.570766,-0.046895,-7.496191,188.420050,0
0.111458,-86.189209,183.173559,-112.113069,0.869628,-1.838029,-3.329874,5.242781,1.926223,3.281191,-5.089055,-0.018850,0.566455,-0.024490,13.393378,188.495604,0
0.112500,-136.209637,179.694258,-28.905682,2.373858,-0.023837,-4.293764,4.290722,0.136132,4.296455,-4.255345,-0.029809,0.555480,0.009119,25.608178,188.344739,0
0.113542,-171.711663,152.705519,43.948485,3.719748,1.832959,-4.754754,2.813659,-1.742176,4.868548,-2.865828,-0.077298,0.560445,-0.024490,36.035998,188.269427,0
0.114583,-172.516981,87.927712,111.250569,5.088258,3.593897,-4.366151,0.564762,-3.477130,4.469695,-0.699704,-0.091910,0.551822,-0.002084,38.037868,188.420119,0
0.115625,-174.014191,0.135782,152.454167,5.812098,4.701584,-3.573704,-1.284505,-4.616613,3.651843,1.234199,-0.179582,0.536536,-0.009553,42.799378,188.420075,0
0.116667,-135.563114,-72.893283,168.975001,6.174018,4.939452,-1.885944,-3.196459,-4.914348,2.104774,3.023440,-0.183235,0.561033,0.001650,40.752268,188.344834,0
0.117708,-54.305441,-125.819723,185.064963,6.468078,4.740637,0.053264,-4.889008,-4.701155,0.066189,4.816488,-0.227071,0.562470,0.001650,25.800448,188.269330,0
0.118750,17.379163,-165.819596,160.726894,6.015678,3.799813,1.600060,-5.410094,-3.844705,-1.416419,5.296157,-0.227071,0.573053,0.020321,12.002248,188.420097,0
0.119792,85.252686,-183.083208,112.887879,5.065638,1.935917,3.440213,-5.308228,-1.992127,-3.330111,5.273315,-0.248989,0.571093,-0.024490,-7.801561,188.495490,0
0.120833,135.851580,-179.386451,30.209849,3.606648,0.206932,4.449821,-4.422774,-0.194685,-4.313144,4.454833,-0.241683,0.565867,-0.024490,-21.113431,188.420153,0
0.121875,171.228839,-151.950718,-44.010796,2.136348,-1.699568,4.899382,-2.941793,1.683623,-4.885238,3.008212,-0.194194,0.554239,-0.031958,-29.641171,188.269359,0
0.122917,171.932074,-88.477649,-111.042046,0.892248,-3.460506,4.571735,-0.739911,3.436956,-4.575018,0.933454,-0.124787,0.556917,-0.005818,-33.667531,188.420139,0
0.123958,173.429284,-1.434735,-152.442614,0.032688,-4.635648,3.809767,1.152453,4.631575,-3.769253,-1.008063,-0.095563,0.550450,-0.020755,-38.417731,188.495477,0
0.125000,135.363853,74.626636,-168.520266,-0.216132,-4.820262,2.137247,3.005638,4.903580,-2.214126,-2.789690,-0.062686,0.542219,-0.013287,-34.832461,188.420193,0
0.126042,55.762184,126.091287,-184.364016,-0.645912,-4.681802,0.144701,4.760874,4.694062,-0.195685,-4.605579,-0.033462,0.568023,-0.002084,-22.267051,188.269398,0
0.127083,-16.330749,165.668329,-160.986175,-0.159582,-3.797782,-1.386855,5.360319,3.841288,1.347355,-5.180421,0.010374,0.567631,0.009119,-7.439641,188.420101,0
