1-Time,2-VGERA,3-VGERB,4-VGERC,5-VN,6-IGERAN,7-IGERBN,8-IGERCN,9-IGERAT,10-IGERBT,11-IGERCT,12-IN,13-IFD,14-IFAULT,15-VFAULT,16-Speed (rad/s),17-Active Power,18-Reactive Power,19-FAULT 
0.000000,-165.121670,168.144914,19.487311,3.256038,5.063712,-4.728077,-0.710630,-4.914348,4.886183,0.599822,-0.168623,0.448674,-0.024490,-66.907620,188.645966,1581.486103,21.737600,0
0.001042,-185.980529,102.303987,76.079167,4.341798,5.621106,-2.890623,-2.934526,-5.384844,3.119375,2.684720,-0.186888,0.452397,-0.050629,-112.011899,188.580526,1582.928603,21.505453,0
0.002083,-191.685807,26.786256,137.250569,5.472798,5.677910,-1.092854,-4.471851,-5.491441,1.302207,4.267962,-0.216112,0.459387,-0.069301,-154.775008,188.595989,1584.131979,21.307099,0
0.003125,-148.312085,-41.120505,178.195644,6.219258,4.641229,1.002558,-5.408425,-4.532070,-0.737385,5.139634,-0.263601,0.477482,-0.054364,-166.107628,188.723648,1586.325372,20.338512,0
0.004175,-73.292786,-93.237525,205.402084,6.807378,2.830587,3.387677,-5.647232,-2.727277,-3.221828,5.530997,-0.245336,0.440443,-0.028224,-152.988028,188.647262,1586.911448,19.884770,0
0.005209,-11.237966,-154.173605,176.385985,6.264498,0.806929,4.713184,-4.953198,-0.705615,-4.497622,4.787408,-0.234377,0.424699,-0.046895,-114.963809,188.571444,1588.320135,19.217023,0
0.006250,50.760142,-194.487581,128.066856,5.303148,-1.461699,5.522775,-3.471844,1.551296,-5.471255,3.481678,-0.197847,0.457493,-0.061832,-66.828450,188.647020,1588.472471,18.921888,0
0.007292,107.143711,-195.538620,49.562121,3.866778,-3.545713,5.522775,-1.326306,3.679555,-5.425091,1.396780,-0.201500,0.446257,-0.043161,4.073938,188.722148,1589.586702,18.190556,0
0.008333,165.081204,-167.800865,-19.660417,2.520888,-4.962274,4.808430,0.602812,5.124125,-4.892111,-0.481764,-0.102869,0.453704,-0.035692,72.533367,188.646824,1590.375383,18.076726,0
0.009375,186.008117,-100.631038,-76.178409,1.457748,-5.555170,3.018599,2.878948,5.675488,-3.100123,-2.588009,-0.080951,0.450764,-0.043161,117.411446,188.571873,1591.865305,17.222895,0
0.010417,190.737940,-24.364291,-137.497538,0.315438,-5.523218,1.228767,4.337914,5.719597,-1.316529,-4.178366,-0.062686,0.434760,-0.065566,159.857875,188.646933,1592.460018,17.071308,0
0.011458,147.148711,42.431027,-178.442614,-0.476262,-4.522039,-0.811085,5.252099,4.664656,0.727260,-5.000229,-0.018850,0.481859,-0.013287,169.889845,188.722708,1592.196607,16.654670,0
0.012501,73.467828,93.255390,-205.193561,-0.996522,-2.764651,-3.184298,5.565534,2.970136,3.144555,-5.437844,-0.029809,0.459844,-0.020755,158.692945,188.646140,1592.258370,16.781623,0
0.013541,12.059530,154.928405,-176.115910,-0.431022,-0.733892,-4.577271,4.774484,0.977879,4.491694,-4.630213,-0.066339,0.459975,-0.024490,120.250256,188.571639,1592.695418,16.541732,0
0.014583,-50.868663,194.831631,-127.747538,0.451158,1.566688,-5.406705,3.278205,-1.290059,5.482113,-3.363619,-0.095563,0.456905,-0.084238,74.908467,188.647530,1593.477834,16.587676,0
0.015625,-107.864728,195.858508,-48.245644,1.944078,3.675553,-5.414642,1.173712,-3.418318,5.393983,-1.250258,-0.124787,0.445473,-0.028224,0.205918,188.721985,1593.854976,16.328756,0
0.016666,-165.201068,167.577112,21.370833,3.267348,5.102765,-4.700297,-0.788989,-4.910673,4.823233,0.674537,-0.135746,0.447433,-0.039427,-67.552290,188.644617,1593.176911,15.779137,0
0.017708,-186.479599,99.126710,76.965531,4.341798,5.685011,-2.890623,-3.009154,-5.439981,3.069015,2.791455,-0.190541,0.450176,-0.031958,-113.029799,188.571160,1593.733008,15.251173,0
0.018750,-190.891832,24.829150,138.124622,5.495418,5.677910,-1.140477,-4.464388,-5.531874,1.264437,4.356908,-0.238030,0.467945,-0.020755,-155.227408,188.721826,1594.708367,15.160966,0
0.019791,-147.223205,-41.313800,179.229735,6.253188,4.648330,1.010495,-5.397231,-4.554125,-0.745779,5.139634,-0.245336,0.475784,-0.035692,-165.146278,188.721826,1594.962862,15.623084,0
0.020833,-74.483749,-93.080473,205.315910,6.773448,2.837688,3.308305,-5.695740,-2.786089,-3.209237,5.573692,-0.274560,0.466442,-0.035692,-152.784448,188.647871,1595.870907,15.978195,0
0.021875,-11.408104,-155.176320,175.832008,6.253188,0.782077,4.740964,-4.915884,-0.727669,-4.560573,4.776734,-0.238030,0.465593,-0.065566,-114.771539,188.572997,1596.543588,15.992747,0
0.022916,51.622172,-194.705038,126.921970,5.325768,-1.497202,5.554524,-3.434530,1.543945,-5.521615,3.431868,-0.183235,0.469708,-0.058098,-66.432600,188.721878,1596.634129,16.128296,0
0.023959,108.107824,-195.731915,46.853788,3.821538,-3.645120,5.534681,-1.277798,3.727340,-5.408304,1.364759,-0.179582,0.442925,-0.058098,6.799648,188.797307,1596.699078,16.440212,0
0.025000,164.763614,-167.088091,-21.876326,2.532198,-4.994226,4.852084,0.640126,5.175586,-4.892111,-0.542247,-0.128440,0.448216,-0.039427,72.476817,188.646413,1597.064152,16.251999,0
0.026042,186.563900,-98.975954,-77.027841,1.457748,-5.590673,2.994787,2.946113,5.693866,-3.058156,-2.630703,-0.099216,0.453181,-0.046895,118.033496,188.571141,1597.235959,16.100260,0
0.027084,190.397665,-25.234116,-138.519319,0.292818,-5.540969,1.240673,4.364033,5.771057,-1.270365,-4.210387,-0.029809,0.461216,-0.046895,158.297095,188.721954,1598.218390,15.426447,0
0.028125,145.991776,41.935710,-180.363069,-0.532812,-4.490087,-0.938080,5.308070,4.705090,0.748244,-5.082059,-0.029809,0.471668,-0.058098,169.844605,188.797429,1599.834251,15.425862,0
0.029166,72.560427,93.883597,-205.242804,-0.973902,-2.711397,-3.255732,5.572997,2.918675,3.236883,-5.455633,-0.018850,0.464221,-0.073035,156.442255,188.571196,1600.359369,14.456467,0
0.030208,9.620892,156.353952,-175.303410,-0.431022,-0.620283,-4.708234,4.830454,0.900688,4.567234,-4.676465,-0.033462,0.443121,-0.054364,118.327556,188.646567,1601.582820,14.606079,0
0.031250,-52.581381,194.372557,-126.627273,0.485088,1.623493,-5.458296,3.274473,-1.400331,5.536670,-3.271115,-0.073645,0.463045,-0.020755,71.572017,188.721982,1601.651949,13.271707,0
0.032291,-109.554760,195.955155,-47.014583,2.023248,3.782062,-5.442422,1.155055,-3.539618,5.427556,-1.232469,-0.124787,0.449000,-0.050629,-2.033462,188.797351,1603.182402,12.945066,0
0.033333,-165.257780,167.480464,22.195644,3.267348,5.148919,-4.688391,-0.822571,-5.017269,4.827429,0.735020,-0.146705,0.450176,-0.039427,-68.988660,188.571170,1604.406736,11.976279,0
0.034375,-188.101576,97.991105,77.630303,4.330488,5.752466,-2.850937,-3.109901,-5.509820,2.989278,2.851939,-0.212459,0.450111,-0.017021,-113.889359,188.722074,1605.487128,11.049452,0
0.035416,-190.199939,23.838516,138.740152,5.495418,5.628206,-1.017451,-4.539015,-5.524523,1.176307,4.385371,-0.252642,0.457885,-0.058098,-155.645878,188.721898,1605.314612,10.290025,0
0.036458,-144.591745,-42.461485,181.457955,6.287118,4.630578,1.109710,-5.490515,-4.495313,-0.905253,5.242812,-0.256295,0.451483,-0.013287,-166.774918,188.797340,1606.408041,8.759143,0
0.037500,-71.546041,-93.986541,205.094319,6.739518,2.784434,3.427363,-5.699471,-2.705223,-3.263794,5.573692,-0.267254,0.446649,-0.035692,-152.467768,188.571122,1605.910663,8.579629,0
0.038541,-9.899551,-156.988455,175.117993,6.241878,0.728822,4.879864,-4.934541,-0.643127,-4.644506,4.783850,-0.223418,0.456382,-0.073035,-114.183419,188.721900,1606.993571,8.107268,0
0.039583,52.234667,-193.617756,126.885038,5.314458,-1.575308,5.590241,-3.363634,1.610108,-5.530009,3.389174,-0.234377,0.457558,-0.005818,-65.177190,188.721902,1606.669224,7.106256,0
0.040625,109.911282,-196.142665,46.533712,3.776298,-3.705475,5.550555,-1.225559,3.822910,-5.496435,1.300718,-0.175929,0.443774,-0.065566,6.652618,188.797313,1608.705021,6.332116,0
0.041667,164.434681,-166.544450,-23.316667,2.464338,-5.047480,4.792556,0.740873,5.241749,-4.816571,-0.638309,-0.095563,0.446191,-0.005818,75.100737,188.571210,1608.529828,4.841030,0
0.042708,188.310645,-95.750353,-77.618750,1.423818,-5.658128,2.907478,3.058054,5.737975,-2.995206,-2.783690,-0.080951,0.448804,-0.024490,119.017466,188.797266,1609.556629,3.705624,0
0.043750,189.274758,-22.527994,-139.024053,0.292818,-5.537419,1.177176,4.401347,5.741651,-1.215808,-4.224618,-0.022503,0.452593,-0.031958,160.864465,188.721887,1608.787615,3.987894,0
0.044791,144.108921,42.503512,-182.221970,-0.532812,-4.525589,-1.021420,5.386429,4.675684,0.886735,-5.146101,-0.007891,0.468337,-0.058098,171.145255,188.797315,1609.720570,2.676182,0
0.045833,72.276865,94.765503,-204.541099,-0.962592,-2.675894,-3.291450,5.546877,2.867215,3.262063,-5.444960,-0.066339,0.468010,-0.017021,157.539325,188.571042,1609.371751,2.264623,0
0.046875,9.802372,157.900308,-174.786364,-0.476262,-0.556378,-4.724108,4.804335,0.827173,4.605005,-4.665791,-0.062686,0.467095,-0.050629,118.418036,188.797150,1609.873625,1.434364,0
0.047916,-53.273273,193.925563,-125.827084,0.496398,1.690948,-5.418611,3.199846,-1.455468,5.524080,-3.210632,-0.066339,0.456055,-0.024490,72.838737,188.721846,1609.197071,0.721327,0
0.048958,-110.666326,196.462553,-44.786364,2.068488,3.838866,-5.410673,1.069234,-3.594754,5.435950,-1.122176,-0.069992,0.439528,-0.039427,-2.429311,188.797309,1609.539985,0.004097,0
0.050000,-164.622600,166.260293,24.522349,3.346518,5.195072,-4.636800,-0.900930,-5.031972,4.793856,0.756367,-0.161317,0.443382,-0.043161,-69.610710,188.571138,1608.932216,0.347950,0
0.051041,-189.043004,95.550762,78.245834,4.364418,5.770218,-2.775534,-3.195722,-5.553929,2.968294,2.915980,-0.201500,0.450307,-0.024490,-114.850709,188.721934,1609.627451,0.337780,0
0.052083,-189.281196,24.080134,140.082008,5.529348,5.624656,-0.993640,-4.568866,-5.517171,1.138536,4.410276,-0.216112,0.456447,-0.009553,-155.996488,188.721855,1609.756212,-0.047143,0
0.053125,-144.024620,-41.917845,182.935228,6.343668,4.627028,1.197019,-5.531560,-4.510016,-0.934630,5.278390,-0.267254,0.470492,-0.039427,-166.051078,188.797358,1610.661413,-0.347164,0
0.054166,-71.534699,-94.916771,204.712690,6.750828,2.702777,3.474986,-5.662158,-2.653762,-3.347728,5.573692,-0.270907,0.466769,-0.013287,-151.438558,188.571065,1611.011692,-1.416530,0
0.055208,-7.903271,-158.063656,174.551705,6.174018,0.576160,4.923519,-4.886033,-0.558585,-4.678080,4.819428,-0.227071,0.461151,-0.061832,-113.323859,188.721811,1611.717828,-1.388758,0
0.056250,53.856644,-193.678161,125.235417,5.291838,-1.625012,5.618021,-3.333783,1.727732,-5.563582,3.310901,-0.197847,0.467749,-0.069301,-64.487280,188.797313,1611.775740,-2.466041,0
0.057291,111.124929,-196.299717,44.773296,3.810228,-3.769380,5.586272,-1.162126,3.881722,-5.521615,1.243792,-0.164970,0.449262,-0.039427,8.654488,188.797146,1612.493085,-2.661829,0
0.058333,164.638846,-165.976648,-23.907576,2.486958,-5.111385,4.768744,0.763261,5.282182,-4.850144,-0.645424,-0.143052,0.455925,-0.043161,74.060217,188.646542,1613.180612,-2.385179,0
0.059375,189.388183,-95.267117,-78.234281,1.435128,-5.704282,2.887635,3.110293,5.818842,-2.944846,-2.851289,-0.066339,0.449980,-0.043161,119.877026,188.721896,1614.572795,-3.327513,0
0.060416,188.492125,-22.757531,-140.070455,0.258888,-5.544519,1.081930,4.479706,5.749003,-1.157055,-4.338469,-0.051727,0.460955,-0.028224,158.783425,188.803700,1615.610862,-4.665817,0
0.061458,142.021901,43.276690,-184.043940,-0.578052,-4.507838,-1.069043,5.479713,4.686711,0.941292,-5.185237,-0.029809,0.452136,-0.031958,170.839885,188.722061,1616.362716,-4.471512,0
0.062516,68.046112,97.483707,-203.642425,-0.962592,-2.572936,-3.398601,5.517027,2.767969,3.408947,-5.405823,-0.007891,0.447955,-0.031958,154.270735,188.721657,1615.866545,-4.802559,0
0.063550,6.376937,160.703077,-173.703031,-0.408402,-0.453420,-4.855072,4.822992,0.694846,4.772872,-4.658676,-0.040768,0.446910,-0.028224,117.196556,188.721594,1617.757898,-5.489950,0
0.064583,-54.192016,193.297356,-125.334659,0.507708,1.801006,-5.486077,3.155069,-1.514280,5.557654,-3.192843,-0.055380,0.449523,-0.043161,69.751107,188.796992,1618.011098,-5.961276,0
0.065625,-112.946168,196.583362,-44.638637,2.057178,3.945375,-5.478139,0.994606,-3.668269,5.503097,-1.093713,-0.099216,0.445212,-0.058098,-4.612141,188.721578,1619.814634,-6.076225,0
0.066666,-164.633943,165.595843,25.137879,3.289968,5.219924,-4.601082,-0.975557,-5.076081,4.781266,0.880892,-0.128440,0.448412,-0.031958,-70.990530,188.797121,1620.124313,-7.547577,0
0.067708,-190.835119,93.158743,78.590531,4.364418,5.876726,-2.688225,-3.292738,-5.590686,2.917934,3.068968,-0.216112,0.447302,-0.028224,-115.619789,188.721645,1621.326818,-8.849148,0
0.068750,-188.124261,21.289445,140.426705,5.529348,5.635307,-0.894425,-4.621106,-5.535550,1.075586,4.495664,-0.223418,0.465528,-0.024490,-156.358408,188.797034,1621.693333,-9.025980,0
0.069791,-141.257049,-42.920560,185.274243,6.411528,4.627028,1.268453,-5.658426,-4.476934,-1.035351,5.363779,-0.263601,0.470688,-0.061832,-167.724958,188.646259,1622.720991,-9.595594,0
0.070833,-70.355079,-95.726191,203.974054,6.739518,2.681475,3.494829,-5.706934,-2.591274,-3.377105,5.570134,-0.281866,0.456774,-0.080503,-151.314148,188.796943,1622.264438,-9.883497,0
0.071875,-8.016696,-160.177814,174.207008,6.174018,0.583261,5.002890,-4.949466,-0.488745,-4.816571,4.812312,-0.227071,0.465528,-0.054364,-112.973249,188.721703,1624.076219,-11.196474,0
0.072916,54.378399,-192.651284,124.939963,5.269218,-1.713769,5.629927,-3.214379,1.793896,-5.597156,3.293112,-0.205153,0.454553,-0.028224,-62.915190,188.797059,1624.219221,-11.963136,0
0.073958,113.030469,-197.121219,43.062121,3.719748,-3.893640,5.570398,-1.080036,3.984643,-5.521615,1.204656,-0.179582,0.441815,-0.039427,9.389638,188.646324,1625.458653,-12.267312,0
0.075000,163.640706,-164.563182,-26.271212,2.396478,-5.136237,4.733027,0.875202,5.326291,-4.745227,-0.741486,-0.110175,0.444101,-0.069301,77.000817,188.797170,1624.383386,-13.464486,0
0.076041,191.225668,-91.775736,-78.800568,1.457748,-5.761086,2.879698,3.199846,5.844572,-2.915469,-2.958025,-0.059033,0.449654,-0.046895,120.668726,188.797063,1625.192774,-13.653144,0
0.077083,187.278477,-21.839382,-141.055303,0.292818,-5.519667,1.034307,4.490900,5.789436,-1.119284,-4.292217,-0.066339,0.450895,-0.039427,161.746645,188.797010,1624.922441,-12.946421,0
0.078125,141.261953,42.443108,-186.001326,-0.623292,-4.475885,-1.196037,5.520758,4.672008,1.046209,-5.291972,-0.026156,0.461020,-0.065566,172.276255,188.646397,1626.686913,-14.628732,0
0.079166,70.087762,96.638043,-203.642425,-0.939972,-2.565836,-3.414476,5.554340,2.815754,3.396357,-5.412939,-0.007891,0.463241,-0.043161,155.921995,188.797028,1627.112855,-14.906538,0
0.080208,6.308882,160.787644,-173.973864,-0.431022,-0.410817,-4.902695,4.800603,0.683819,4.798052,-4.672907,-0.080951,0.440247,-0.024490,116.766776,188.797150,1627.614959,-15.123763,0
0.081250,-55.553116,193.031576,-123.697349,0.564258,1.861361,-5.462265,3.084173,-1.576767,5.532474,-3.096781,-0.077298,0.436915,-0.046895,70.723767,188.797128,1626.532637,-15.739168,0
0.082292,-113.955651,197.392783,-42.041099,2.102418,3.980877,-5.517825,0.964755,-3.745460,5.507294,-1.015441,-0.150358,0.442925,-0.058098,-4.815721,188.721724,1627.212799,-16.213732,0
0.083333,-164.497833,164.738099,26.233523,3.391758,5.241226,-4.597114,-0.983020,-5.120190,4.756086,0.880892,-0.172276,0.451417,-0.050629,-71.069700,188.797036,1627.193397,-16.094638,0
0.084375,-192.082794,92.578860,79.316856,4.353108,5.869625,-2.696162,-3.359903,-5.631120,2.884361,3.097430,-0.190541,0.453377,-0.035692,-116.524589,188.797146,1628.088432,-16.343559,0
0.085416,-187.296259,21.953895,141.842425,5.506728,5.628206,-0.878551,-4.643494,-5.546577,1.071389,4.445854,-0.245336,0.463045,-0.017021,-156.482818,188.797095,1627.883736,-15.829621,0
0.086458,-140.360992,-43.162178,186.579167,6.411528,4.580874,1.375605,-5.639770,-4.473258,-1.127678,5.378010,-0.259948,0.470296,-0.061832,-166.808848,188.646279,1628.464437,-16.596407,0
0.087500,-68.438196,-96.765149,203.764773,6.750828,2.635322,3.566263,-5.643501,-2.569220,-3.435859,5.538113,-0.256295,0.469186,-0.069301,-150.171838,188.797364,1628.184491,-16.504150,0
0.088541,-4.818111,-161.035558,173.714584,6.207948,0.515806,5.066388,-4.997974,-0.433609,-4.841751,4.805197,-0.252642,0.450307,-0.028224,-112.486919,188.797124,1628.328899,-15.921384,0
0.089583,55.569362,-192.699608,123.819697,5.257908,-1.770573,5.653738,-3.214379,1.885789,-5.601352,3.243302,-0.219765,0.452593,-0.031958,-62.598510,188.797173,1628.267409,-16.673434,0
0.090625,114.584392,-197.229947,42.926705,3.719748,-3.936243,5.594209,-1.102424,4.017724,-5.546795,1.154846,-0.154011,0.448151,-0.020755,10.769458,188.797063,1629.038462,-16.995740,0
0.091666,164.423339,-164.043703,-26.271212,2.373858,-5.164639,4.693341,0.942367,5.363049,-4.753620,-0.794854,-0.121134,0.449915,-0.028224,75.881127,188.797231,1629.674275,-17.528193,0
0.092708,192.427973,-90.398513,-79.588447,1.412508,-5.814340,2.832075,3.263279,5.896033,-2.865109,-3.011393,-0.077298,0.448608,-0.031958,121.720556,188.797148,1630.578620,-17.965785,0
0.093750,186.337050,-19.966842,-141.781629,0.236268,-5.509016,1.018432,4.531945,5.833545,-1.068924,-4.377606,-0.051727,0.424112,-0.035692,159.382855,188.796979,1631.521954,-18.145955,0
0.094791,138.709890,44.013625,-187.466288,-0.600672,-4.440383,-1.235723,5.546877,4.672008,1.163716,-5.284857,-0.033462,0.456970,-0.061832,171.857785,188.797103,1631.648727,-18.239608,0
0.095833,67.932687,97.677001,-203.297728,-0.894732,-2.509031,-3.450193,5.565534,2.778997,3.455111,-5.434286,-0.000585,0.461347,-0.046895,154.361215,188.721655,1631.858091,-18.146920,0
0.096875,5.458195,162.527294,-173.444508,-0.385782,-0.354012,-5.005878,4.852843,0.602953,4.911363,-4.648002,-0.062686,0.465332,-0.046895,116.834636,188.797097,1633.039557,-19.210941,0
0.097916,-55.859363,192.524178,-123.611175,0.541638,1.896864,-5.529731,3.028203,-1.683364,5.536670,-3.107454,-0.066339,0.461804,-0.050629,67.296837,188.797146,1633.417292,-20.189299,0
0.098958,-115.827163,197.779372,-41.376326,2.091108,4.080285,-5.509888,0.905053,-3.837354,5.490507,-0.965631,-0.124787,0.441684,-0.050629,-7.383091,188.797068,1634.289553,-20.890535,0
0.100000,-164.270983,163.324633,27.993939,3.391758,5.294480,-4.561397,-1.117349,-5.167975,4.701529,0.973396,-0.186888,0.444232,-0.073035,-72.766200,188.770077,1633.989426,-21.778953,0
0.101041,-193.908937,88.930427,80.030871,4.409658,5.937081,-2.644571,-3.434530,-5.689932,2.783640,3.214839,-0.201500,0.448412,-0.043161,-117.474629,188.788891,1634.826413,-22.734525,0
0.102083,-185.867104,20.081355,142.581061,5.574588,5.635307,-0.819022,-4.706927,-5.502468,1.067193,4.524127,-0.230724,0.461347,-0.020755,-157.285828,188.590412,1634.664000,-22.586928,0
0.103125,-138.999892,-42.872236,188.671970,6.445458,4.595075,1.379573,-5.710666,-4.443852,-1.157055,5.459841,-0.267254,0.468598,-0.046895,-168.629758,188.818026,1635.740691,-23.062541,0
0.104166,-68.993979,-97.779945,202.669129,6.705588,2.550115,3.617855,-5.669621,-2.499381,-3.414875,5.552345,-0.252642,0.461543,-0.020755,-149.764678,188.797309,1635.342084,-23.393988,0
0.105208,-4.670658,-162.932260,173.431440,6.140088,0.412848,5.145759,-4.956929,-0.382149,-4.925685,4.815870,-0.259948,0.454226,-0.050629,-111.310679,188.797206,1636.768519,-23.996051,0
0.106250,56.601529,-191.902268,122.453220,5.178738,-1.841579,5.653738,-3.177065,1.966656,-5.626532,3.140124,-0.227071,0.431885,-0.039427,-60.494850,188.872613,1636.159715,-25.199681,0
0.107291,115.695957,-197.991044,40.169129,3.708438,-3.971746,5.621990,-1.065110,4.105942,-5.546795,1.087247,-0.157664,0.441815,-0.028224,11.651638,188.797157,1636.944792,-25.567164,0
0.108333,163.754131,-162.400700,-28.142424,2.407788,-5.175290,4.693341,0.934904,5.392455,-4.728440,-0.844664,-0.102869,0.449588,-0.020755,78.244917,188.797137,1636.491637,-25.627749,0
0.109375,194.049950,-89.226665,-80.191667,1.446438,-5.839192,2.784452,3.326712,5.914411,-2.831535,-3.093223,-0.073645,0.453051,-0.031958,122.286056,188.797112,1637.461670,-26.277765,0
0.110416,185.089375,-20.474240,-143.025000,0.191028,-5.448662,0.939061,4.569259,5.745327,-1.043744,-4.359817,-0.051727,0.463764,-0.039427,162.368695,188.721710,1636.220730,-26.573523,0
