1-Time,2-VGERA,3-VGERB,4-VGERC,5-VN,6-IGERAN,7-IGERBN,8-IGERCN,9-IGERAT,10-IGERBT,11-IGERCT,12-IN,13-IFD,14-IFAULT,15-VFAULT,16-Speed (rad/s),17-Active Power,18-Reactive Power,19-FAULT 
0.000000,-140.950802,-71.975134,169.319697,6.117468,4.829394,-2.259618,-2.688256,-4.829806,2.447904,2.531733,-0.143052,0.527978,-0.028224,-23.465911,188.495360,931.718114,1033.188362,0
0.001042,-60.158171,-127.643940,189.115152,6.547248,4.690933,-0.263420,-4.359910,-4.631316,0.374738,4.164784,-0.219765,0.553324,-0.035692,-15.300091,188.646237,931.902593,1033.050043,0
0.002083,12.740080,-164.720234,162.684281,6.015678,3.764310,1.363699,-4.811405,-3.774866,-1.236792,4.652209,-0.227071,0.568088,-0.020755,-6.252091,188.646100,930.888377,1032.938741,0
0.003125,83.460570,-183.868467,111.435228,5.054328,1.935917,3.463080,-4.863645,-1.966397,-3.255401,4.734040,-0.205153,0.565867,-0.073035,6.415108,188.570600,930.654163,1033.435024,0
0.004167,134.229603,-182.865752,31.059280,3.493548,0.214032,4.494912,-4.136027,-0.216740,-4.384311,4.082954,-0.186888,0.566716,-0.050629,14.739268,188.495360,930.501672,1033.932131,0
0.005208,173.656134,-152.071527,-43.850758,2.102418,-1.678266,5.074325,-2.815123,1.624811,-5.026405,2.827034,-0.197847,0.559269,-0.020755,23.742028,188.646134,930.478532,1034.705376,0
0.006262,173.565394,-89.504526,-116.778788,0.767838,-3.428553,4.860021,-0.912124,3.411226,-4.841751,0.980511,-0.132093,0.557440,-0.035692,26.094508,188.646188,929.522896,1034.500666,0
0.007303,175.005892,-3.041496,-155.951137,-0.012552,-4.525589,4.018682,0.860277,4.528654,-4.023396,-0.798412,-0.091910,0.551626,-0.028224,29.838118,188.570850,930.718092,1035.244472,0
0.008334,140.604088,72.029242,-169.739016,-0.306612,-4.781209,2.419342,2.614021,4.870498,-2.525176,-2.420790,-0.099216,0.563319,-0.039427,27.225508,188.495416,930.794266,1036.236854,0
0.009375,61.206584,127.637643,-189.042046,-0.645912,-4.614346,0.351710,4.248361,4.668332,-0.464600,-4.028937,-0.018850,0.568741,-0.031958,19.760908,188.721536,931.028264,1037.365873,0
0.010417,-11.975229,165.330063,-162.500379,-0.170892,-3.581215,-1.307158,4.707319,3.672204,1.218273,-4.537709,-0.026156,0.571419,-0.031958,13.472548,188.646147,932.357359,1037.135202,0
0.011458,-84.249642,184.260840,-110.574243,0.779148,-1.752822,-3.339073,4.785678,1.918871,3.253669,-4.583961,-0.004238,0.556460,-0.031958,-3.254941,188.570794,932.934405,1037.400162,0
0.012500,-134.735112,183.282287,-29.139583,2.373858,-0.066440,-4.374873,3.961045,0.117754,4.378383,-3.915086,-0.022503,0.562797,-0.043161,-9.633781,188.495376,934.109951,1037.605734,0
0.013542,-173.639888,152.620952,44.921023,3.753678,1.793906,-4.974129,2.669991,-1.716446,4.995297,-2.644934,-0.073645,0.562731,-0.043161,-19.846711,188.721393,934.979737,1037.217533,0
0.014584,-174.286411,91.986895,115.805493,5.043018,3.498039,-4.720140,0.789381,-3.484482,4.819036,-0.848222,-0.121134,0.560575,-0.046895,-21.192601,188.570720,935.519713,1036.488348,0
0.015625,-175.738251,6.079587,155.901137,5.846028,4.616377,-3.918486,-1.001677,-4.550449,3.992287,0.927144,-0.154011,0.562666,-0.035692,-24.121891,188.570765,937.046950,1036.813439,0
0.016667,-140.463074,-71.769759,169.787501,6.128778,4.882648,-2.176278,-2.800197,-4.870239,2.405938,2.574427,-0.175929,0.561425,-0.039427,-23.940931,188.495151,937.985205,1036.647562,0
0.017709,-59.670443,-127.305674,189.915341,6.535938,4.680282,-0.168174,-4.393492,-4.616613,0.341165,4.193247,-0.219765,0.548490,-0.043161,-15.367951,188.721514,938.589578,1036.337520,0
0.018750,13.715535,-165.167227,162.314963,6.004368,3.682654,1.451008,-4.856182,-3.638863,-1.337512,4.691346,-0.248989,0.550058,-0.017021,-7.756321,188.570747,939.830600,1034.805745,0
0.019792,84.163805,-184.339622,110.881250,5.054328,1.808107,3.510703,-4.871107,-1.892882,-3.318351,4.751829,-0.230724,0.562470,-0.039427,6.912748,188.570850,940.899823,1034.502879,0
0.020834,134.774043,-182.382516,30.616099,3.516168,0.128825,4.526660,-4.080057,-0.128522,-4.443065,4.054491,-0.179582,0.566259,-0.043161,15.157738,188.495356,942.012202,1033.870051,0
0.021875,173.780902,-152.748058,-44.355493,2.057178,-1.752822,5.114011,-2.740495,1.716705,-5.064176,2.784340,-0.183235,0.563515,-0.043161,23.153908,188.721487,943.606110,1033.489175,0
0.022917,173.644792,-91.195852,-115.855493,0.767838,-3.425003,4.856053,-0.844959,3.481065,-4.833358,1.001859,-0.157664,0.550385,-0.046895,26.026648,188.646060,944.820156,1033.236927,0
0.023958,175.368852,-3.681784,-155.569508,0.021378,-4.514939,4.002807,0.934904,4.528654,-4.006609,-0.816201,-0.095563,0.539737,-0.020755,29.679778,188.570673,945.223868,1032.727835,0
0.025000,139.605948,73.249413,-169.689773,-0.261372,-4.777659,2.320128,2.703574,4.918283,-2.424456,-2.481273,-0.073645,0.536667,-0.046895,28.096378,188.495340,946.197405,1032.185031,0
0.026042,59.743402,127.722209,-189.792993,-0.679842,-4.589494,0.335836,4.274480,4.631575,-0.355486,-4.075189,-0.015197,0.574359,-0.039427,20.869288,188.721639,947.213168,1031.232053,0
0.027084,-12.292819,165.559601,-161.995644,-0.170892,-3.570565,-1.342875,4.737170,3.675880,1.256044,-4.591077,0.024986,0.571550,-0.054364,13.348138,188.645996,947.940933,1031.541679,0
0.028125,-83.988764,184.599105,-110.611175,0.813078,-1.756372,-3.374790,4.781947,1.874762,3.312423,-4.612424,-0.018850,0.563580,-0.046895,-3.458521,188.570874,949.155722,1031.321568,0
0.029167,-135.120757,182.714484,-28.954924,2.328618,-0.016736,-4.414559,3.979702,0.117754,4.403563,-3.904412,-0.033462,0.562927,-0.017021,-9.882601,188.495360,949.211596,1031.360322,0
0.030209,-173.549148,152.584710,45.905871,3.776298,1.857811,-4.970161,2.643872,-1.745852,5.003690,-2.620029,-0.051727,0.557636,-0.028224,-19.111561,188.721398,949.484248,1031.237597,0
0.031250,-173.946136,91.008342,116.174811,5.122188,3.544193,-4.747920,0.781918,-3.491833,4.823233,-0.798412,-0.110175,0.564038,-0.024490,-21.271771,188.721500,949.535447,1030.923114,0
0.032292,-175.658853,5.088953,156.196591,5.823408,4.619927,-3.922455,-1.046453,-4.550449,3.988091,0.984069,-0.197847,0.559792,-0.005818,-24.110581,188.570633,949.850156,1030.782876,0
0.033334,-140.406362,-71.636869,169.849054,6.117468,4.886198,-2.180246,-2.803928,-4.888618,2.372364,2.606447,-0.161317,0.563711,-0.043161,-23.364121,188.570647,950.512418,1030.469722,0
0.034375,-59.806553,-127.341917,189.964584,6.513318,4.651880,-0.152300,-4.371104,-4.660722,0.357951,4.239499,-0.208806,0.558093,-0.009553,-15.107821,188.721541,951.141398,1031.223282,0
0.035417,13.534055,-165.288036,162.019508,5.993058,3.679104,1.478788,-4.811405,-3.657242,-1.320726,4.726924,-0.234377,0.527390,-0.028224,-5.924101,188.721543,951.262645,1031.745426,0
0.036459,84.912411,-184.581240,109.921023,4.997778,1.854261,3.510703,-4.830062,-1.881855,-3.351925,4.737598,-0.223418,0.564364,-0.061832,6.980608,188.570694,951.300287,1031.790282,0
0.037500,134.796728,-182.527486,29.766667,3.516168,0.107524,4.546503,-4.102445,-0.154252,-4.451458,4.047375,-0.190541,0.564691,-0.087972,14.852368,188.570740,950.987814,1032.113273,0
0.038542,173.848957,-152.591006,-44.810985,2.102418,-1.781224,5.110042,-2.762883,1.727732,-5.055782,2.780782,-0.179582,0.564952,-0.065566,23.674168,188.721445,950.924278,1032.089207,0
0.039584,173.769559,-91.256257,-116.040152,0.733908,-3.474707,4.879864,-0.863616,3.459010,-4.887915,0.955607,-0.139399,0.557179,-0.046895,26.094508,188.645996,951.299713,1032.294152,0
0.040625,175.368852,-3.911321,-155.729546,-0.012552,-4.504288,3.967090,0.931173,4.569087,-3.994019,-0.809085,-0.106522,0.533270,-0.043161,29.894668,188.570622,951.713367,1032.388532,0
0.041679,137.518928,74.952821,-170.206819,-0.261372,-4.770559,2.264568,2.778201,4.877850,-2.298555,-2.559546,-0.044421,0.550842,-0.050629,27.021928,188.646165,951.985820,1031.038828,0
0.042717,56.896434,128.132960,-190.667046,-0.679842,-4.589494,0.244558,4.319257,4.587466,-0.313519,-4.149904,-0.051727,0.569002,-0.039427,19.534708,188.721391,952.394174,1030.961319,0
0.043750,-13.290959,166.006594,-161.441667,-0.182202,-3.531511,-1.366687,4.774484,3.624419,1.327387,-4.559056,-0.018850,0.569852,-0.020755,13.404688,188.646194,952.536201,1030.089240,0
0.044792,-84.510519,184.623267,-110.414205,0.824388,-1.720870,-3.410507,4.748364,1.786544,3.333407,-4.580403,-0.033462,0.562209,-0.028224,-3.379351,188.570752,952.901443,1028.990140,0
0.045833,-135.495059,182.436624,-29.090341,2.328618,0.025867,-4.426465,3.916269,0.055266,4.424547,-3.851044,-0.044421,0.559792,-0.039427,-9.701641,188.721482,953.519050,1028.011955,0
0.046875,-173.549148,153.055865,46.669129,3.764988,1.903965,-4.958255,2.599095,-1.815691,4.999494,-2.563104,-0.055380,0.556133,-0.054364,-19.710991,188.721471,954.412624,1027.247570,0
0.047917,-174.002848,89.594876,116.544129,5.110878,3.643601,-4.688391,0.662514,-3.535942,4.789659,-0.752160,-0.132093,0.551365,-0.013287,-21.136051,188.570785,954.626223,1026.711724,0
0.048958,-176.010471,3.615082,156.061175,5.834718,4.698033,-3.823240,-1.113618,-4.590882,3.962911,1.033879,-0.164970,0.546923,0.001650,-24.201061,188.570693,955.264633,1026.592702,0
0.050000,-138.999892,-72.349642,170.132197,6.151398,4.932352,-2.092937,-2.871093,-4.914348,2.275840,2.730972,-0.168623,0.564103,-0.054364,-23.782591,188.646781,956.807742,1025.722347,0
0.051042,-59.250771,-126.991571,190.555493,6.547248,4.683832,-0.076897,-4.412149,-4.668073,0.232051,4.307098,-0.219765,0.572465,-0.017021,-15.220921,188.721884,958.624560,1024.896041,0
0.052083,13.375260,-165.964567,161.330114,5.970438,3.618749,1.593877,-4.848719,-3.624160,-1.400463,4.730482,-0.216112,0.568153,-0.028224,-7.530121,188.646589,959.436169,1024.250599,0
0.053125,85.116576,-184.738292,109.736364,5.009088,1.776155,3.613886,-4.863645,-1.778934,-3.431662,4.744713,-0.230724,0.565540,-0.031958,7.466938,188.571216,960.901247,1023.290080,0
0.054167,135.148345,-182.152978,28.424811,3.538788,0.008116,4.574283,-4.027818,-0.014573,-4.510212,3.969103,-0.212459,0.561098,-0.028224,15.270838,188.722029,962.168516,1021.796868,0
0.055208,173.191092,-152.977595,-46.460606,2.079798,-1.852230,5.173540,-2.650942,1.812274,-5.114536,2.688278,-0.168623,0.564299,-0.005818,23.199148,188.722029,963.632816,1021.099159,0
0.056250,173.746874,-90.205218,-116.471023,0.722598,-3.513760,4.875896,-0.759138,3.550904,-4.824964,0.891565,-0.128440,0.558746,-0.050629,26.162368,188.571107,964.462093,1020.069830,0
0.057292,175.709127,-4.189182,-156.000379,-0.012552,-4.624997,3.967090,1.061771,4.613196,-3.968839,-0.930052,-0.121134,0.561751,-0.046895,29.713708,188.628546,966.300060,1019.278293,0
0.058333,138.721233,73.418546,-170.120644,-0.351852,-4.798961,2.220913,2.860291,4.925635,-2.298555,-2.616472,-0.088257,0.534250,-0.050629,28.017208,188.698506,967.920392,1019.119805,0
0.059375,56.953147,127.782614,-190.937879,-0.713772,-4.553992,0.181061,4.352839,4.598493,-0.250569,-4.149904,-0.044421,0.550123,-0.035692,20.586538,188.721572,968.560738,1018.603076,0
0.060417,-14.595346,166.260293,-161.244697,-0.170892,-3.538612,-1.453995,4.789409,3.653825,1.398731,-4.612424,-0.033462,0.538953,-0.020755,12.929668,188.598569,969.513023,1019.287033,0
0.061458,-85.088987,185.070261,-109.872538,0.835698,-1.671166,-3.470036,4.759558,1.771841,3.400554,-4.655118,-0.022503,0.565671,-0.039427,-3.696031,188.503492,970.730821,1020.140931,0
0.062500,-135.801307,181.965468,-29.250379,2.317308,0.082672,-4.478056,3.931194,-0.010898,4.453924,-3.879507,-0.084604,0.571289,-0.028224,-9.859981,188.722134,971.599311,1020.070306,0
0.063542,-173.651231,153.285402,47.075379,3.764988,1.967870,-5.041595,2.558050,-1.896558,5.058247,-2.548873,-0.069992,0.561294,-0.058098,-19.066321,188.722217,973.068347,1020.194279,0
0.064583,-173.968821,89.389501,116.962690,5.122188,3.664903,-4.696328,0.636395,-3.613133,4.823233,-0.734371,-0.128440,0.557571,-0.061832,-21.339631,188.571315,974.171633,1020.564291,0
0.065625,-176.055841,2.479477,155.999622,5.846028,4.754838,-3.851020,-1.158394,-4.664397,3.912550,1.065900,-0.150358,0.544636,-0.050629,-24.155821,188.571518,974.967348,1020.344394,0
0.066667,-138.398739,-73.364438,170.119887,6.140088,4.982056,-2.112780,-2.919601,-4.921700,2.309414,2.745203,-0.179582,0.548621,-0.013287,-23.296261,188.722270,974.721887,1021.044126,0
0.067708,-57.912356,-127.221108,190.961743,6.569868,4.705134,-0.041180,-4.516627,-4.649694,0.181690,4.321330,-0.219765,0.569852,-0.043161,-14.904241,188.797541,974.929235,1020.727428,0
0.068750,13.250492,-166.363237,160.886932,5.959128,3.629400,1.597846,-4.886033,-3.657242,-1.450823,4.741155,-0.234377,0.570962,-0.020755,-5.856241,188.571341,975.494804,1020.992500,0
0.069792,84.980466,-185.088638,109.477841,5.009088,1.744202,3.617855,-4.871107,-1.767906,-3.482022,4.776734,-0.234377,0.557701,-0.069301,7.206808,188.571480,976.370627,1021.224866,0
0.070833,135.454593,-182.044250,27.698485,3.470928,0.004566,4.613969,-4.024086,-0.018249,-4.518606,3.958429,-0.223418,0.559465,-0.020755,14.999398,188.722166,976.201819,1021.367897,0
0.071875,173.134379,-153.038000,-47.790152,2.068488,-1.916135,5.173540,-2.665868,1.871086,-5.101946,2.713183,-0.190541,0.560706,-0.031958,23.549758,188.797474,976.466749,1021.646963,0
0.072917,173.780902,-89.166260,-116.815720,0.745218,-3.591866,4.860021,-0.706899,3.598689,-4.887915,0.838198,-0.124787,0.560314,-0.043161,26.252848,188.571494,977.388912,1022.051621,0
0.073958,175.777182,-3.657622,-156.197349,0.010068,-4.667600,3.986933,1.091622,4.613196,-4.006609,-0.912263,-0.080951,0.563319,-0.054364,29.860738,188.571523,977.139619,1022.794323,0
0.075000,138.369615,73.031957,-170.502273,-0.351852,-4.795411,2.177259,2.860291,4.888877,-2.302752,-2.630703,-0.066339,0.562143,-0.028224,27.067168,188.706810,977.013107,1022.480065,0
0.076042,56.635557,127.553077,-191.282576,-0.702462,-4.596595,0.125501,4.371496,4.635250,-0.179225,-4.185482,-0.080951,0.540847,-0.013287,19.512088,188.797748,978.142519,1022.358282,0
0.077083,-15.343951,166.791853,-160.592235,-0.103032,-3.492458,-1.549241,4.800603,3.587662,1.432305,-4.601750,-0.040768,0.558812,-0.065566,12.895738,188.571444,978.135212,1021.634024,0
0.078125,-86.132497,185.009856,-109.318561,0.858318,-1.614361,-3.525596,4.774484,1.668920,3.446717,-4.601750,-0.037115,0.559922,-0.009553,-3.820441,188.571440,978.565213,1020.308870,0
0.079167,-136.198294,181.844659,-28.154735,2.373858,0.160778,-4.478056,3.908806,-0.099116,4.500087,-3.790561,-0.059033,0.563972,0.009119,-9.645091,188.722246,979.367244,1019.060414,0
0.080208,-173.537806,153.804881,47.629356,3.764988,2.063727,-5.013815,2.490885,-1.966397,5.037264,-2.502621,-0.069992,0.561947,-0.028224,-19.631821,188.797619,980.129358,1018.204052,0
0.081250,-174.388493,88.809617,117.122728,5.144808,3.732358,-4.648705,0.494603,-3.653566,4.735102,-0.631193,-0.102869,0.555349,-0.058098,-21.271771,188.571456,980.756719,1016.471269,0
0.082292,-176.373431,2.056646,156.208902,5.846028,4.737087,-3.807366,-1.225559,-4.660722,3.845403,1.179751,-0.146705,0.536536,-0.005818,-24.404641,188.571552,981.819224,1015.112699,0
0.083333,-136.810789,-74.234263,170.833902,6.151398,4.896849,-1.946100,-3.031542,-4.903321,2.187710,2.834150,-0.190541,0.554174,-0.043161,-23.680801,188.722331,982.706271,1013.823432,0
0.084375,-56.108898,-127.076137,191.614205,6.569868,4.651880,0.062004,-4.539015,-4.576179,0.127133,4.360466,-0.197847,0.560249,-0.039427,-15.017341,188.722210,982.963136,1012.909676,0
0.085417,13.931042,-166.810230,160.283713,5.959128,3.551294,1.693092,-4.912152,-3.565348,-1.509577,4.751829,-0.248989,0.560510,-0.043161,-7.439641,188.571386,983.478054,1011.865658,0
0.086458,85.298056,-184.798696,109.576326,4.963848,1.637694,3.701195,-4.856182,-1.687040,-3.544973,4.712693,-0.230724,0.562666,-0.061832,7.659208,188.571426,984.164882,1010.348499,0
0.087500,136.089773,-181.500610,27.489205,3.425688,-0.112594,4.689372,-3.934534,0.092023,-4.522802,3.937082,-0.212459,0.559726,-0.028224,15.383938,188.722226,984.921552,1009.414558,0
0.088542,172.510542,-153.460831,-49.292046,2.011938,-1.983590,5.157665,-2.553927,1.944601,-5.080962,2.595774,-0.197847,0.555872,-0.039427,23.063428,188.722215,985.667976,1007.816466,0
0.089583,173.928354,-87.293720,-117.234281,0.745218,-3.616718,4.844147,-0.587495,3.620743,-4.782997,0.777714,-0.132093,0.560902,-0.028224,26.218918,188.571218,985.245115,1006.456117,0
0.090625,175.879264,-2.268318,-156.382008,-0.001242,-4.667600,3.891687,1.143861,4.649953,-3.926872,-1.033230,-0.091910,0.564626,-0.020755,29.781568,188.571433,986.508101,1005.276814,0
0.091667,137.382818,73.430627,-171.043940,-0.340542,-4.841564,2.133604,2.931187,4.885201,-2.218818,-2.691186,-0.084604,0.559008,-0.039427,27.915418,188.722175,987.257321,1004.425612,0
0.092708,56.692269,127.299378,-191.541099,-0.759012,-4.539790,0.014381,4.431198,4.554384,-0.133062,-4.256639,-0.040768,0.575862,-0.005818,20.394268,188.722250,988.226412,1003.265846,0
0.093750,-15.185156,167.081795,-160.259849,-0.159582,-3.389500,-1.608770,4.815529,3.532525,1.537222,-4.598192,-0.033462,0.550385,-0.020755,12.296308,188.571406,989.329203,1002.094486,0
0.094792,-86.586197,185.239393,-108.592235,0.869628,-1.529155,-3.600999,4.752096,1.621135,3.539045,-4.576845,-0.018850,0.536013,-0.024490,-4.284151,188.571494,990.304471,1001.522559,0
0.095833,-136.277692,181.675527,-27.034470,2.441718,0.242434,-4.537585,3.867761,-0.117494,4.542054,-3.772772,-0.040768,0.561621,-0.054364,-9.916531,188.722226,990.583443,1001.540556,0
0.096875,-173.310956,153.829043,48.515720,3.832848,2.134733,-5.077312,2.419989,-2.050939,5.100214,-2.463484,-0.048074,0.567827,-0.039427,-18.975841,188.722375,992.017770,1001.430370,0
0.097917,-174.343123,88.712970,117.405872,5.133498,3.760760,-4.704266,0.453558,-3.682972,4.793856,-0.570710,-0.139399,0.558289,-0.050629,-21.577141,188.569954,993.026669,1001.585222,0
0.098958,-176.475513,2.298264,156.504357,5.846028,4.776140,-3.771648,-1.337500,-4.745264,3.849600,1.208214,-0.154011,0.569460,-0.020755,-24.223681,188.571409,994.312048,1001.927154,0
0.100000,-136.708707,-74.379234,170.907766,6.140088,4.911050,-1.906414,-3.068856,-4.873915,2.154136,2.883959,-0.190541,0.522556,-0.020755,-23.273641,188.722206,994.762625,1001.254230,0
0.101042,-54.611688,-127.329836,192.155872,6.649038,4.662531,0.077878,-4.561404,-4.590882,0.055790,4.413834,-0.208806,0.532420,-0.043161,-14.553631,188.722320,995.720740,1001.275955,0
0.102083,15.190060,-167.172658,160.074432,5.959128,3.526442,1.740715,-4.979317,-3.598430,-1.559937,4.815870,-0.274560,0.569917,-0.050629,-5.641351,188.571415,996.572206,1002.225659,0
0.103125,85.853838,-185.112800,109.305493,4.997778,1.644794,3.756755,-4.912152,-1.683364,-3.578546,4.780292,-0.234377,0.568937,-0.017021,7.331218,188.646782,997.345944,1003.102369,0
0.104167,136.361993,-181.367720,27.698485,3.436998,-0.123244,4.677467,-3.945728,0.092023,-4.585753,3.919293,-0.216112,0.565801,-0.035692,15.044638,188.722170,998.038190,1003.176353,0
0.105208,172.828132,-153.666207,-49.575190,2.000628,-2.036844,5.149728,-2.531538,2.036495,-5.131323,2.570869,-0.164970,0.561686,-0.031958,23.312248,188.646846,999.625799,1003.106703,0
0.106250,174.075807,-86.520542,-117.492803,0.711288,-3.701925,4.828273,-0.538987,3.753070,-4.774604,0.685210,-0.161317,0.504723,-0.054364,26.343328,188.571438,1001.547632,1002.398784,0
0.107293,176.060744,-0.697800,-156.406629,-0.012552,-4.706654,3.895656,1.211026,4.727144,-3.905888,-1.054577,-0.091910,0.549013,-0.050629,29.894668,188.646980,1002.243028,1002.767223,0
0.108347,134.842098,75.158196,-172.238069,-0.306612,-4.894818,2.006610,3.084173,4.918283,-2.126491,-2.833500,-0.059033,0.568284,-0.069301,26.942758,188.722150,1003.725141,1002.542666,0
0.109382,55.104319,127.722209,-192.095076,-0.736392,-4.518489,-0.021337,4.509557,4.550708,-0.015554,-4.320680,-0.011544,0.573836,-0.061832,19.444228,188.646897,1005.086355,1002.051937,0
0.110417,-14.844881,167.903296,-159.730493,-0.148272,-3.385950,-1.715922,4.867768,3.481065,1.629549,-4.708485,-0.022503,0.572922,-0.035692,12.601678,188.571418,1007.197118,1001.886594,0
