1-Time,2-VGERA,3-VGERB,4-VGERC,5-VN,6-IGERAN,7-IGERBN,8-IGERCN,9-IGERAT,10-IGERBT,11-IGERCT,12-IN,13-IFD,14-IFAULT,15-VFAULT,16-Speed (rad/s),17-Active Power,18-Reactive Power,19-FAULT 
0.000000,97.241709,102.340230,-184.671781,-0.555432,-5.540969,-0.453912,5.934940,5.583594,0.303394,-5.605063,0.035945,0.610092,-0.069301,87.191127,188.721646,1610.093853,892.937271,0
0.001042,15.802555,148.501364,-188.204925,-0.691152,-4.056953,-2.735848,6.446138,4.061833,2.687116,-6.270380,0.035945,0.616036,-0.061832,19.240648,188.646393,1609.907957,892.680290,0
0.002083,-56.800791,175.743803,-143.763637,0.179718,-1.667615,-4.739983,5.852850,1.804923,4.625988,-5.661988,0.014027,0.604866,-0.084238,-48.483630,188.570931,1609.180205,891.990060,0
0.003125,-109.724898,201.065378,-58.303409,1.808358,0.987993,-6.180579,4.576721,-0.929835,6.178764,-4.516362,-0.018850,0.595655,-0.028224,-115.879919,188.495560,1608.314536,891.749636,0
0.004167,-158.429595,167.722082,10.611364,3.109008,3.118160,-6.390914,2.606558,-3.025013,6.405386,-2.637819,-0.044421,0.597223,-0.069301,-158.733508,188.721693,1608.081144,891.808613,0
0.005208,-185.458774,119.507195,78.922917,4.375728,5.223475,-5.680537,-0.035252,-5.167975,5.826242,-0.058380,-0.128440,0.587163,-0.035692,-179.453428,188.721744,1607.815777,891.334019,0
0.006250,-186.025899,35.689883,132.510985,5.359698,6.224653,-4.136758,-2.356164,-6.200861,4.349006,2.200853,-0.146705,0.595786,-0.039427,-171.977518,188.570924,1607.255820,890.555364,0
0.007292,-160.754808,-38.849295,171.769508,6.151398,6.593882,-2.104843,-4.501702,-6.505948,2.317807,4.307098,-0.230724,0.569721,-0.050629,-142.039948,188.570930,1606.575710,889.479558,0
0.008333,-96.250007,-102.624387,184.609470,6.411528,5.624656,0.633480,-6.087534,-5.601714,-0.342896,5.794278,-0.248989,0.555088,-0.035692,-81.282630,188.721784,1605.277167,888.783757,0
0.009375,-14.481921,-148.374771,188.314963,6.468078,4.169042,2.867792,-6.606194,-4.197577,-2.701438,6.388439,-0.241683,0.589645,-0.050629,-14.180401,188.721703,1604.614882,887.678500,0
0.010417,56.522132,-175.435996,143.959849,5.653758,1.801006,4.844147,-6.012907,-1.944342,-4.636113,5.876109,-0.197847,0.612705,-0.046895,52.910517,188.570913,1604.197008,887.760606,0
0.011458,109.661747,-200.721328,59.755303,4.092978,-0.836850,6.304586,-4.725584,0.816146,-6.214069,4.677114,-0.190541,0.602645,-0.054364,120.544316,188.646366,1603.777682,887.755963,0
0.012500,158.423156,-167.655894,-10.402841,2.758398,-3.041573,6.491109,-2.718107,2.929702,-6.398724,2.809245,-0.157664,0.595459,-0.013287,163.465765,188.721663,1603.640415,887.570125,0
0.013542,184.703730,-118.438291,-79.219129,1.435128,-5.132687,5.796607,-0.068834,5.116774,-5.819580,0.222690,-0.102869,0.591344,-0.017021,183.676734,188.721703,1603.845751,888.153580,0
0.014583,185.520390,-33.497455,-132.437879,0.417228,-6.148067,4.316325,2.274466,6.131281,-4.333951,-2.022311,-0.073645,0.587881,-0.028224,176.404405,188.570906,1603.497591,887.848993,0
0.015625,160.430779,39.362477,-171.499432,-0.340542,-6.495994,2.280442,4.423735,6.531938,-2.315342,-4.171251,-0.000585,0.610222,-0.020755,147.394255,188.721733,1604.757134,887.693034,0
0.016667,97.071571,102.436877,-184.967235,-0.611982,-5.544519,-0.541221,5.979716,5.609324,0.324378,-5.626410,0.028639,0.613946,-0.035692,87.010167,188.721675,1605.344352,887.868580,0
0.017708,15.541677,148.465121,-188.340341,-0.679842,-4.010799,-2.795377,6.483451,4.087564,2.724886,-6.263265,0.054210,0.597484,-0.028224,19.037068,188.721677,1605.655939,887.944008,0
0.018750,-56.766763,176.432414,-143.061932,0.191028,-1.596610,-4.799512,5.890163,1.793896,4.667955,-5.669104,-0.004238,0.579128,-0.058098,-48.845550,188.570779,1606.191155,888.034521,0
0.019792,-109.724898,201.041216,-58.167993,1.785738,1.023496,-6.204390,4.572990,-0.984972,6.254305,-4.470110,-0.026156,0.597027,-0.035692,-115.845989,188.716097,1607.236954,887.181988,0
0.020833,-158.940008,167.577112,10.537500,3.131628,3.217567,-6.390914,2.580438,-3.098528,6.464139,-2.598682,-0.044421,0.600816,-0.013287,-159.016258,188.794056,1608.655591,886.809990,0
0.021875,-185.084471,119.652165,79.292235,4.398348,5.351285,-5.724192,-0.091222,-5.281923,5.872406,-0.012128,-0.084604,0.591540,-0.043161,-179.272468,188.646219,1610.470201,886.604514,0
0.022917,-186.037241,35.025433,133.028031,5.393628,6.274357,-4.168507,-2.471837,-6.215564,4.332220,2.247105,-0.175929,0.594414,-0.039427,-172.011448,188.646370,1610.884681,886.458219,0
0.023958,-161.185823,-39.827848,171.178599,6.140088,6.604533,-2.053252,-4.516627,-6.608869,2.267447,4.371139,-0.216112,0.591082,-0.031958,-141.825058,188.721621,1612.546576,886.508432,0
0.025000,-95.240525,-102.600226,185.754357,6.479388,5.660159,0.716820,-6.117385,-5.649498,-0.422633,5.868993,-0.238030,0.574163,-0.046895,-81.305250,188.797034,1614.278608,886.578552,0
0.026042,-14.515949,-148.278124,188.228788,6.513318,4.147740,2.967007,-6.628583,-4.164495,-2.785371,6.470269,-0.252642,0.596766,-0.024490,-14.350051,188.646351,1615.905463,885.947381,0
0.027083,56.227227,-176.644086,143.233523,5.653758,1.737101,4.963205,-6.009175,-1.911261,-4.673883,5.854762,-0.259948,0.607936,-0.069301,53.328987,188.646328,1616.400988,885.595799,0
0.028125,109.525637,-200.648843,59.349053,4.081668,-0.925607,6.368083,-4.658419,0.871282,-6.264430,4.620189,-0.205153,0.606107,-0.024490,120.510386,188.721677,1616.999739,884.586509,0
0.029167,158.808801,-167.498842,-10.870644,2.724468,-3.094827,6.538732,-2.662136,2.988514,-6.453281,2.741646,-0.154011,0.593826,-0.017021,163.884235,188.797054,1618.115324,884.085219,0
0.030208,184.420167,-118.124187,-79.600758,1.423818,-5.193042,5.812482,-0.046446,5.157207,-5.777613,0.187112,-0.121134,0.583309,-0.069301,183.439224,188.640602,1618.257574,883.353902,0
0.031250,185.690527,-33.412888,-132.634849,0.439848,-6.158717,4.300451,2.308048,6.149659,-4.354935,-2.097026,-0.018850,0.578671,-0.024490,176.709775,188.646706,1619.241275,883.154540,0
0.032292,160.612259,39.555772,-171.351705,-0.317922,-6.467592,2.209007,4.416272,6.487829,-2.315342,-4.181924,-0.015197,0.614338,-0.009553,147.213295,188.722235,1618.952727,882.812089,0
0.033333,96.606529,102.340230,-185.533523,-0.600672,-5.565821,-0.549158,6.028224,5.598297,0.412508,-5.686893,0.014027,0.610810,-0.035692,86.761347,188.797559,1620.208350,881.958221,0
0.034375,15.042607,148.730901,-188.241857,-0.668532,-4.007249,-2.823157,6.461063,4.058158,2.796230,-6.266822,0.028639,0.605454,-0.028224,18.675148,188.646820,1620.782707,881.386483,0
0.035417,-57.004956,176.504900,-142.914205,0.202338,-1.600160,-4.755857,5.856581,1.731408,4.697332,-5.676220,-0.011544,0.603363,-0.046895,-48.879480,188.646835,1621.320593,880.786502,0
0.036458,-109.656843,201.125782,-58.131061,1.797048,1.023496,-6.228202,4.584184,-1.003350,6.237518,-4.498573,-0.037115,0.598203,-0.035692,-115.879919,188.722242,1621.396481,880.891746,0
0.037500,-158.974035,167.613354,10.488258,3.097698,3.189165,-6.426631,2.524468,-3.105879,6.426369,-2.637819,-0.007891,0.602514,-0.061832,-159.027568,188.797530,1621.105887,881.069270,0
0.038542,-185.277294,119.386386,79.218371,4.387038,5.322882,-5.704349,-0.094954,-5.248842,5.834636,0.009219,-0.102869,0.591931,-0.054364,-179.317708,188.722110,1620.520451,880.581343,0
0.039583,-186.071269,34.675087,132.707955,5.382318,6.245955,-4.116915,-2.445717,-6.263349,4.340613,2.254221,-0.139399,0.593891,-0.061832,-171.762628,188.722212,1621.025415,880.760075,0
0.040625,-160.652725,-39.900334,171.437122,6.140088,6.579681,-2.037377,-4.553941,-6.597842,2.284233,4.346235,-0.205153,0.598791,-0.020755,-141.745888,188.722103,1620.454507,881.115064,0
0.041667,-95.422005,-102.636468,185.385038,6.468078,5.596254,0.665228,-6.136042,-5.719338,-0.389060,5.854762,-0.238030,0.604605,-0.009553,-81.248700,188.797487,1620.415719,882.091466,0
0.042708,-14.561319,-148.568065,188.191857,6.513318,4.158391,2.974944,-6.609926,-4.186550,-2.802158,6.480943,-0.219765,0.616690,-0.058098,-14.089921,188.581631,1620.778133,882.376187,0
0.043750,56.329309,-176.209174,143.430493,5.665068,1.722900,4.971142,-6.001712,-1.900233,-4.673883,5.847646,-0.208806,0.610353,-0.024490,53.385537,188.797840,1620.683663,882.082739,0
0.044792,109.639062,-200.830056,58.979735,4.025118,-0.890104,6.379989,-4.699464,0.863931,-6.289610,4.652209,-0.230724,0.604017,0.009119,120.804446,188.774239,1621.037504,882.729077,0
0.045833,158.718061,-167.378033,-11.264583,2.713158,-3.052224,6.554607,-2.662136,3.003217,-6.470068,2.755877,-0.190541,0.593303,-0.028224,163.827685,188.776463,1621.225793,883.030781,0
0.046875,184.658360,-118.124187,-79.576137,1.423818,-5.196592,5.860105,-0.061372,5.190289,-5.819580,0.183554,-0.099216,0.588012,-0.024490,183.676734,188.709786,1622.002074,883.403507,0
0.047917,185.622472,-33.557859,-132.721023,0.428538,-6.180019,4.300451,2.289392,6.197444,-4.350738,-2.097026,-0.048074,0.569133,-0.024490,176.641915,188.791183,1622.562751,883.482642,0
0.048958,160.782396,39.434963,-171.364016,-0.306612,-6.531497,2.201070,4.416272,6.509883,-2.323735,-4.213945,-0.007891,0.607609,-0.035692,147.213295,188.792176,1623.199277,883.552154,0
0.050000,96.515789,102.473120,-185.484281,-0.623292,-5.548069,-0.553127,6.028224,5.620351,0.412508,-5.669104,0.024986,0.610745,-0.020755,86.376807,188.790754,1623.069422,883.838571,0
0.051042,14.554880,148.646335,-188.229546,-0.725082,-4.021450,-2.819188,6.487183,4.039779,2.792033,-6.316632,0.054210,0.616036,-0.031958,18.324538,188.642523,1623.402755,884.016931,0
0.052083,-57.163751,176.939812,-142.409470,0.157098,-1.578858,-4.823323,5.845387,1.735084,4.726709,-5.683336,0.035945,0.601861,-0.054364,-49.196160,188.782053,1623.722415,884.292520,0
0.053125,-109.679528,201.077458,-58.217235,1.785738,1.101602,-6.228202,4.554333,-1.007026,6.313059,-4.455878,-0.026156,0.599640,-0.017021,-115.902539,188.783708,1624.468374,883.911917,0
0.054167,-159.552503,167.359655,10.709849,3.097698,3.245970,-6.414725,2.505811,-3.149988,6.459943,-2.552430,-0.037115,0.598464,-0.084238,-159.412108,188.779136,1625.264081,883.135770,0
0.055208,-184.959704,119.531356,79.612311,4.387038,5.372586,-5.660694,-0.124805,-5.292951,5.822045,0.005661,-0.128440,0.592258,-0.017021,-179.204608,188.709521,1625.624724,883.033399,0
0.056250,-186.082611,34.107284,133.200379,5.404938,6.309860,-4.089135,-2.468105,-6.263349,4.294449,2.314704,-0.161317,0.583113,-0.039427,-171.819178,188.795406,1625.941253,882.344744,0
0.057292,-161.106425,-40.733916,170.920076,6.162708,6.586782,-1.989754,-4.587523,-6.671357,2.250660,4.385371,-0.201500,0.617278,-0.050629,-141.542308,188.797699,1627.066735,882.458890,0
0.058333,-94.741455,-102.636468,186.049811,6.445458,5.631757,0.689040,-6.136042,-5.649498,-0.472994,5.872551,-0.234377,0.595720,-0.028224,-81.101670,188.797799,1627.399320,881.131439,0
0.059375,-14.640716,-148.423094,188.081061,6.479388,4.126439,2.970976,-6.595000,-4.157144,-2.806355,6.441806,-0.223418,0.608459,-0.024490,-14.169091,188.646951,1626.918421,880.487415,0
0.060417,56.057089,-177.078999,142.888826,5.653758,1.722900,4.951299,-5.983056,-1.848773,-4.724244,5.876109,-0.241683,0.614665,-0.028224,53.713527,188.797712,1627.998822,880.213819,0
0.061458,109.684432,-200.685085,58.450379,4.047738,-0.914956,6.376020,-4.673345,0.911716,-6.277020,4.659325,-0.197847,0.601926,-0.058098,120.747896,188.797702,1628.021786,879.961034,0
0.062500,158.944911,-167.305547,-11.658523,2.724468,-3.109028,6.534764,-2.639748,2.951757,-6.428101,2.727414,-0.143052,0.597615,-0.024490,164.144365,188.797770,1627.024516,879.880035,0
0.063542,184.329427,-118.027540,-79.982387,1.457748,-5.139787,5.828356,-0.050177,5.160883,-5.823777,0.172880,-0.080951,0.588535,-0.035692,183.563634,188.722331,1626.613616,879.942674,0
0.064583,185.645157,-33.557859,-132.868750,0.428538,-6.158717,4.268702,2.326705,6.142308,-4.346541,-2.104142,-0.037115,0.592715,-0.035692,176.879425,188.797648,1626.062208,879.720347,0
0.065625,160.623601,39.785309,-171.191667,-0.295302,-6.481793,2.197102,4.438661,6.498856,-2.332129,-4.160577,-0.022503,0.608589,-0.031958,146.964475,188.797773,1625.187921,880.063653,0
0.066667,96.050746,102.654333,-185.656629,-0.634602,-5.537419,-0.545190,6.013299,5.572567,0.404115,-5.704683,0.010374,0.608916,-0.050629,86.071437,188.797813,1625.177990,879.861879,0
0.067708,14.259975,148.730901,-187.983334,-0.657222,-3.968196,-2.839031,6.464794,4.054482,2.741673,-6.291727,0.017680,0.594806,-0.046895,18.267988,188.646973,1624.276779,880.389189,0
0.068750,-57.379258,176.674032,-142.495644,0.236268,-1.571758,-4.815386,5.864044,1.709353,4.697332,-5.683336,0.006721,0.593173,-0.061832,-49.060440,188.722377,1623.939547,880.174018,0
0.069792,-109.951748,200.956649,-58.254167,1.819668,1.016395,-6.204390,4.554333,-1.007026,6.258502,-4.491457,-0.015197,0.601404,-0.050629,-115.993019,188.797764,1623.423062,880.545279,0
0.070833,-159.359680,167.432141,10.549811,3.086388,3.185615,-6.379008,2.543125,-3.149988,6.464139,-2.623587,-0.059033,0.602841,-0.020755,-159.208528,188.797764,1623.462693,881.295606,0
0.071875,-185.334006,119.217253,79.476894,4.353108,5.298031,-5.672600,-0.106148,-5.259869,5.847226,-0.022801,-0.084604,0.589580,-0.050629,-179.148058,188.722398,1623.118300,881.999972,0
0.072917,-185.923816,33.817342,132.991099,5.393628,6.274357,-4.116915,-2.427060,-6.215564,4.323826,2.239989,-0.168623,0.585660,-0.020755,-171.502498,188.722416,1621.833312,882.806575,0
0.073958,-160.561985,-40.721835,171.240152,6.174018,6.579681,-2.045314,-4.531553,-6.594166,2.259053,4.371139,-0.183235,0.606368,-0.031958,-141.440518,188.797759,1620.800890,882.521520,0
0.075000,-95.274552,-102.853925,185.335796,6.468078,5.631757,0.708883,-6.102459,-5.700959,-0.397453,5.819183,-0.212459,0.598137,-0.035692,-81.248700,188.794212,1619.920024,883.673362,0
0.076042,-14.878909,-148.737198,187.994887,6.524628,4.208095,2.955101,-6.587538,-4.157144,-2.776978,6.427575,-0.219765,0.606434,-0.035692,-14.112541,188.797762,1619.556387,883.847403,0
0.077083,56.374679,-176.390387,143.073485,5.608518,1.737101,4.923519,-5.949473,-1.845097,-4.678080,5.840530,-0.219765,0.608001,-0.031958,53.702217,188.722306,1618.557908,883.532645,0
0.078125,109.775172,-200.745490,58.204167,4.025118,-0.904306,6.340303,-4.721853,0.867607,-6.226660,4.641536,-0.223418,0.600489,-0.050629,120.962786,188.797750,1617.520178,883.758130,0
0.079167,158.763431,-167.112253,-11.830871,2.724468,-3.073526,6.510952,-2.688256,2.988514,-6.390331,2.755877,-0.150358,0.594871,-0.035692,163.963405,188.722319,1617.363241,883.640731,0
0.080208,184.544935,-118.051702,-79.920834,1.412508,-5.200142,5.860105,-0.083760,5.127801,-5.819580,0.222690,-0.088257,0.588992,-0.050629,183.733284,188.797724,1616.782850,884.220219,0
0.081250,185.440992,-33.714911,-132.967235,0.428538,-6.155167,4.292514,2.308048,6.116578,-4.325558,-2.068563,-0.026156,0.597288,-0.043161,176.732395,188.722583,1616.100595,884.154347,0
0.082292,160.816424,39.628257,-171.277841,-0.317922,-6.439189,2.220913,4.420004,6.487829,-2.302752,-4.217503,-0.004238,0.604409,-0.046895,146.975785,188.797847,1616.813565,883.435162,0
0.083333,95.528991,102.811385,-185.471970,-0.657222,-5.540969,-0.576938,6.017030,5.590945,0.387328,-5.679778,0.010374,0.602318,-0.013287,85.426767,188.646965,1616.268446,883.926394,0
0.084375,13.783590,148.682578,-187.860228,-0.611982,-4.025000,-2.823157,6.524496,4.150051,2.741673,-6.277496,0.068822,0.544310,-0.009553,18.053098,188.797641,1616.079633,885.115416,0
0.085417,-57.379258,177.048540,-142.077084,0.224958,-1.589509,-4.811417,5.871507,1.746111,4.768676,-5.711798,0.028639,0.577037,-0.043161,-49.377120,188.797663,1616.996203,885.750622,0
0.086458,-110.042488,200.811679,-58.094129,1.785738,1.094501,-6.240107,4.539408,-1.018053,6.237518,-4.470110,-0.007891,0.601926,-0.024490,-116.026949,188.797697,1616.638134,885.426868,0
0.087500,-159.711298,167.214685,10.746780,3.063768,3.277922,-6.394882,2.494617,-3.157340,6.438959,-2.534641,-0.055380,0.596962,-0.061832,-159.468658,188.646909,1616.432258,884.359277,0
0.088542,-184.834936,119.205172,79.907765,4.387038,5.315782,-5.672600,-0.158387,-5.252517,5.792669,0.016335,-0.106522,0.587228,-0.017021,-178.910548,188.797777,1615.985354,883.451665,0
0.089583,-185.923816,33.273702,133.101894,5.416248,6.295659,-4.069292,-2.539001,-6.230267,4.273466,2.318262,-0.161317,0.568480,-0.031958,-171.457258,188.797802,1616.563848,882.464245,0
0.090625,-160.947630,-41.060101,170.723107,6.140088,6.608083,-2.005629,-4.580061,-6.586815,2.187710,4.403160,-0.194194,0.562731,-0.009553,-141.440518,188.797683,1616.966965,881.388865,0
0.091667,-94.684742,-102.576064,186.308334,6.434148,5.642408,0.808097,-6.180818,-5.656850,-0.519157,5.897456,-0.227071,0.601730,-0.013287,-81.192150,188.571549,1618.555876,879.877636,0
0.092708,-14.878909,-148.531823,187.773296,6.502008,4.119338,2.963038,-6.613657,-4.168171,-2.818945,6.459595,-0.238030,0.606630,-0.024490,-14.010751,188.797704,1619.211675,879.792711,0
0.093750,56.091117,-177.405183,142.408713,5.642448,1.669646,5.002890,-5.938279,-1.775258,-4.753620,5.865435,-0.205153,0.608328,-0.024490,54.188547,188.797730,1620.614580,879.262919,0
0.094792,109.729802,-200.685085,57.748674,4.025118,-0.982412,6.372052,-4.632300,0.915391,-6.256036,4.598842,-0.205153,0.596896,-0.028224,121.075886,188.797771,1620.971028,878.494798,0
0.095833,159.149076,-167.112253,-12.040152,2.701848,-3.144531,6.542701,-2.643480,3.028948,-6.461674,2.734530,-0.143052,0.593499,-0.035692,164.325325,188.571603,1622.164756,878.671237,0
0.096875,184.431510,-118.112106,-80.179356,1.457748,-5.185941,5.816450,-0.027789,5.201316,-5.823777,0.158649,-0.128440,0.588143,-0.035692,183.654114,188.797748,1623.352321,877.964991,0
0.097917,185.656500,-33.666587,-133.188826,0.405918,-6.162268,4.264734,2.349093,6.171714,-4.308771,-2.079237,-0.073645,0.589514,-0.043161,176.981215,188.797847,1624.133874,877.971343,0
0.098958,160.702999,39.966523,-171.056251,-0.295302,-6.428538,2.137573,4.468512,6.484153,-2.264982,-4.221060,-0.000585,0.611725,-0.024490,146.489455,188.797644,1624.064088,877.552738,0
0.100000,94.984551,102.726819,-185.989016,-0.623292,-5.509016,-0.616624,6.050612,5.601973,0.488049,-5.733145,0.010374,0.568480,-0.061832,85.404147,188.571482,1625.403195,876.812761,0
0.101042,13.466000,148.779225,-187.810985,-0.645912,-3.978847,-2.787440,6.494645,4.021400,2.817213,-6.263265,0.046904,0.614991,-0.031958,17.985238,188.722331,1625.715852,874.840852,0
0.102083,-57.220463,177.096864,-142.200190,0.202338,-1.571758,-4.811417,5.893895,1.702002,4.730905,-5.658431,0.021333,0.586901,-0.046895,-49.286640,188.797672,1625.047068,873.908102,0
0.103125,-109.929063,200.799598,-58.143371,1.785738,1.112252,-6.216296,4.528213,-1.025405,6.271092,-4.470110,-0.007891,0.600489,-0.028224,-115.993019,188.797710,1625.502828,873.846243,0
0.104167,-159.507133,167.154280,10.771402,3.075078,3.260171,-6.375039,2.505811,-3.146313,6.422173,-2.577335,-0.059033,0.603363,-0.058098,-159.389488,188.571683,1625.135962,874.251749,0
0.105208,-185.084471,118.746098,80.006250,4.409658,5.337084,-5.656726,-0.135999,-5.285599,5.805259,0.002104,-0.095563,0.586314,-0.020755,-178.933168,188.722322,1625.455713,874.664217,0
0.106250,-185.855761,33.068326,132.917235,5.393628,6.274357,-4.089135,-2.505419,-6.171455,4.298646,2.296915,-0.150358,0.562013,-0.017021,-171.400708,188.797773,1624.557013,874.939494,0
0.107292,-160.686753,-40.842644,171.153978,6.140088,6.579681,-2.005629,-4.606180,-6.638275,2.221283,4.367582,-0.179582,0.620087,-0.050629,-141.576238,188.797646,1624.614380,875.917581,0
0.108333,-95.093072,-102.696873,185.815910,6.468078,5.592704,0.732694,-6.158430,-5.682580,-0.460404,5.876109,-0.245336,0.604474,-0.058098,-81.158220,188.646980,1624.104487,876.662934,0
0.109375,-15.026361,-148.894250,187.945645,6.456768,4.144190,2.986850,-6.617388,-4.153468,-2.802158,6.413343,-0.201500,0.611660,-0.020755,-13.965511,188.722329,1623.580509,876.469361,0
0.110417,56.306624,-176.837381,142.494887,5.597208,1.680297,4.987016,-5.934548,-1.793637,-4.778801,5.801394,-0.227071,0.605780,-0.031958,54.143307,188.797683,1623.127120,875.976988,0
