1-Time,2-VGERA,3-VGERB,4-VGERC,5-VN,6-IGERAN,7-IGERBN,8-IGERCN,9-IGERAT,10-IGERBT,11-IGERCT,12-IN,13-IFD,14-IFAULT,15-VFAULT,16-Speed (rad/s),17-Active Power,18-Reactive Power,19-FAULT 
0.000000,-136.731995,171.522719,-25.586406,-0.259955,6.746544,-4.109797,-2.808094,-6.408065,4.021692,2.562939,0.077375,0.309381,0.000144,-138.088141,188.570888,1510.125752,-909.248252,0
0.001042,-183.468486,117.225537,25.292644,0.753382,6.603435,-1.933317,-4.563316,-6.182044,1.724403,4.276468,0.077375,0.323781,-0.025873,-178.978376,188.495738,1509.153981,-909.743832,0
0.002083,-193.909617,55.388059,90.692941,2.036942,5.792481,0.800808,-6.237349,-5.478043,-0.890362,5.871954,0.124775,0.322197,-0.014723,-189.257227,188.571158,1509.965294,-908.957327,0
0.003125,-163.411119,3.980150,155.862356,3.320502,4.221947,2.968965,-6.488647,-3.832905,-3.028913,6.096616,0.161237,0.332876,0.003860,-154.975628,188.721905,1510.488034,-908.754073,0
0.004167,-98.798146,-43.457946,203.375392,4.209987,1.807434,4.929045,-5.962854,-1.450419,-5.096914,5.510209,0.143006,0.349481,-0.025873,-92.266760,188.571036,1510.359395,-908.565473,0
0.005208,-46.276093,-111.872629,188.270864,3.939764,-0.647444,6.281542,-4.648371,1.024700,-6.212488,4.021342,0.081021,0.333083,0.007577,-42.673840,188.495365,1509.787259,-908.313549,0
0.006250,3.093281,-177.679921,139.238869,3.005242,-3.039940,6.643595,-2.576127,3.399776,-6.587285,2.086959,0.008098,0.310966,-0.029590,5.962122,188.570944,1510.246599,-907.610142,0
0.007292,57.412022,-197.517243,78.091657,1.856793,-4.911371,5.632344,0.199752,5.263525,-5.498167,-0.749883,0.022683,0.320268,-0.025873,60.261022,188.646500,1509.490749,-907.280182,0
0.008333,137.347694,-171.725201,25.960986,0.832197,-6.070925,4.138355,2.732065,6.438094,-3.998977,-3.228788,-0.032010,0.317512,-0.055607,139.159361,188.570970,1509.786705,-906.974694,0
0.009375,183.360990,-117.592449,-25.294766,-0.203659,-5.916807,1.957713,4.498885,6.219484,-1.728144,-4.949933,-0.050241,0.325573,-0.029590,179.385355,188.495642,1508.929103,-907.284816,0
0.010417,194.107219,-55.989871,-91.083916,-1.498478,-5.157226,-0.772250,6.138122,5.526599,0.846936,-6.560650,-0.079410,0.326331,0.000144,189.709238,188.571140,1509.512772,-906.705755,0
0.011458,163.766919,-4.558472,-155.998146,-2.714483,-3.623386,-2.886307,6.424216,3.881460,3.064856,-6.720579,-0.101287,0.338733,0.015011,155.866715,188.646560,1508.553779,-906.958415,0
0.012500,99.651143,43.537344,-203.122329,-3.716561,-1.278593,-4.892164,5.898422,1.569374,5.062306,-6.225560,-0.112226,0.350997,-0.003573,93.360496,188.571087,1508.640303,-906.977692,0
0.013542,47.468088,112.233908,-187.799071,-3.333744,1.253343,-6.190561,4.525948,-0.946502,6.252840,-4.702423,-0.061180,0.341833,-0.037023,43.711285,188.495598,1507.861838,-907.363152,0
0.014583,-2.534082,177.677104,-138.888593,-2.444260,3.667856,-6.565099,2.538759,-3.295641,6.658503,-2.737577,-0.053887,0.337286,-0.022156,-5.431302,188.495693,1507.680627,-907.608462,0
0.015625,-58.061915,197.068116,-78.130234,-1.295811,5.509932,-5.574655,-0.229388,-5.189033,5.525292,0.038340,0.040913,0.321921,-0.029590,-60.270601,188.646507,1508.269322,-906.935323,0
0.016667,-137.715088,171.323054,-26.023866,-0.271215,6.698841,-4.055697,-2.765567,-6.363602,4.034920,2.570555,0.106545,0.316409,-0.025873,-139.045099,188.570998,1508.276108,-906.640451,0
0.017708,-183.717084,117.519163,25.778710,0.787160,6.574079,-1.920832,-4.493726,-6.119055,1.737631,4.249813,0.110191,0.326469,0.007577,-179.113476,188.495633,1507.917061,-906.008259,0
0.018750,-194.000017,55.928330,91.725833,2.070720,5.744778,0.825777,-6.225750,-5.422464,-0.925637,5.864338,0.150299,0.327915,-0.011006,-189.223452,188.571100,1507.477074,-906.434770,0
0.019792,-163.603217,4.449951,156.445636,3.320502,4.159566,2.964803,-6.507978,-3.781031,-3.006866,6.009036,0.157591,0.342453,0.026161,-154.851787,188.721866,1506.293169,-906.153519,0
0.020833,-99.216243,-43.904256,203.472606,4.209987,1.781747,4.916561,-5.904862,-1.409661,-5.083685,5.464514,0.121129,0.342040,0.000144,-91.748877,188.571022,1505.635760,-906.343794,0
0.021875,-46.592491,-112.870955,187.942769,3.973542,-0.684138,6.181665,-4.489859,1.054342,-6.194850,3.971841,0.099252,0.337975,-0.014723,-42.009599,188.495683,1505.117626,-906.564657,0
0.022917,3.454879,-178.255426,138.546224,2.993982,-3.058287,6.593657,-2.529733,3.381249,-6.560829,1.972724,0.037267,0.331843,-0.025873,6.727688,188.571073,1503.978288,-906.637421,0
0.023958,58.191717,-197.458518,77.326102,1.834274,-4.885685,5.553275,0.219083,5.252409,-5.432027,-0.803193,0.048206,0.316271,-0.022156,60.790163,188.646413,1503.102254,-906.521181,0
0.025000,138.116089,-171.114460,25.231885,0.809678,-6.030560,4.021832,2.735931,6.445505,-3.941655,-3.270675,-0.079410,0.311931,-0.022156,139.643469,188.571051,1502.758916,-906.750516,0
0.026042,183.507889,-116.688084,-26.157534,-0.226178,-5.883781,1.895290,4.464090,6.189841,-1.723735,-4.915662,-0.064826,0.322748,-0.037023,179.452905,188.495779,1502.534753,-905.718021,0
0.027083,193.926420,-54.791880,-91.861623,-1.498478,-5.087506,-0.805542,6.145855,5.463609,0.930714,-6.568266,-0.115872,0.323781,0.007577,189.551622,188.571132,1501.787035,-906.075075,0
0.028125,162.862925,-3.231286,-156.156118,-2.759520,-3.505963,-2.940407,6.459011,3.833292,3.082493,-6.705348,-0.126811,0.323644,0.018727,154.628299,188.646389,1501.261751,-905.666354,0
0.029167,97.910954,44.359495,-203.657003,-3.705301,-1.172178,-4.929618,5.886824,1.491563,5.146085,-6.176058,-0.141395,0.342109,-0.003573,91.367773,188.571109,1500.762104,-906.325233,0
0.030208,45.524501,112.985589,-187.349459,-3.322485,1.326733,-6.186400,4.467956,-0.950208,6.244021,-4.694807,-0.046595,0.339146,-0.029590,41.752336,188.495691,1500.891195,-905.329448,0
0.031250,-3.890073,178.616705,-137.649122,-2.410482,3.708221,-6.552614,2.503963,-3.343810,6.662913,-2.691883,-0.024718,0.314687,-0.022156,-6.669718,188.646447,1501.044073,-905.312060,0
0.032292,-58.412213,197.079861,-76.343938,-1.216996,5.586991,-5.591301,-0.298978,-5.207559,5.459151,0.141152,-0.002841,0.317649,-0.007290,-60.856034,188.571094,1499.927815,-905.686227,0
0.033333,-138.562583,171.146879,-24.140357,-0.226178,6.720858,-4.064020,-2.815827,-6.400655,4.030511,2.551516,0.022683,0.310070,-0.018440,-139.551723,188.571132,1500.846821,-904.943769,0
0.034375,-183.378087,115.863116,26.775148,0.787160,6.519037,-1.833440,-4.528521,-6.152402,1.693537,4.257429,0.088314,0.325091,0.007577,-179.248576,188.495685,1500.854611,-904.555762,0
0.035417,-194.090416,54.401478,92.795180,2.093238,5.759456,0.854908,-6.272144,-5.411349,-0.952093,5.902416,0.146652,0.327709,-0.033307,-189.279743,188.646435,1501.381475,-904.453754,0
0.036458,-162.009928,3.075784,156.700821,3.354280,4.148557,2.973126,-6.488647,-3.766210,-3.059778,6.058538,0.121129,0.352099,-0.011006,-153.816021,188.571100,1501.709733,-904.424774,0
0.037500,-97.509954,-44.644192,204.165251,4.255024,1.745053,4.987307,-5.943523,-1.391134,-5.127779,5.502593,0.102898,0.344383,-0.037023,-91.534969,188.571114,1502.519097,-904.383870,0
0.038542,-45.688497,-113.610891,187.152911,3.860949,-0.687808,6.244088,-4.551717,1.091394,-6.230125,3.968033,0.081021,0.321232,-0.018440,-42.110924,188.495660,1502.754957,-904.402620,0
0.039583,4.053775,-179.347712,138.084460,2.971464,-3.050948,6.601980,-2.498804,3.373839,-6.600513,1.987955,0.026329,0.323092,-0.025873,7.065438,188.646464,1503.803231,-904.070941,0
0.040625,58.982712,-196.530662,77.386860,1.834274,-4.911371,5.574082,0.253878,5.289462,-5.462892,-0.829848,0.000805,0.321163,-0.014723,61.882221,188.571031,1504.109817,-904.362746,0
0.041667,139.460780,-171.455066,25.134672,0.820937,-6.111289,4.088416,2.759128,6.504789,-3.981339,-3.270675,-0.046595,0.315582,-0.011006,140.611685,188.570852,1505.659837,-904.586878,0
0.042708,183.394890,-116.500163,-26.752966,-0.214918,-5.887451,1.878644,4.514349,6.182431,-1.679641,-4.957549,-0.072118,0.327984,-0.007290,179.655555,188.495857,1505.449593,-905.130363,0
0.043750,194.276718,-55.543561,-93.246914,-1.543516,-5.149887,-0.834673,6.169051,5.493251,0.970398,-6.560650,-0.075764,0.326262,-0.025873,189.607914,188.646313,1506.163507,-905.634685,0
0.044792,162.444828,-3.701086,-156.885218,-2.703224,-3.520641,-2.957053,6.389421,3.803650,3.091312,-6.690117,-0.119518,0.344934,-0.003573,154.234258,188.570973,1505.815745,-905.837290,0
0.045833,98.419451,44.805805,-204.155221,-3.705301,-1.172178,-4.946264,5.852029,1.476742,5.124038,-6.141787,-0.112226,0.337906,-0.011006,91.761814,188.571075,1505.598535,-905.847462,0
0.046875,46.699693,113.807739,-186.644662,-3.322485,1.352419,-6.182238,4.464090,-1.013197,6.217565,-4.591996,-0.101287,0.335701,-0.018440,42.236444,188.495767,1504.075384,-906.752361,0
0.047917,-3.596275,179.450601,-137.442544,-2.376704,3.700882,-6.560937,2.465302,-3.321578,6.587953,-2.638573,-0.024718,0.329845,-0.014723,-6.838593,188.571151,1503.032249,-906.590444,0
0.048958,-59.293607,196.234220,-76.526214,-1.262033,5.531949,-5.508070,-0.318309,-5.200148,5.467970,0.175422,0.004452,0.317718,-0.029590,-61.655375,188.571442,1502.876904,-906.549387,0
0.050000,-139.692575,170.829763,-24.225419,-0.237437,6.706180,-3.993274,-2.835157,-6.337665,3.955551,2.601017,0.048206,0.313102,0.000144,-140.339806,188.571024,1501.813352,-906.782299,0
0.051042,-183.604085,115.874861,27.346276,0.798419,6.504359,-1.804309,-4.536253,-6.104234,1.671490,4.261236,0.084667,0.323988,-0.007290,-179.282351,188.495832,1501.390705,-906.692660,0
0.052083,-194.350314,54.307518,93.645797,2.115757,5.719092,0.875716,-6.221884,-5.363180,-1.005006,5.868146,0.128422,0.324126,-0.018440,-189.155902,188.571060,1500.796750,-906.866664,0
0.053125,-161.829129,2.617729,157.199040,3.343021,4.075168,2.956480,-6.422923,-3.703221,-3.099463,5.959534,0.139360,0.338457,-0.022156,-153.106746,188.571049,1499.435567,-906.834634,0
0.054167,-97.035357,-45.184462,204.639166,4.198728,1.715697,4.970660,-5.889397,-1.350376,-5.145417,5.483554,0.110191,0.342453,0.007577,-90.127678,188.571116,1499.294924,-907.099592,0
0.055208,-45.213900,-114.280356,186.800512,3.838430,-0.742850,6.227442,-4.443466,1.150679,-6.203669,3.907107,0.066437,0.333496,-0.025873,-40.636083,188.495665,1498.397014,-907.323683,0
0.056250,4.743070,-180.064158,136.869293,2.971464,-3.113329,6.527072,-2.464009,3.447944,-6.547601,1.930837,0.055498,0.337355,-0.033307,8.056171,188.646413,1497.656384,-907.651625,0
0.057292,59.604208,-196.542407,75.807143,1.800497,-4.915041,5.490852,0.304137,5.300577,-5.379114,-0.890774,0.029975,0.318269,-0.025873,62.355070,188.571093,1496.650600,-907.570528,0
0.058333,140.070976,-170.867815,23.469893,0.764641,-6.074594,4.021832,2.836450,6.464031,-3.954883,-3.308753,-0.024718,0.312068,-0.018440,141.028243,188.571100,1496.345198,-906.966754,0
0.059375,183.507889,-114.985057,-27.530673,-0.248696,-5.847087,1.812060,4.495019,6.178726,-1.617910,-4.972780,-0.112226,0.319992,-0.018440,179.689330,188.495566,1495.970944,-906.817828,0
0.060417,194.163718,-53.335499,-93.903104,-1.566034,-5.120531,-0.892934,6.184516,5.445083,1.045358,-6.549226,-0.148688,0.344589,-0.025873,189.427780,188.646688,1495.348431,-906.537029,0
0.061458,161.416535,-1.727925,-157.189010,-2.793298,-3.469268,-2.994507,6.397153,3.811060,3.086902,-6.712964,-0.123164,0.321025,-0.018440,153.052133,188.495647,1495.933462,-905.569692,0
0.062500,96.148166,45.674936,-204.872170,-3.626486,-1.062094,-4.996202,5.836564,1.432279,5.168132,-6.168442,-0.097641,0.316960,-0.029590,90.410815,188.571056,1496.431895,-905.485537,0
0.063542,44.597907,114.618145,-186.255809,-3.322485,1.359758,-6.148946,4.406098,-1.016902,6.226384,-4.599611,-0.075764,0.326262,-0.011006,41.155645,188.495649,1496.928837,-904.546312,0
0.064583,-5.031365,180.390202,-136.373197,-2.387963,3.785279,-6.573422,2.434373,-3.384568,6.579134,-2.661420,-0.017425,0.329569,0.003860,-7.660451,188.646395,1497.646641,-904.220109,0
0.065625,-59.971602,195.999320,-75.189530,-1.228255,5.631024,-5.512232,-0.345372,-5.222380,5.432695,0.163999,0.004452,0.320199,0.000144,-62.623591,188.495569,1497.603620,-903.586120,0
0.066667,-140.630469,170.841508,-23.131768,-0.203659,6.750214,-4.022404,-2.819693,-6.415476,3.973189,2.608633,0.059144,0.312620,-0.014723,-141.026564,188.571082,1499.006660,-903.693289,0
0.067708,-183.547586,114.712105,27.978163,0.820937,6.500689,-1.771017,-4.551717,-6.096823,1.614168,4.310738,0.095606,0.323713,-0.007290,-179.665134,188.495642,1498.652430,-904.043639,0
0.068750,-194.384214,53.908188,94.933874,2.138276,5.766795,0.879877,-6.256679,-5.396528,-0.965321,5.887185,0.164883,0.326882,0.000144,-189.234710,188.646600,1499.856925,-903.455992,0
0.069792,-160.800836,2.371084,157.915988,3.365539,4.027465,3.035549,-6.457718,-3.658758,-3.103872,6.009036,0.150299,0.341420,-0.022156,-152.386214,188.495629,1499.997375,-903.620726,0
0.070833,-96.707659,-45.842183,205.076626,4.255024,1.697349,5.049730,-5.916460,-1.346671,-5.171873,5.475938,0.132068,0.340042,-0.011006,-90.679336,188.571094,1500.337075,-903.704869,0
0.071875,-45.394699,-115.396132,185.901288,3.917245,-0.772206,6.214958,-4.466663,1.135858,-6.221306,3.907107,0.110191,0.327089,-0.029590,-41.232775,188.495691,1500.710061,-903.373369,0
0.072917,5.036868,-181.085974,136.844990,2.982723,-3.131677,6.610303,-2.475608,3.488702,-6.556420,1.942261,0.048206,0.323437,-0.011006,8.303854,188.646480,1501.412214,-903.740564,0
0.073958,60.609901,-195.649786,76.123086,1.800497,-4.955405,5.557436,0.358263,5.307988,-5.440845,-0.906005,-0.006487,0.320819,-0.025873,63.469644,188.495598,1502.068310,-903.683241,0
0.075000,141.370467,-171.114460,23.712926,0.787160,-6.114958,4.038478,2.844183,6.482558,-3.906380,-3.323984,-0.046595,0.314756,-0.022156,141.748776,188.571080,1502.221946,-904.250888,0
0.076042,183.440089,-114.985057,-27.968133,-0.237437,-5.810392,1.762121,4.537546,6.134262,-1.542950,-4.991819,-0.101287,0.328742,0.007577,180.004563,188.495973,1501.299895,-904.780112,0
0.077083,194.401017,-54.216375,-95.166878,-1.554775,-5.135209,-0.880450,6.188382,5.459904,1.023311,-6.591113,-0.148688,0.332532,0.000144,189.461555,188.646500,1502.363573,-905.160333,0
0.078125,160.851539,-2.315175,-157.760139,-2.782039,-3.469268,-2.982022,6.393287,3.751776,3.153043,-6.678693,-0.108580,0.340662,0.007577,152.511734,188.495589,1501.404436,-906.042951,0
0.079167,96.713162,46.074266,-205.090900,-3.671523,-1.076772,-5.029495,5.805635,1.395226,5.194588,-6.096093,-0.101287,0.345967,0.007577,90.219424,188.571058,1500.681515,-906.680098,0
0.080208,45.185503,115.393316,-185.514557,-3.288707,1.392783,-6.182238,4.390633,-1.065071,6.204337,-4.557725,-0.086703,0.339835,-0.007290,40.649020,188.495667,1499.938583,-907.067574,0
0.081250,-5.166964,181.094902,-135.874978,-2.399222,3.744915,-6.544291,2.411176,-3.395684,6.535040,-2.570032,-0.017425,0.329293,-0.033307,-8.392242,188.571064,1498.895325,-907.427086,0
0.082292,-60.773897,195.564755,-74.849283,-1.194477,5.616346,-5.478940,-0.391765,-5.226085,5.375373,0.255387,0.026329,0.316547,0.000144,-63.265316,188.495707,1497.851702,-907.948254,0
0.083333,-141.477964,170.594863,-22.451275,-0.181140,6.720858,-3.993274,-2.889283,-6.415476,3.915867,2.646712,0.066437,0.310897,0.007577,-141.476897,188.571114,1497.582724,-908.224672,0
0.084375,-183.592785,114.030895,28.768022,0.809678,6.419961,-1.741886,-4.563316,-6.082002,1.539209,4.280276,0.084667,0.322748,0.003860,-179.653876,188.495660,1496.925030,-907.956046,0
0.085417,-194.305115,52.909862,95.638671,2.115757,5.708083,0.888200,-6.268278,-5.333538,-0.991777,5.864338,0.124775,0.324746,-0.033307,-188.975769,188.646549,1496.242065,-907.573514,0
0.086458,-160.190640,1.149603,158.001050,3.343021,3.987100,3.023065,-6.384261,-3.666168,-3.117100,5.948110,0.135714,0.346863,0.026161,-151.451773,188.495613,1495.861421,-906.705216,0
0.087500,-95.261269,-46.488158,205.404721,4.277543,1.653316,5.037245,-5.823673,-1.298503,-5.154236,5.453091,0.143006,0.340800,-0.022156,-88.810454,188.571132,1495.378290,-906.235458,0
0.088542,-43.767509,-115.865933,185.682558,3.883467,-0.761197,6.160858,-4.408671,1.150679,-6.190441,3.865221,0.095606,0.324815,-0.014723,-39.341376,188.495723,1494.857756,-905.510896,0
0.089583,6.155561,-181.602754,135.471851,2.926427,-3.153694,6.539557,-2.433080,3.462765,-6.477051,1.881335,0.062790,0.321990,0.000144,9.384653,188.646326,1493.719242,-904.419262,0
0.090625,61.152297,-195.743746,74.361094,1.777978,-4.922380,5.470044,0.389192,5.326514,-5.374705,-0.928852,-0.013779,0.319027,0.003860,64.043819,188.495658,1493.194910,-904.015268,0
0.091667,141.765965,-170.491975,22.096754,0.742122,-6.074594,3.992701,2.863513,6.408452,-3.910789,-3.335408,-0.035656,0.311931,0.003860,142.210367,188.495671,1492.876205,-902.771429,0
0.092708,183.473989,-113.434716,-28.903812,-0.293733,-5.755350,1.741314,4.537546,6.126852,-1.560588,-4.961356,-0.108580,0.321990,-0.029590,180.117146,188.495678,1492.994716,-901.420826,0
0.093750,194.288018,-52.243213,-95.847372,-1.554775,-5.072828,-0.897096,6.207713,5.433967,1.014492,-6.530187,-0.101287,0.320336,-0.011006,189.348972,188.646464,1492.656470,-899.901071,0
0.094792,159.857145,-0.800069,-158.136841,-2.804557,-3.439913,-2.994507,6.366224,3.725839,3.104540,-6.663462,-0.108580,0.335357,-0.014723,151.757426,188.495879,1492.481806,-898.562135,0
0.095833,94.972974,46.837692,-205.370389,-3.694042,-1.065764,-5.000364,5.836564,1.432279,5.137266,-6.149403,-0.126811,0.336941,-0.022156,89.836641,188.495693,1493.306827,-896.917794,0
0.096875,44.010311,116.227212,-185.162159,-3.277448,1.418470,-6.198884,4.332641,-1.091008,6.204337,-4.569149,-0.075764,0.329707,-0.029590,40.705312,188.495743,1493.659541,-896.512506,0
0.097917,-5.844960,181.529468,-135.449670,-2.399222,3.744915,-6.544291,2.403444,-3.384568,6.601181,-2.592879,-0.035656,0.319716,-0.003573,-8.651183,188.571047,1494.810638,-896.151054,0
0.098958,-61.429293,195.094954,-74.484733,-1.228255,5.612677,-5.499747,-0.414962,-5.248317,5.401829,0.236348,0.037267,0.319027,0.003860,-64.289823,188.495718,1495.398615,-895.794319,0
0.100000,-142.359358,170.477413,-22.171786,-0.181140,6.757552,-3.976628,-2.893149,-6.393244,3.955551,2.620057,0.044560,0.314411,0.026161,-142.152396,188.495595,1496.028001,-894.947033,0
0.101042,-183.615385,113.678544,29.326999,0.854715,6.405283,-1.721079,-4.629040,-6.052360,1.583303,4.329778,0.110191,0.327709,-0.014723,-180.250567,188.495758,1496.344190,-894.761730,0
0.102083,-194.553713,53.532348,96.914597,2.172053,5.719092,0.946462,-6.260545,-5.415054,-1.062328,5.883377,0.132068,0.328880,-0.003573,-189.020802,188.571125,1497.621605,-895.725482,0
0.103125,-159.648244,1.631148,158.961032,3.365539,4.031134,3.073003,-6.426789,-3.621705,-3.156785,5.955726,0.128422,0.336597,-0.022156,-150.787531,188.495669,1497.414032,-896.463815,0
0.104167,-95.792366,-46.993194,205.647755,4.255024,1.645977,5.070537,-5.885531,-1.291092,-5.207148,5.411205,0.110191,0.341695,0.011294,-89.463437,188.495962,1497.407425,-897.141520,0
0.105208,-44.728003,-116.946474,184.904851,3.894726,-0.775875,6.219119,-4.350679,1.202552,-6.194850,3.853797,0.102898,0.337079,-0.011006,-39.825484,188.495635,1497.287753,-897.803600,0
0.106250,6.042562,-182.236985,135.532609,2.915167,-3.142685,6.597818,-2.440812,3.477586,-6.529963,1.843257,0.048206,0.331085,-0.007290,9.688628,188.571094,1497.741217,-898.559159,0
0.107292,62.237090,-194.909851,74.737796,1.777978,-4.955405,5.470044,0.396924,5.319104,-5.348248,-0.985970,-0.035656,0.319579,-0.011006,65.000777,188.495631,1497.129516,-898.781675,0
0.108333,142.952457,-170.609425,22.011692,0.742122,-6.096611,3.955247,2.832584,6.504789,-3.862286,-3.350639,-0.028364,0.316134,-0.003573,142.593150,188.495642,1497.943003,-899.768751,0
0.109375,183.462689,-113.199816,-29.389879,-0.271215,-5.777367,1.708021,4.591672,6.086094,-1.463581,-5.014666,-0.101287,0.326606,-0.037023,180.556221,188.496006,1497.002846,-900.775393,0
0.110417,194.514016,-52.642543,-96.916719,-1.599812,-5.098514,-0.930388,6.230909,5.433967,1.054177,-6.591113,-0.108580,0.326744,-0.018440,189.236389,188.571140,1497.713025,-901.818033,0
