1-Time,2-VGERA,3-VGERB,4-VGERC,5-VN,6-IGERAN,7-IGERBN,8-IGERCN,9-IGERAT,10-IGERBT,11-IGERCT,12-IN,13-IFD,14-IFAULT,15-VFAULT,16-Speed (rad/s),17-Active Power,18-Reactive Power,19-FAULT 
0.000000,-136.686795,-72.620806,167.831753,3.523169,4.875113,-2.362720,-2.734638,-4.938931,2.202675,2.828700,0.059144,0.562107,-0.014723,100.374433,188.495674,959.279945,1031.778096,0
0.001042,-55.666331,-125.449861,187.882011,3.928504,4.687970,-0.359536,-4.389340,-4.764228,0.218344,4.420378,0.084667,0.577885,-0.007290,114.042039,188.495812,958.508079,1031.813366,0
0.002083,15.873497,-162.376173,158.146870,3.365539,3.741246,1.304334,-4.864874,-3.734995,-1.420885,4.850664,0.102898,0.565758,-0.022156,99.845291,188.495732,958.075280,1032.425598,0
0.003125,87.582823,-180.181608,106.405052,2.363462,1.873484,3.295255,-4.888070,-1.896809,-3.431098,4.923013,0.102898,0.577816,-0.018440,74.682936,188.495694,957.870491,1033.303876,0
0.004167,136.048202,-176.423205,26.993878,0.832197,0.192866,4.407227,-4.141908,-0.119389,-4.479342,4.070056,0.081021,0.575887,-0.011006,26.564856,188.495645,958.596167,1034.044250,0
0.005208,173.100658,-147.859340,-47.665993,-0.586475,-1.777641,5.008182,-2.777165,1.870713,-5.044445,2.630692,0.044560,0.573406,-0.014723,-18.400892,188.495671,959.527417,1034.910767,0
0.006250,172.976358,-85.234946,-116.991280,-1.915073,-3.498624,4.861009,-0.921425,3.610154,-4.820129,0.768657,0.026329,0.573406,-0.003573,-63.929557,188.420207,959.799739,1034.899830,0
0.007292,174.140251,-2.538330,-154.770828,-2.669446,-4.625152,3.998414,0.953647,4.726738,-3.987573,-1.066722,-0.021072,0.573406,-0.022156,-86.660114,188.495691,960.301998,1034.564344,0
0.008333,136.398500,72.347854,-168.259183,-2.962187,-4.918710,2.367249,2.712734,5.038167,-2.249127,-2.879255,-0.046595,0.577127,0.011294,-100.654212,188.495597,961.334870,1033.910671,0
0.009375,56.383729,125.329594,-187.556038,-3.412560,-4.727897,0.294566,4.402232,4.817888,-0.234601,-4.432855,-0.064826,0.585877,-0.014723,-112.993336,188.495703,962.522732,1032.646480,0
0.010417,-14.726701,162.878392,-157.407740,-2.827076,-3.660081,-1.357040,4.850702,3.769666,1.452080,-4.855525,-0.079410,0.570237,-0.011006,-97.141615,188.420405,963.776262,1031.442610,0
0.011458,-87.453021,179.568051,-106.224899,-1.802480,-1.818006,-3.368401,4.870033,1.916288,3.440724,-4.847909,-0.101287,0.575542,-0.018440,-74.681257,188.495734,963.999380,1030.550475,0
0.012500,-136.438197,175.950588,-25.902349,-0.248696,-0.060328,-4.427227,4.073611,0.119879,4.432889,-3.968298,-0.050241,0.576507,-0.014723,-24.277738,188.495629,964.960988,1029.579943,0
0.013542,-172.405859,148.150149,49.498774,1.215013,1.873484,-5.020007,2.674073,-1.866426,4.976423,-2.547973,-0.046595,0.567274,-0.018440,19.528403,188.495689,966.298598,1028.798684,0
0.014583,-172.970856,83.364673,117.535983,2.532351,3.568781,-4.782895,0.795135,-3.628654,4.765049,-0.640244,-0.006487,0.571890,0.011294,65.304751,188.477866,967.231052,1028.429692,0
0.015625,-174.247747,0.668057,154.635037,3.241687,4.651275,-3.936651,-1.049007,-4.718653,3.885041,1.157057,0.019036,0.551909,-0.022156,89.487633,188.548975,968.048256,1028.392569,0
0.016667,-134.901407,-73.466446,168.573005,3.556947,4.900799,-2.317751,-2.827425,-4.957921,2.176792,2.965782,0.066437,0.576507,-0.007290,100.520791,188.472166,969.326158,1028.431934,0
0.017708,-54.558938,-125.485096,188.173651,3.962282,4.717326,-0.261420,-4.482127,-4.783217,0.136383,4.481303,0.073729,0.581192,-0.007290,113.929455,188.470899,970.486067,1028.285820,0
0.018750,15.398900,-163.304029,157.162585,3.354280,3.649509,1.361568,-4.919000,-3.681825,-1.537357,4.926821,0.099252,0.586979,-0.037023,97.469785,188.547600,972.375892,1027.740160,0
0.019792,87.582823,-179.805768,106.672389,2.374721,1.829450,3.405634,-4.942196,-1.805659,-3.517373,4.865895,0.081021,0.582777,-0.011006,73.883595,188.475677,973.495822,1026.068465,0
0.020833,137.053896,-175.612799,26.848058,0.798419,0.068104,4.423579,-4.114845,-0.020644,-4.466401,3.982476,0.062790,0.582363,0.003860,25.697965,188.474999,973.775354,1024.481932,0
0.021875,172.739060,-148.446591,-48.954070,-0.642772,-1.862039,5.040887,-2.684378,1.939076,-5.022876,2.558343,0.040913,0.571408,0.022444,-20.641299,188.471326,974.467383,1023.480148,0
0.022917,173.100658,-83.496685,-117.586712,-1.993888,-3.531649,4.779247,-0.805441,3.708900,-4.785619,0.620152,-0.010133,0.568308,-0.007290,-64.740156,188.547544,975.935634,1022.164594,0
0.023958,174.264550,-0.459464,-154.782979,-2.635668,-4.584788,3.957532,1.042568,4.760920,-3.922867,-1.150495,-0.039302,0.568101,0.007577,-88.495221,188.475504,976.637868,1021.521400,0
0.025000,134.534012,74.332761,-168.429307,-2.939669,-4.797617,2.305927,2.782325,5.038167,-2.162852,-2.951604,-0.050241,0.540472,-0.037023,-100.519112,188.480777,976.979839,1021.042616,0
0.026042,53.129350,125.670200,-188.285138,-3.345004,-4.614144,0.261861,4.425428,4.833080,-0.187149,-4.459509,-0.064826,0.548189,-0.029590,-113.207244,188.481235,976.941663,1021.490435,0
0.027083,-17.122285,163.254232,-156.702943,-2.793298,-3.634395,-1.385657,4.900962,3.750677,1.516786,-4.920258,-0.061180,0.579194,-0.022156,-98.256189,188.486513,977.531591,1022.017599,0
0.028125,-88.650813,179.791206,-105.507951,-1.757442,-1.788650,-3.458340,4.928025,1.870713,3.514058,-4.882180,-0.090349,0.583810,-0.033307,-75.784573,188.477959,978.512632,1022.312971,0
0.029167,-137.195292,175.292867,-25.683619,-0.248696,-0.052989,-4.427227,4.058146,0.059112,4.476027,-3.979721,-0.046595,0.581812,-0.007290,-25.820128,188.492781,979.293640,1022.347874,0
0.030208,-172.722257,148.138404,49.741807,1.226272,1.943204,-5.044535,2.650876,-1.908203,4.972109,-2.540357,-0.021072,0.573682,-0.007290,21.003244,188.495582,979.731894,1022.230795,0
0.031250,-173.016055,83.681789,118.009899,2.577388,3.594467,-4.778807,0.733277,-3.640048,4.721911,-0.583126,-0.017425,0.572924,-0.029590,65.012035,188.420262,980.127595,1021.365132,0
0.032292,-174.292947,1.243563,155.449199,3.252946,4.698978,-3.940740,-1.083802,-4.745238,3.850531,1.221791,0.026329,0.559833,0.015011,90.163132,188.495635,981.245508,1020.833141,0
0.033333,-134.359011,-73.583896,168.828190,3.568207,4.897130,-2.223724,-2.835157,-4.969315,2.060320,3.034323,0.077375,0.575542,-0.018440,101.139999,188.495644,982.451904,1019.625468,0
0.034375,-53.428945,-125.590801,188.841993,3.894726,4.669622,-0.171482,-4.505324,-4.711057,0.097559,4.507958,0.095606,0.576576,-0.014723,114.379788,188.495569,982.640487,1018.849493,0
0.035417,17.229488,-163.762084,156.567153,3.320502,3.620153,1.471948,-4.899669,-3.602069,-1.593436,4.884934,0.139360,0.566516,-0.044457,99.383700,188.420139,982.349603,1017.890222,0
0.036458,89.187412,-180.122883,105.262795,2.352202,1.730375,3.491485,-4.922866,-1.779074,-3.560511,4.884934,0.110191,0.580227,0.022444,74.120020,188.495678,982.550897,1018.444342,0
0.037500,137.573692,-175.601054,24.527088,0.820937,-0.030972,4.517606,-4.045255,0.078102,-4.539735,3.955821,0.062790,0.575542,-0.007290,25.011208,188.495591,983.586908,1018.286084,0
0.038542,172.196664,-148.340886,-51.372253,-0.699068,-1.964784,5.057240,-2.641851,2.053013,-5.048759,2.501225,0.037267,0.570237,0.018727,-20.675074,188.495548,984.735875,1017.916395,0
0.039583,173.304056,-81.981579,-118.218599,-2.005147,-3.649072,4.816040,-0.724252,3.777262,-4.772678,0.559226,0.008098,0.562244,-0.029590,-64.379890,188.343979,985.451977,1017.661495,0
0.040625,174.208050,0.057317,-155.220439,-2.748261,-4.720559,3.937092,1.112158,4.844473,-3.896984,-1.215228,-0.021072,0.570788,-0.022156,-87.527005,188.495618,986.851539,1017.632210,0
0.041667,133.517019,73.839470,-169.437895,-2.995965,-4.907702,2.187371,2.948568,5.064752,-2.102459,-3.062031,-0.057533,0.571890,-0.025873,-101.813819,188.495575,988.508891,1017.116429,0
0.042708,53.570047,125.435299,-188.443110,-3.412560,-4.661847,0.155569,4.506617,4.817888,-0.040481,-4.509011,-0.061180,0.585808,0.000144,-113.027111,188.495591,990.355182,1015.723514,0
0.043750,-16.082692,164.393498,-155.925236,-2.782039,-3.557336,-1.557358,4.931891,3.648133,1.659141,-4.950721,-0.090349,0.585533,0.007577,-96.848898,188.344871,992.349411,1014.121069,0
0.044792,-89.238409,179.250936,-105.289220,-1.813739,-1.711591,-3.556455,4.897096,1.798553,3.591706,-4.847909,-0.093995,0.579952,-0.040740,-74.343507,188.495542,993.167131,1013.061057,0
0.045833,-137.974987,175.198907,-24.116054,-0.214918,0.126815,-4.496726,3.961493,-0.115591,4.553675,-3.861678,-0.075764,0.572235,-0.003573,-23.241972,188.495611,994.920941,1011.218394,0
0.046875,-171.547065,148.678674,52.585298,1.293828,2.056958,-5.036359,2.496231,-2.052523,5.019561,-2.403275,-0.042949,0.569617,-0.022156,21.588677,188.495734,996.876033,1009.940786,0
0.047917,-173.716651,80.369696,118.532420,2.554870,3.730237,-4.717485,0.567034,-3.803358,4.704656,-0.438428,0.008098,0.556181,-0.007290,65.800118,188.269463,998.840214,1009.206242,0
0.048958,-174.225147,-1.704435,155.096801,3.275465,4.787046,-3.842624,-1.269376,-4.843984,3.742687,1.320794,0.048206,0.547844,-0.007290,89.994257,188.495808,1000.075553,1008.380245,0
0.050000,-131.680928,-74.922828,170.079812,3.579466,4.930155,-2.113344,-3.043928,-4.999698,1.965418,3.179021,0.095606,0.560797,0.015011,101.736690,188.495814,1001.575555,1008.066488,0
0.051042,-51.202860,-125.614291,189.072875,3.939764,4.654945,-0.007956,-4.601977,-4.711057,-0.053423,4.591731,0.073729,0.572579,-0.018440,113.828130,188.495683,1003.138453,1007.345217,0
0.052083,17.749284,-164.866115,155.996024,3.320502,3.499061,1.590504,-4.976991,-3.583079,-1.718535,4.987746,0.088314,0.578298,0.000144,97.424752,188.344739,1005.284766,1007.662421,0
0.053125,89.842808,-179.335967,105.615193,2.340943,1.686341,3.593688,-4.961527,-1.653743,-3.659727,4.877319,0.081021,0.578229,0.003860,73.557103,188.495544,1006.906903,1006.235190,0
0.054167,138.466386,-175.295684,24.915942,0.787160,-0.130048,4.566664,-3.987263,0.180645,-4.608755,3.872049,0.091960,0.580434,-0.051890,24.752266,188.495555,1008.426987,1004.942449,0
0.055208,171.755966,-148.928136,-52.125657,-0.721587,-2.063860,5.061328,-2.537466,2.147960,-5.074641,2.428876,0.059144,0.575542,-0.003573,-22.498922,188.497698,1009.908248,1004.062778,0
0.056250,174.253250,-80.630903,-118.425178,-1.971369,-3.693106,4.775159,-0.604402,3.879805,-4.673461,0.418336,0.004452,0.567343,0.000144,-64.785190,188.344746,1011.407836,1002.193058,0
0.057292,174.309750,1.079133,-155.341956,-2.714483,-4.713220,3.879858,1.232008,4.878655,-3.789140,-1.329463,-0.028364,0.564174,-0.029590,-89.305821,188.495731,1012.673089,1000.691785,0
0.058333,131.709031,75.131421,-170.252057,-3.018484,-4.904032,2.097432,3.002694,5.072348,-1.942850,-3.191498,-0.072118,0.558317,-0.003573,-101.611169,188.420321,1014.302116,999.379146,0
0.059375,50.620767,125.811140,-188.941328,-3.378782,-4.566441,0.053366,4.556877,4.741930,-0.036168,-4.577553,-0.108580,0.520629,-0.022156,-113.387377,188.495741,1014.112506,999.287157,0
0.060417,-19.235371,164.922023,-155.499928,-2.770779,-3.465599,-1.626857,4.966686,3.602558,1.719533,-4.950721,-0.097641,0.547293,-0.007290,-98.087314,188.344872,1014.029709,999.356099,0
0.061458,-90.989897,179.239191,-104.134812,-1.723664,-1.627193,-3.621865,4.924159,1.726393,3.630530,-4.859333,-0.075764,0.577127,0.000144,-75.626956,188.495647,1014.382437,999.343516,0
0.062500,-138.506083,175.175417,-23.071010,-0.169881,0.203874,-4.545783,3.984690,-0.149772,4.631322,-3.888333,-0.064826,0.576300,-0.007290,-24.334029,188.495647,1015.322492,1000.092857,0
0.063542,-171.230667,148.760890,53.460219,1.293828,2.115669,-5.060888,2.476901,-2.155067,5.023875,-2.380428,-0.061180,0.571408,0.018727,23.176101,188.495655,1016.405753,999.652705,0
0.064583,-174.123448,80.064326,118.884819,2.532351,3.807296,-4.766542,0.512908,-3.913497,4.704656,-0.289923,-0.002841,0.570099,-0.025873,65.293493,188.344932,1018.708063,998.588302,0
0.065625,-174.292947,-0.764834,155.959569,3.219168,4.820071,-3.830360,-1.342832,-4.862973,3.777197,1.450261,0.026329,0.570099,-0.014723,91.142606,188.495711,1020.533664,998.369249,0
0.066667,-131.522729,-74.276852,170.650940,3.624503,4.915477,-2.056111,-3.098054,-5.007294,1.896397,3.266602,0.055498,0.575887,-0.007290,102.322123,188.495683,1022.037256,997.482838,0
0.067708,-51.067261,-125.790466,189.218695,3.939764,4.610911,0.004308,-4.605843,-4.680674,-0.066364,4.614578,0.088314,0.583466,0.000144,114.481113,188.495732,1022.292765,997.198544,0
0.068750,18.653278,-165.500345,155.339834,3.309243,3.477044,1.684531,-4.988590,-3.491929,-1.787555,4.983938,0.128422,0.576989,-0.007290,99.259858,188.344878,1022.745396,996.169986,0
0.069792,91.130999,-179.277242,104.400026,2.340943,1.568918,3.646834,-4.907401,-1.581583,-3.741689,4.850664,0.084667,0.582225,-0.003573,73.523328,188.495611,1023.400017,995.617835,0
0.070833,138.918383,-175.236959,22.266877,0.753382,-0.229124,4.603457,-3.956334,0.233816,-4.660520,3.795892,0.099252,0.571201,0.029877,23.525109,188.495548,1023.650426,995.222657,0
0.071875,170.750273,-148.693236,-54.920541,-0.766624,-2.115233,5.073592,-2.429214,2.258100,-5.117779,2.295602,0.019036,0.567550,-0.011006,-22.881705,188.495731,1024.994147,994.148093,0
0.072917,174.637447,-78.047000,-119.032761,-1.993888,-3.836216,4.746542,-0.465222,4.016530,-4.712285,0.342179,0.008098,0.558110,-0.025873,-64.503732,188.344833,1026.605504,994.553881,0
0.073958,174.185450,2.523769,-155.560686,-2.703224,-4.804956,3.875770,1.309330,4.958411,-3.810709,-1.405620,-0.013779,0.554321,-0.014723,-88.528996,188.495682,1027.857429,995.144247,0
0.075000,130.307840,75.237126,-171.333556,-3.041003,-4.933388,1.999317,3.114811,5.140710,-1.891085,-3.309541,-0.083057,0.573957,0.000144,-103.232368,188.495664,1029.710177,995.299675,0
0.076042,50.338269,126.022550,-188.929177,-3.322485,-4.647169,-0.069278,4.626467,4.779909,0.127755,-4.646094,-0.104934,0.583603,0.000144,-112.768169,188.495651,1031.850326,994.628959,0
0.077083,-18.433077,166.120014,-154.734373,-2.759520,-3.487616,-1.761765,4.993749,3.526600,1.857574,-5.026878,-0.119518,0.588495,-0.003573,-96.905190,188.344878,1034.185606,993.768322,0
0.078125,-91.453194,178.311335,-104.450755,-1.791220,-1.542795,-3.707716,4.939623,1.616254,3.747001,-4.840294,-0.093995,0.579883,-0.018440,-73.904433,188.495633,1035.849437,992.302615,0
0.079167,-139.613476,174.858302,-22.256848,-0.203659,0.339644,-4.664339,3.903501,-0.294093,4.683087,-3.804561,-0.053887,0.576231,-0.007290,-22.296273,188.495579,1037.278413,990.949372,0
0.080208,-170.281473,148.948810,55.538154,1.372643,2.262448,-5.109945,2.333854,-2.257610,5.062698,-2.258577,-0.021072,0.570168,0.018727,23.367492,188.496945,1038.720870,989.819971,0
0.081250,-175.377740,77.280758,119.042791,2.577388,3.954075,-4.688868,0.377594,-3.997051,4.622695,-0.198534,-0.002841,0.573337,-0.014723,65.856409,188.344811,1039.416706,988.827936,0
0.082292,-173.965249,-3.477931,155.716536,3.286724,4.904469,-3.752685,-1.420155,-4.916144,3.677981,1.507379,0.022683,0.571959,-0.048173,90.647240,188.495611,1039.773346,988.116748,0
0.083333,-128.776848,-75.885918,172.218506,3.647022,4.985197,-1.859880,-3.252699,-5.037677,1.749730,3.418915,0.073729,0.542057,-0.022156,103.189014,188.495651,1041.625187,987.442089,0
0.084375,-48.197080,-126.025367,189.315908,4.007319,4.574216,0.131040,-4.706363,-4.661684,-0.204404,4.694542,0.084667,0.592767,0.000144,113.411572,188.495678,1042.768104,986.799507,0
0.085417,20.630765,-166.522161,154.987436,3.320502,3.388976,1.831703,-5.077511,-3.423567,-1.960105,5.075327,0.124775,0.569961,-0.014723,97.582368,188.344822,1045.127129,986.616048,0
0.086458,92.419191,-178.349386,104.339268,2.340943,1.513876,3.749037,-4.926732,-1.513221,-3.845219,4.865895,0.091960,0.586153,-0.007290,72.971670,188.495626,1046.425487,986.234843,0
0.087500,139.901477,-175.424879,22.315484,0.753382,-0.313522,4.722013,-3.952468,0.427509,-4.716599,3.799700,0.091960,0.577540,-0.007290,23.558884,188.420198,1048.848681,985.405424,0
0.088542,170.241776,-148.975116,-55.236485,-0.789143,-2.225317,5.118562,-2.409883,2.345452,-5.100524,2.249908,0.066437,0.575198,0.007577,-24.086346,188.495539,1049.772099,984.383382,0
0.089583,175.936939,-77.718140,-118.935548,-1.982628,-3.909605,4.754718,-0.399498,4.069701,-4.690716,0.193673,0.008098,0.574922,-0.007290,-64.627573,188.344863,1051.557710,983.098639,0
0.090625,173.733453,2.453299,-156.095360,-2.703224,-4.874676,3.830800,1.402117,5.003986,-3.767571,-1.462738,-0.021072,0.579194,-0.003573,-90.274037,188.495660,1052.522426,982.596040,0
0.091667,129.234347,75.366321,-172.658088,-3.086040,-4.955405,1.942083,3.234661,5.148306,-1.765986,-3.400929,-0.057533,0.572579,-0.022156,-103.018460,188.420320,1054.084063,981.530769,0
0.092708,48.688480,126.280940,-188.953480,-3.412560,-4.621483,-0.085631,4.665128,4.730536,0.157952,-4.649902,-0.101287,0.591320,-0.033307,-113.184727,188.495562,1053.727468,981.069444,0
0.093750,-20.941660,166.519345,-154.637159,-2.737001,-3.406887,-1.823087,5.005347,3.465834,1.991300,-5.030686,-0.072118,0.589942,0.003860,-98.064797,188.344797,1054.740942,980.497991,0
0.094792,-93.193383,178.287845,-102.919644,-1.734924,-1.513439,-3.752685,4.870033,1.544093,3.785825,-4.794599,-0.086703,0.579263,0.015011,-75.210398,188.495615,1054.665826,979.976665,0
0.095833,-139.952474,175.140182,-20.239670,-0.147362,0.343314,-4.652075,3.880304,-0.351061,4.713284,-3.800753,-0.042949,0.572304,-0.033307,-22.780380,188.420240,1055.106933,980.206488,0
0.096875,-169.693877,148.702164,56.862687,1.361384,2.317490,-5.126298,2.399578,-2.291791,5.067012,-2.239538,-0.028364,0.572304,-0.007290,25.090016,188.495678,1055.227008,980.118104,0
0.097917,-175.761937,76.364647,119.565313,2.543610,3.961414,-4.770630,0.354397,-4.057817,4.674460,-0.164264,-0.017425,0.569203,-0.003573,65.518660,188.420215,1056.231888,980.779797,0
0.098958,-173.490652,-3.031621,156.579305,3.275465,4.908138,-3.777214,-1.431753,-4.969315,3.725432,1.507379,0.055498,0.569272,0.000144,92.032014,188.495522,1056.831241,981.729059,0
0.100000,-128.483049,-75.298668,172.813938,3.579466,4.966850,-1.904850,-3.283628,-5.060464,1.715219,3.415107,0.073729,0.577265,-0.018440,103.425439,188.495678,1057.199033,981.536070,0
0.101042,-49.044574,-126.389462,189.072875,3.894726,4.596233,0.110600,-4.717961,-4.657886,-0.247542,4.702158,0.099252,0.587668,0.011294,114.379788,188.495653,1057.799543,981.109131,0
0.102083,20.280467,-167.050687,154.501369,3.219168,3.366960,1.839880,-5.100707,-3.389386,-1.985988,5.060095,0.106545,0.588495,-0.011006,99.316150,188.344856,1057.957256,980.543341,0
0.103125,93.142386,-178.314151,103.658774,2.262128,1.491859,3.781743,-4.911267,-1.505625,-3.858160,4.820201,0.084667,0.578229,-0.003573,72.870346,188.495631,1057.592284,980.285194,0
0.104167,140.330874,-175.354409,20.492733,0.674567,-0.379572,4.668867,-3.848082,0.461690,-4.764050,3.761621,0.066437,0.569548,-0.011006,22.354243,188.495658,1057.909604,980.304490,0
0.105208,169.586381,-148.658001,-57.496696,-0.800402,-2.280359,5.102209,-2.293900,2.391026,-5.091896,2.188982,0.037267,0.567550,0.007577,-24.514162,188.495598,1058.011014,979.844311,0
0.106250,176.388936,-74.793633,-119.494525,-1.948850,-3.916944,4.730189,-0.314443,4.122871,-4.690716,0.170826,0.015390,0.565896,0.003860,-64.447440,188.420209,1058.030394,980.340646,0
0.107292,173.371856,4.825791,-156.143967,-2.669446,-4.819634,3.777654,1.452377,4.973602,-3.720120,-1.542703,-0.035656,0.520698,-0.037023,-89.598537,188.495664,1057.889107,979.681282,0
0.108333,127.109961,76.446862,-173.338582,-3.052262,-4.933388,1.876673,3.277189,5.121721,-1.748731,-3.446623,-0.079410,0.576231,-0.014723,-104.414492,188.495602,1057.628228,979.728199,0
0.109375,47.671486,126.668526,-188.759053,-3.322485,-4.551763,-0.208275,4.692191,4.726738,0.214030,-4.695596,-0.064826,0.567825,-0.014723,-112.362870,188.495664,1058.241613,979.602202,0
0.110417,-20.998160,167.505926,-154.066031,-2.680705,-3.304142,-1.888497,5.074938,3.431653,1.999928,-5.080188,-0.090349,0.584912,-0.037023,-97.209165,188.420215,1058.769818,979.815903,0
