1-Time,2-VGERA,3-VGERB,4-VGERC,5-VN,6-IGERAN,7-IGERBN,8-IGERCN,9-IGERAT,10-IGERBT,11-IGERCT,12-IN,13-IFD,14-IFAULT,15-VFAULT,16-Speed (rad/s),17-FAULT 
0.000000,-76.933729,-108.761487,195.430493,6.649038,5.500396,1.108590,-6.620737,-5.498793,-0.864470,6.449646,-0.238030,0.595720,-0.031958,17.170918,188.269436,0
0.001042,-4.421123,-155.236724,177.592425,6.287118,3.856618,3.101137,-6.824470,-3.951302,-2.919171,6.754198,-0.259948,0.616886,-0.039427,19.602568,188.344860,0
0.002083,64.280402,-188.894123,128.485417,5.359698,1.314618,5.040346,-6.181928,-1.385628,-4.853007,6.076570,-0.252642,0.595328,-0.046895,22.147318,188.420278,0
0.003125,117.680894,-195.466135,45.782765,3.821538,-1.184778,6.061383,-4.591245,1.183721,-6.045539,4.580460,-0.216112,0.598529,-0.028224,19.432918,188.495752,0
0.004167,168.018912,-163.355092,-25.926515,2.475648,-3.577665,6.324262,-2.405035,3.503119,-6.267125,2.444792,-0.186888,0.598921,-0.020755,11.368888,188.269469,0
0.005208,179.826455,-107.408425,-92.416099,1.186308,-5.320852,5.367992,0.345358,5.315264,-5.384812,-0.265718,-0.124787,0.586901,-0.058098,3.259618,188.344825,0
0.006250,185.282197,-20.655454,-141.855493,0.236268,-6.442740,3.920253,2.895936,6.340798,-3.910262,-2.744007,-0.117481,0.604213,-0.024490,-2.904331,188.420249,0
0.007292,155.678271,54.330717,-171.253220,-0.329232,-6.275877,1.824840,4.729531,6.362853,-1.944195,-4.670297,-0.007891,0.615971,-0.039427,-10.210591,188.495788,0
0.008333,77.142798,108.851837,-194.963448,-0.826872,-5.349254,-0.948724,6.520029,5.359373,0.783319,-6.375786,0.003068,0.623875,-0.024490,-12.947611,188.269436,0
0.009375,5.083892,155.725745,-177.334660,-0.464952,-3.748078,-2.868883,6.708090,3.804531,2.846078,-6.706986,0.003068,0.617082,-0.005818,-14.723281,188.344878,0
0.010417,-63.560921,188.948231,-129.212500,0.405918,-1.174127,-4.880479,6.057712,1.312372,4.796029,-6.048393,-0.033462,0.607022,-0.046895,-17.075761,188.420341,0
0.011458,-118.004923,195.290705,-47.100758,1.955388,1.328819,-5.874848,4.392588,-1.253301,5.928129,-4.510407,-0.033462,0.598856,-0.031958,-16.023931,188.495749,0
0.012500,-168.694558,163.844112,24.990152,3.346518,3.679104,-6.076769,2.245558,-3.569024,6.185974,-2.363318,-0.062686,0.596766,-0.013287,-5.958031,188.344907,0
0.013542,-180.309279,108.586057,92.760038,4.601928,5.386787,-5.166217,-0.473492,-5.414250,5.327834,0.305316,-0.135746,0.591540,-0.043161,1.416088,188.345030,0
0.014583,-185.708309,21.917652,141.940910,5.551968,6.483823,-3.726098,-2.977054,-6.384648,3.841198,2.855937,-0.212459,0.585268,-0.035692,8.360428,188.420273,0
0.015625,-155.922903,-54.204124,171.141667,6.128778,6.348913,-1.626875,-4.865501,-6.399351,1.838872,4.679440,-0.205153,0.593695,-0.043161,14.954158,188.495787,0
0.016667,-76.661509,-108.592354,195.221213,6.615108,5.390338,1.131449,-6.597230,-5.410575,-0.896701,6.419191,-0.245336,0.608459,-0.009553,17.091748,188.344930,0
0.017708,-3.978766,-155.019268,177.395455,6.275808,3.764310,3.032560,-6.722604,-3.852057,-2.854710,6.624763,-0.278213,0.612117,-0.069301,19.964488,188.269380,0
0.018750,64.269060,-188.592100,128.620834,5.371008,1.282666,5.009867,-6.095734,-1.415034,-4.768402,5.981398,-0.238030,0.600489,-0.013287,21.898498,188.420233,0
0.019792,117.635524,-194.946656,45.967424,3.844158,-1.174127,6.004236,-4.516804,1.124909,-5.920646,4.527164,-0.252642,0.593565,-0.020755,20.496058,188.495807,0
0.020833,167.712664,-163.270526,-25.446402,2.453028,-3.499559,6.282354,-2.408953,3.385495,-6.162375,2.433371,-0.186888,0.592846,-0.039427,11.515918,188.420332,0
0.021875,179.520207,-107.662124,-92.502273,1.197618,-5.221444,5.318464,0.325768,5.234398,-5.324379,-0.201001,-0.117481,0.579977,-0.013287,3.089968,188.269360,0
0.022917,185.021320,-21.307823,-141.917046,0.213648,-6.293628,3.905013,2.794069,6.190093,-3.918320,-2.641221,-0.077298,0.595394,-0.031958,-2.350142,188.420359,0
0.023958,155.666929,54.209908,-171.007008,-0.317922,-6.180019,1.889608,4.604157,6.256256,-1.972397,-4.502793,-0.051727,0.615971,-0.028224,-9.588541,188.495738,0
0.025000,77.982143,109.020970,-194.150948,-0.792942,-5.327952,-0.822999,6.414245,5.348346,0.710801,-6.227317,0.010374,0.608459,-0.031958,-12.597001,188.420224,0
0.026042,5.480880,155.206266,-177.519319,-0.453642,-3.730327,-2.766018,6.578798,3.789828,2.757444,-6.596586,-0.004238,0.612509,-0.035692,-14.700661,188.344914,0
0.027083,-63.288701,188.102568,-129.409470,0.428538,-1.216730,-4.724276,5.951928,1.363833,4.614732,-5.903731,-0.022503,0.606564,-0.028224,-17.188861,188.420325,0
0.028125,-118.016266,195.157815,-47.236174,1.955388,1.225861,-5.760552,4.420014,-1.194489,5.799207,-4.479952,-0.048074,0.598007,-0.039427,-15.865591,188.495848,0
0.029167,-168.274886,163.203824,24.608523,3.357828,3.512241,-6.023431,2.304327,-3.359506,6.073167,-2.412807,-0.110175,0.596243,-0.028224,-6.184231,188.420323,0
0.030208,-180.263909,108.875999,92.710796,4.658478,5.262528,-5.166217,-0.375543,-5.263545,5.267402,0.210144,-0.132093,0.587424,-0.020755,1.642288,188.269546,0
0.031250,-184.993731,21.579387,141.670076,5.563278,6.331161,-3.714668,-2.851680,-6.267024,3.865371,2.646557,-0.175929,0.576645,-0.035692,8.145538,188.420354,0
0.032292,-155.934245,-54.397419,170.907766,6.174018,6.299209,-1.722121,-4.716619,-6.314809,1.935563,4.553812,-0.219765,0.582459,-0.043161,15.383938,188.495702,0
0.033333,-77.342059,-109.450098,193.830114,6.626418,5.415190,0.963816,-6.460102,-5.399547,-0.743605,6.240267,-0.238030,0.598268,-0.073035,17.193538,188.495752,0
0.034375,-3.797286,-154.789731,177.961743,6.309738,3.828215,2.918265,-6.687342,-3.877787,-2.729816,6.594308,-0.274560,0.592715,-0.046895,19.579948,188.344921,0
0.035417,64.654705,-187.299444,128.977841,5.359698,1.382074,4.849854,-6.044800,-1.470171,-4.659623,5.992819,-0.245336,0.585138,-0.031958,22.011598,188.420200,0
0.036458,117.726264,-195.272840,46.373674,3.832848,-1.074719,5.889940,-4.544230,1.025664,-5.860213,4.584267,-0.197847,0.595394,-0.028224,19.523398,188.495698,0
0.037500,167.508499,-162.521509,-24.707765,2.475648,-3.357548,6.175678,-2.514738,3.256844,-6.150289,2.543771,-0.183235,0.594349,-0.050629,11.346268,188.495580,0
0.038542,179.973907,-108.640678,-92.169887,1.208928,-5.082983,5.318464,0.176886,5.127801,-5.340495,-0.067759,-0.135746,0.582851,-0.039427,3.384028,188.344885,0
0.039583,184.250030,-21.936030,-141.769319,0.236268,-6.187120,3.882154,2.649105,6.138632,-3.962637,-2.507980,-0.077298,0.591213,-0.020755,-3.085291,188.420260,0
0.040625,156.097944,53.714591,-171.265531,-0.374472,-6.194220,1.958185,4.545388,6.248905,-2.040887,-4.445690,-0.029809,0.603755,-0.028224,-10.187971,188.495772,0
0.041667,79.071023,109.588772,-193.018372,-0.747702,-5.324402,-0.742992,6.288870,5.366725,0.618138,-6.181634,-0.007891,0.608132,-0.028224,-12.936301,188.495752,0
0.042708,5.685045,155.109619,-177.913258,-0.487572,-3.772930,-2.735539,6.563126,3.815558,2.664781,-6.524255,-0.011544,0.607022,-0.058098,-14.723281,188.269487,0
0.043750,-63.787771,187.184419,-129.446402,0.417228,-1.291286,-4.636649,5.948010,1.429996,4.518040,-5.873276,-0.011544,0.603690,-0.024490,-16.804321,188.420372,0
0.044792,-118.186403,195.399434,-46.940720,1.966698,1.133554,-5.699595,4.427850,-1.109947,5.779063,-4.460917,-0.055380,0.595982,-0.013287,-16.057861,188.495816,0
0.045833,-167.991323,162.925964,24.657765,3.312588,3.448336,-5.981523,2.323917,-3.319073,6.024821,-2.450876,-0.088257,0.592846,-0.039427,-5.912791,188.495727,0
0.046875,-180.082429,108.827675,92.784659,4.658478,5.198623,-5.128119,-0.265841,-5.153272,5.267402,0.114972,-0.135746,0.584811,-0.024490,1.461328,188.269543,0
0.047917,-184.540031,21.265283,141.743940,5.574588,6.302759,-3.756576,-2.738060,-6.200861,3.905659,2.597068,-0.183235,0.577625,-0.050629,8.552698,188.495656,0
0.048958,-156.002300,-54.820250,170.809281,6.140088,6.292108,-1.756410,-4.599081,-6.333188,1.983909,4.489095,-0.227071,0.580761,-0.013287,15.044638,188.495662,0
0.050000,-77.761732,-109.607150,193.276137,6.626418,5.397438,0.902859,-6.409169,-5.399547,-0.671086,6.190777,-0.259948,0.572595,-0.020755,17.103058,188.495703,0
0.051042,-3.763258,-154.572275,177.998675,6.298428,3.877919,2.838258,-6.655999,-3.936599,-2.677441,6.575274,-0.285519,0.597811,-0.031958,19.987108,188.269581,0
0.052083,64.575307,-186.900774,129.457955,5.393628,1.428227,4.796516,-6.048718,-1.532658,-4.550845,5.958557,-0.252642,0.603102,-0.020755,21.728848,188.495835,0
0.053125,117.737607,-195.103708,46.964583,3.832848,-0.971761,5.825173,-4.575573,0.988906,-5.819925,4.591881,-0.219765,0.596243,-0.035692,20.563918,188.495731,0
0.054167,167.485814,-162.581914,-24.042992,2.475648,-3.254590,6.202347,-2.553917,3.150247,-6.077770,2.581840,-0.190541,0.598333,-0.035692,11.425438,188.495703,0
0.055208,179.747057,-109.160156,-92.465341,1.220238,-5.065232,5.341323,0.157297,5.076340,-5.356610,-0.010656,-0.117481,0.590168,-0.020755,3.191758,188.269554,0
0.056250,184.193317,-22.588398,-141.830872,0.281508,-6.172918,3.954541,2.633434,6.079820,-3.994867,-2.500366,-0.066339,0.595394,-0.013287,-2.531101,188.495848,0
0.057292,156.404191,53.557540,-171.007008,-0.317922,-6.165818,1.996283,4.463111,6.223174,-2.101319,-4.361938,-0.015197,0.609504,-0.039427,-9.543301,188.495848,0
0.058333,80.023793,109.818310,-192.267425,-0.804252,-5.352804,-0.655366,6.237937,5.329967,0.525475,-6.116917,-0.000585,0.614142,-0.020755,-12.585691,188.495767,0
0.059375,5.582962,154.819677,-178.196402,-0.464952,-3.854587,-2.625054,6.520029,3.870694,2.551974,-6.531869,-0.004238,0.614861,-0.020755,-14.666731,188.269458,0
0.060417,-63.991936,186.399160,-129.828031,0.405918,-1.358741,-4.564262,5.944092,1.485133,4.493867,-5.903731,-0.007891,0.603951,-0.035692,-17.007901,188.495769,0
0.061458,-118.118348,195.737699,-47.063826,1.966698,1.055448,-5.661497,4.463111,-1.010702,5.746832,-4.559897,-0.059033,0.597027,-0.046895,-16.069171,188.495727,0
0.062500,-167.401513,162.442727,24.559280,3.312588,3.302774,-5.966284,2.445373,-3.172043,6.020792,-2.561276,-0.062686,0.593565,-0.035692,-6.138991,188.495682,0
0.063542,-180.422704,109.033051,92.821591,4.613238,5.163120,-5.147168,-0.195318,-5.090784,5.303661,0.050254,-0.139399,0.586836,-0.043161,1.664908,188.269516,0
0.064583,-183.870824,21.277364,141.399243,5.563278,6.189150,-3.771816,-2.644030,-6.083237,3.921774,2.440985,-0.216112,0.558289,0.027790,8.315188,188.495707,0
0.065625,-156.229150,-54.554470,170.772349,6.151398,6.295659,-1.882135,-4.536394,-6.347891,2.052399,4.401536,-0.219765,0.581806,-0.002084,15.406558,188.495732,0
0.066667,-78.907324,-110.319923,191.897349,6.524628,5.479095,0.784754,-6.338646,-5.473062,-0.534106,6.107026,-0.296478,0.592650,-0.043161,17.261398,188.495562,0
0.067708,-4.024136,-154.499789,178.626516,6.321048,3.977327,2.743012,-6.652081,-4.002762,-2.560605,6.563853,-0.263601,0.589123,-0.043161,19.591258,188.420220,0
0.068750,64.700075,-185.559793,130.344319,5.416248,1.545386,4.682221,-6.048718,-1.620876,-4.478326,5.996626,-0.285519,0.595655,-0.035692,21.808018,188.495759,0
0.069792,117.851032,-195.550701,47.690909,3.866778,-0.890104,5.828983,-4.646096,0.856579,-5.739348,4.679440,-0.223418,0.602383,-0.054364,19.681738,188.495799,0
0.070833,167.270307,-162.086597,-23.365909,2.498268,-3.165833,6.171869,-2.628358,3.021596,-6.085827,2.692240,-0.190541,0.601338,-0.058098,11.357578,188.495716,0
0.071875,180.302840,-109.909173,-92.231440,1.231548,-5.043930,5.375612,0.012333,5.046934,-5.384812,0.088323,-0.113828,0.591148,-0.009553,3.474508,188.420434,0
0.072917,183.456055,-23.047473,-141.769319,0.258888,-6.130315,4.026928,2.464962,6.065117,-4.099617,-2.340476,-0.099216,0.590102,-0.024490,-3.254941,188.495758,0
0.073958,156.789836,53.279679,-171.154735,-0.351852,-6.197770,2.057241,4.400424,6.270959,-2.129521,-4.308641,-0.066339,0.604343,-0.031958,-10.154041,188.495705,0
0.075000,80.704343,110.410274,-191.356440,-0.781632,-5.370556,-0.563930,6.214430,5.381428,0.481158,-6.021745,-0.015197,0.606238,-0.043161,-12.924991,188.495747,0
0.076042,5.288057,154.759272,-178.590341,-0.521502,-3.858137,-2.567906,6.523947,3.944209,2.539887,-6.516641,0.003068,0.612052,-0.028224,-14.757211,188.344974,0
0.077083,-64.354896,185.783034,-130.086553,0.428538,-1.422646,-4.503305,5.975435,1.551296,4.425377,-5.926572,-0.051727,0.591997,-0.009553,-16.702531,188.495731,0
0.078125,-118.243116,195.834346,-46.719129,1.978008,1.009294,-5.657687,4.525798,-0.970269,5.682371,-4.613193,-0.029809,0.595132,-0.050629,-16.193581,188.495769,0
0.079167,-167.424198,162.285676,24.756250,3.335208,3.267271,-5.981523,2.515896,-3.190422,6.036908,-2.633607,-0.059033,0.591213,-0.024490,-5.878861,188.495720,0
0.080208,-180.309279,109.141779,92.870834,4.669788,5.141818,-5.192886,-0.140467,-5.083433,5.364094,-0.014463,-0.124787,0.586052,-0.002084,1.404778,188.344878,0
0.081250,-183.848139,21.494820,141.436175,5.597208,6.228203,-3.840393,-2.628358,-6.127346,3.949976,2.444792,-0.201500,0.581937,-0.046895,8.699728,188.495816,0
0.082292,-156.297205,-54.421580,170.760038,6.117468,6.285008,-1.855466,-4.563820,-6.355242,2.052399,4.428185,-0.216112,0.591409,-0.039427,15.135118,188.495700,0
0.083333,-79.315654,-110.307842,191.798864,6.547248,5.521698,0.792374,-6.330810,-5.487765,-0.554250,6.141288,-0.270907,0.600228,-0.039427,17.125678,188.495738,0
0.084375,-4.353068,-154.463546,178.528031,6.309738,3.970226,2.769681,-6.706932,-4.083629,-2.580750,6.598115,-0.303784,0.610418,-0.024490,19.987108,188.420216,0
0.085417,64.416512,-185.777250,130.578220,5.450178,1.563138,4.743178,-6.111405,-1.687040,-4.514586,6.057536,-0.230724,0.608459,-0.031958,21.638368,188.495683,0
0.086458,117.748949,-195.321164,48.171023,3.866778,-0.890104,5.870891,-4.677440,0.874958,-5.775608,4.675633,-0.212459,0.600750,-0.046895,20.631778,188.420327,0
0.087500,167.406417,-162.388620,-23.045833,2.498268,-3.183584,6.206157,-2.647948,3.065705,-6.101943,2.718888,-0.175929,0.603886,-0.017021,11.414128,188.495667,0
0.088542,180.007935,-110.247438,-92.354546,1.197618,-5.047480,5.406091,0.004497,4.988122,-5.396898,0.099744,-0.139399,0.598137,-0.031958,3.259618,188.420309,0
0.089583,183.705590,-23.361576,-141.720076,0.247578,-6.162268,4.057407,2.515896,6.083496,-4.067386,-2.355704,-0.059033,0.602906,-0.020755,-2.644201,188.495609,0
0.090625,156.823864,53.521297,-170.970076,-0.340542,-6.176469,2.068670,4.420014,6.293014,-2.153694,-4.327676,-0.066339,0.612378,-0.031958,-9.565921,188.495732,0
0.091667,80.624945,110.422355,-191.491857,-0.770322,-5.388307,-0.567740,6.194840,5.414509,0.529504,-6.033165,-0.004238,0.610092,-0.039427,-12.630931,188.495703,0
0.092708,4.891070,154.735111,-178.701137,-0.464952,-3.865238,-2.586955,6.582716,3.962588,2.511685,-6.547096,-0.000585,0.605976,-0.024490,-14.689351,188.420195,0
0.093750,-64.842624,185.807196,-130.049622,0.473778,-1.433297,-4.545213,6.030287,1.573351,4.449550,-5.964641,-0.022503,0.608328,0.012853,-16.973971,188.495703,0
0.094792,-118.220431,195.967236,-46.583712,2.023248,1.009294,-5.676736,4.572813,-0.973944,5.726688,-4.632228,-0.055380,0.599313,-0.017021,-16.103101,188.495709,0
0.095833,-167.049896,162.249433,24.670076,3.346518,3.292123,-5.989143,2.523731,-3.175719,6.036908,-2.622187,-0.080951,0.592519,-0.069301,-6.116371,188.495794,0
0.096875,-180.422704,109.141779,92.895455,4.647168,5.131167,-5.234794,-0.144385,-5.087109,5.347978,-0.018270,-0.124787,0.585726,-0.050629,1.642288,188.420292,0
0.097917,-183.802769,21.748519,141.423864,5.585898,6.260156,-3.863252,-2.589178,-6.189834,3.990264,2.429564,-0.190541,0.590690,-0.046895,8.269948,188.495767,0
0.098958,-156.535398,-54.083315,170.993940,6.174018,6.327611,-1.924043,-4.563820,-6.403027,2.104774,4.420571,-0.230724,0.593042,-0.039427,15.406558,188.420309,0
0.100000,-79.962177,-110.295761,191.528031,6.592488,5.525248,0.784754,-6.362153,-5.531874,-0.538135,6.122253,-0.256295,0.602514,-0.046895,17.295328,188.495725,0
0.101042,-4.863481,-154.608517,178.725001,6.343668,4.037682,2.754441,-6.730440,-4.094656,-2.612980,6.624763,-0.281866,0.601600,-0.054364,19.602568,188.420329,0
0.102083,64.303087,-185.644360,130.590531,5.450178,1.573789,4.735559,-6.154503,-1.690716,-4.514586,6.053729,-0.245336,0.604409,-0.028224,21.796708,188.495680,0
0.103125,117.896402,-195.731915,48.281818,3.832848,-0.865253,5.878511,-4.685276,0.790416,-5.767550,4.747964,-0.245336,0.603886,-0.013287,19.715668,188.420365,0
0.104167,167.429102,-162.388620,-22.959659,2.486958,-3.187134,6.217587,-2.628358,3.080408,-6.126116,2.711275,-0.197847,0.606172,-0.058098,11.414128,188.495638,0
0.105208,180.336867,-110.356166,-92.206818,1.163688,-5.054581,5.440379,0.035840,5.080016,-5.465388,0.042641,-0.121134,0.593303,-0.009553,3.463198,188.420262,0
0.106250,183.626192,-22.854178,-141.695455,0.224958,-6.169368,4.011689,2.562911,6.098199,-4.091559,-2.405194,-0.059033,0.600946,0.009119,-3.311491,188.495671,0
0.107292,156.710439,53.932048,-171.203978,-0.340542,-6.222622,2.064860,4.490537,6.296689,-2.165781,-4.373359,-0.059033,0.607218,-0.005818,-10.187971,188.420452,0
0.108333,79.819628,110.410274,-191.848864,-0.736392,-5.324402,-0.613458,6.249691,5.396131,0.497273,-6.094076,-0.015197,0.588731,-0.017021,-12.936301,188.495852,0
0.109375,4.471397,154.795515,-178.541099,-0.487572,-3.822634,-2.640293,6.523947,3.881722,2.580176,-6.520448,-0.004238,0.599117,-0.013287,-14.757211,188.420379,0
0.110417,-64.944706,186.217947,-129.594129,0.428538,-1.376493,-4.575692,5.959764,1.525566,4.505954,-5.922765,-0.037115,0.573575,-0.028224,-16.747771,188.495790,0
0.111458,-118.141033,195.943074,-46.288258,2.011938,1.027046,-5.688165,4.545388,-1.032756,5.698486,-4.567510,-0.037115,0.591736,-0.013287,-16.125721,188.420323,0
0.112500,-167.310773,162.551456,24.891667,3.380448,3.327626,-6.023431,2.480634,-3.241882,6.053023,-2.584118,-0.080951,0.594871,-0.039427,-5.890171,188.495803,0
0.113542,-180.218539,108.573976,92.821591,4.669788,5.180871,-5.124309,-0.250169,-5.127542,5.287546,0.054061,-0.150358,0.580434,-0.009553,1.348228,188.420417,0
0.114583,-183.938879,21.821005,141.707008,5.574588,6.238854,-3.775625,-2.706717,-6.175131,3.893573,2.486668,-0.175929,0.594871,0.009119,8.541388,188.495720,0
0.115625,-156.297205,-53.926263,170.920076,6.151398,6.281458,-1.813558,-4.618671,-6.336864,1.991967,4.454833,-0.197847,0.604539,-0.013287,15.089878,188.420296,0
0.116667,-79.406394,-109.727959,192.402084,6.569868,5.450692,0.864760,-6.358235,-5.451008,-0.606625,6.171743,-0.270907,0.600816,0.012853,17.136988,188.495725,0
0.117708,-5.192413,-154.548113,178.084849,6.309738,3.920523,2.800160,-6.655999,-3.969681,-2.625067,6.556239,-0.267254,0.599117,-0.020755,19.953178,188.420204,0
0.118750,63.735962,-186.514185,130.393561,5.427558,1.460180,4.746988,-6.068308,-1.573092,-4.530701,5.950943,-0.285519,0.604343,-0.017021,21.683608,188.420372,0
0.119792,117.703579,-194.982899,48.183333,3.821538,-1.000163,5.840412,-4.552066,0.911716,-5.759493,4.591881,-0.238030,0.596047,-0.020755,20.597848,188.420332,0
0.120833,167.621924,-162.509429,-23.525947,2.453028,-3.297193,6.152819,-2.499066,3.187005,-6.065683,2.558999,-0.168623,0.597549,-0.013287,11.425438,188.495703,0
0.121875,179.656317,-109.486341,-92.453031,1.174998,-5.072332,5.310845,0.133789,5.046934,-5.356610,-0.048725,-0.113828,0.588339,-0.028224,3.112588,188.495656,0
0.122917,184.102577,-22.491751,-141.572349,0.236268,-6.144516,3.908823,2.629516,6.127605,-3.946521,-2.481331,-0.073645,0.586705,-0.005818,-2.553721,188.420341,0
0.123958,156.109286,54.499850,-170.723864,-0.374472,-6.112564,1.920086,4.498373,6.201120,-2.057002,-4.430462,-0.066339,0.584223,-0.035692,-9.565921,188.420274,0
0.125000,78.560610,110.047847,-192.649054,-0.792942,-5.239195,-0.750612,6.253609,5.326291,0.634253,-6.120724,-0.022503,0.581545,-0.035692,-12.585691,188.495644,0
0.126042,4.108437,154.831758,-178.036364,-0.487572,-3.740978,-2.686011,6.504357,3.804531,2.640608,-6.436696,-0.015197,0.562731,-0.020755,-14.666731,188.495886,0
0.127083,-64.819939,186.870315,-129.187879,0.428538,-1.298386,-4.632840,5.897077,1.426321,4.538185,-5.873276,-0.037115,0.591474,-0.031958,-17.075761,188.420363,0
