1-Time,2-VGERA,3-VGERB,4-VGERC,5-VN,6-IGERAN,7-IGERBN,8-IGERCN,9-IGERAT,10-IGERBT,11-IGERCT,12-IN,13-IFD,14-IFAULT,15-VFAULT,16-Speed (rad/s),17-Active Power,18-Reactive Power,19-FAULT 
0.000000,-144.296840,189.721409,-14.231439,2.566128,2.283844,-6.442505,3.561789,-2.216348,6.480926,-3.466797,-0.080951,0.599313,-0.073035,-60.042450,188.495807,1585.333965,914.809739,0
0.001042,-169.250341,146.797957,60.309280,3.991188,4.318154,-5.950401,1.102816,-4.208604,6.069650,-1.168428,-0.095563,0.592323,-0.020755,-66.206400,188.495607,1584.657304,914.982545,0
0.002083,-196.313547,61.700069,114.106629,5.031708,6.061340,-4.882852,-1.520337,-5.987667,5.049854,1.393222,-0.143052,0.584680,-0.035692,-72.528690,188.495660,1584.030427,915.611363,0
0.003125,-168.059378,-8.731601,161.884091,5.947818,6.427019,-3.148581,-3.483038,-6.432433,3.387964,3.271765,-0.212459,0.608851,-0.046895,-49.999170,188.495745,1583.596189,916.505760,0
0.004167,-121.294249,-76.179289,188.450379,6.513318,6.111044,-0.477724,-5.520366,-6.134697,0.727260,5.321085,-0.289172,0.599705,-0.046895,-26.983321,188.495794,1583.399143,917.238965,0
0.005208,-43.212475,-131.376939,192.315910,6.581178,4.733536,1.958987,-6.247983,-4.793049,-1.677445,6.064674,-0.274560,0.604278,-0.039427,4.322758,188.495902,1582.600270,917.764184,0
0.006250,31.897563,-174.844032,163.041288,6.060918,2.784434,4.185362,-6.386044,-2.896362,-3.981429,6.256798,-0.263601,0.607871,-0.046895,29.804188,188.495765,1582.473079,918.340855,0
0.007292,96.776666,-183.904710,100.934281,4.805508,0.174979,5.800576,-5.210662,-0.268200,-5.609746,5.157424,-0.270907,0.600685,-0.009553,50.625897,188.495904,1582.551596,917.576875,0
0.008333,143.825358,-189.691463,13.344318,3.199488,-2.154004,6.570481,-3.643487,2.143092,-6.465871,3.663128,-0.219765,0.592454,-0.031958,65.634267,188.495745,1582.655445,917.250560,0
0.009375,169.062422,-146.236451,-60.507008,1.819668,-4.156360,6.133937,-1.266604,4.139024,-6.121742,1.425242,-0.183235,0.592781,-0.058098,70.882107,188.495763,1582.596140,917.266196,0
0.010417,196.216368,-62.745323,-114.045834,0.779148,-5.871145,5.066388,1.367743,5.885005,-5.085159,-1.175544,-0.113828,0.593042,-0.028224,77.396667,188.495930,1582.155880,917.171225,0
0.011458,167.916829,7.722590,-162.377273,-0.182202,-6.290078,3.268619,3.349101,6.322420,-3.381302,-3.029182,-0.055380,0.604147,-0.065566,56.608887,188.495893,1582.039456,917.590775,0
0.012500,121.208412,76.789118,-188.340341,-0.657222,-5.963452,0.562045,5.405085,5.969548,-0.661845,-5.078502,-0.004238,0.596047,-0.054364,30.301828,188.495951,1582.235804,916.906610,0
0.013542,41.345866,131.708908,-192.390531,-0.781632,-4.561092,-1.827042,6.177479,4.627899,1.721877,-5.903922,0.010374,0.590952,-0.013287,-0.529232,188.495769,1582.407728,916.261544,0
0.014583,-33.888940,174.535712,-163.042046,-0.238752,-2.654593,-4.049449,6.270763,2.760618,4.009074,-6.096046,-0.026156,0.572399,-0.043161,-24.924901,188.495886,1582.698148,916.251140,0
0.015625,-96.885187,184.345406,-100.430303,0.982728,-0.052239,-5.712286,5.110307,0.125105,5.628998,-5.007345,-0.015197,0.602906,-0.058098,-45.056701,188.495807,1583.241786,916.032903,0
0.016667,-144.274155,189.878460,-14.034470,2.588748,2.361950,-6.458380,3.483430,-2.282511,6.476730,-3.409871,-0.062686,0.593630,-0.061832,-58.515600,188.495792,1583.745863,914.912987,0
0.017708,-169.828808,146.254316,59.878409,3.957258,4.371408,-5.950401,1.020726,-4.311525,6.090634,-1.090155,-0.117481,0.591931,-0.024490,-66.862380,188.495850,1585.328622,913.928358,0
0.018750,-196.597109,61.796716,113.835796,5.043018,6.071991,-4.843166,-1.568845,-6.050155,5.028871,1.464379,-0.121134,0.600424,-0.087972,-71.929260,188.495924,1586.611017,913.029061,0
0.019792,-167.480911,-9.299404,162.228788,5.981748,6.473173,-3.049366,-3.565128,-6.421406,3.262063,3.321575,-0.205153,0.570701,-0.087972,-49.399740,188.495906,1586.763431,911.448319,0
0.020833,-121.226194,-76.674606,188.401137,6.468078,6.100393,-0.370572,-5.576336,-6.079561,0.609753,5.324642,-0.234377,0.595263,-0.054364,-26.655331,188.495875,1586.896669,909.819877,0
0.021875,-42.702063,-131.558152,192.217425,6.513318,4.690933,1.998673,-6.285297,-4.756291,-1.765575,6.121600,-0.281866,0.609765,-0.050629,6.471658,188.495812,1588.041148,909.040409,0
0.022917,32.147098,-174.324553,163.349054,6.026988,2.709878,4.240922,-6.371118,-2.808144,-4.035986,6.260356,-0.263601,0.609700,-0.065566,29.736328,188.495866,1588.767103,907.692328,0
0.023958,96.447734,-184.351703,100.614205,4.828128,0.086222,5.856136,-5.221856,-0.209388,-5.639123,5.143192,-0.223418,0.600685,-0.054364,49.935987,188.420522,1589.443016,906.968067,0
0.025000,143.779988,-189.715624,13.393561,3.199488,-2.235660,6.594293,-3.594979,2.205580,-6.470068,3.574182,-0.230724,0.589318,-0.046895,64.378857,188.495883,1589.954491,905.433585,0
0.026042,169.311957,-145.608244,-60.297727,1.842288,-4.234467,6.137905,-1.158394,4.194160,-6.067185,1.371875,-0.132093,0.591278,-0.046895,71.470227,188.495841,1590.134557,904.235531,0
0.027083,196.227710,-62.056712,-113.775000,0.790458,-5.942150,5.010828,1.408788,5.929114,-5.085159,-1.221796,-0.069992,0.585072,-0.091706,76.774617,188.495902,1590.762243,903.931348,0
0.028125,167.689979,8.060855,-162.586554,-0.136962,-6.279427,3.252745,3.393877,6.329771,-3.339335,-3.103897,-0.059033,0.603429,-0.050629,54.267717,188.420450,1591.518972,903.202346,0
0.029167,121.639427,76.426691,-188.561932,-0.657222,-5.970553,0.510454,5.420011,5.958520,-0.678632,-5.117638,-0.040768,0.602906,-0.031958,29.600608,188.495978,1592.084671,903.067779,0
0.030208,41.731511,131.757231,-192.255114,-0.725082,-4.564642,-1.858791,6.211061,4.613196,1.826794,-5.918153,0.014027,0.600293,-0.035692,-0.959012,188.496020,1593.175000,901.963363,0
0.031250,-34.183845,174.547793,-163.042046,-0.227442,-2.636841,-4.101041,6.285689,2.753266,4.042648,-6.099604,-0.004238,0.597223,-0.058098,-26.169001,188.495928,1593.548746,901.863893,0
0.032292,-97.043982,184.333325,-100.270265,0.994038,-0.020286,-5.704349,5.076725,0.128781,5.649981,-4.985998,-0.004238,0.600816,-0.028224,-45.633511,188.420499,1593.592483,901.773217,0
0.033333,-144.285497,189.854299,-13.886742,2.656608,2.361950,-6.458380,3.475967,-2.308242,6.485123,-3.456123,-0.048074,0.594283,-0.058098,-60.019830,188.495855,1593.957174,902.237791,0
0.034375,-169.704041,146.749633,59.669129,4.002498,4.385609,-5.946432,0.994606,-4.326228,6.094831,-1.118618,-0.128440,0.595263,-0.031958,-66.568320,188.495906,1594.243019,902.392233,0
0.035417,-196.687849,62.340357,113.786553,5.020398,6.089743,-4.855072,-1.587502,-6.061182,5.020477,1.453705,-0.164970,0.587163,-0.031958,-72.540000,188.495779,1594.455753,902.278297,0
0.036458,-167.730446,-9.154433,162.007197,5.959128,6.458971,-3.085083,-3.606173,-6.439785,3.299833,3.353595,-0.186888,0.544506,-0.043161,-49.716420,188.345066,1595.060197,902.529795,0
0.037500,-120.772493,-76.735010,188.622728,6.456768,6.079092,-0.354698,-5.580068,-6.086913,0.601360,5.370894,-0.256295,0.581610,-0.087972,-26.598781,188.495895,1595.608318,902.570983,0
0.038542,-42.168965,-131.401101,192.303599,6.547248,4.701584,2.034390,-6.326342,-4.759967,-1.794952,6.110927,-0.256295,0.611006,-0.043161,4.379308,188.495845,1595.603869,902.421923,0
0.039583,32.362606,-174.674899,163.312122,6.026988,2.756031,4.280608,-6.427089,-2.833874,-4.090543,6.281703,-0.270907,0.608720,-0.058098,29.781568,188.495991,1596.415462,902.827888,0
0.040625,96.493104,-184.037599,100.983523,4.816818,0.089772,5.883916,-5.233050,-0.194685,-5.706270,5.146750,-0.230724,0.604670,-0.054364,50.705067,188.420462,1597.339707,902.599254,0
0.041667,143.995496,-189.933081,13.590530,3.176868,-2.285364,6.586355,-3.598710,2.249689,-6.486855,3.581297,-0.201500,0.591278,-0.091706,65.464617,188.495845,1598.110986,902.476073,0
0.042708,169.266587,-145.620325,-60.322349,1.808358,-4.291271,6.149811,-1.177051,4.230918,-6.146922,1.307833,-0.143052,0.590625,-0.043161,71.130927,188.495980,1599.400401,902.290945,0
0.043750,196.567985,-61.609718,-113.701137,0.790458,-5.984754,5.018765,1.464759,5.954845,-5.059979,-1.268048,-0.128440,0.591409,-0.058098,77.543697,188.495872,1599.910374,901.747419,0
0.044792,167.701322,8.193745,-162.586554,-0.193512,-6.346882,3.224965,3.464773,6.359177,-3.326745,-3.157264,-0.080951,0.603298,-0.065566,56.495787,188.345091,1600.754939,901.495592,0
0.045833,121.707482,76.402529,-188.660417,-0.713772,-5.981203,0.498548,5.475981,6.006305,-0.603091,-5.192353,-0.007891,0.605976,-0.076769,30.550648,188.495911,1602.413152,900.994661,0
0.046875,42.128499,131.914283,-192.390531,-0.747702,-4.550441,-1.918320,6.252106,4.660981,1.851974,-5.946616,-0.033462,0.597680,-0.054364,-0.450062,188.495846,1603.294921,901.381150,0
0.047917,-34.285927,174.402822,-163.374432,-0.227442,-2.608439,-4.188350,6.304346,2.698130,4.113992,-6.088930,-0.007891,0.583701,-0.050629,-25.196341,188.495779,1604.147450,900.300139,0
0.048958,-97.032640,185.082342,-99.556250,1.027968,0.047169,-5.767846,5.128964,0.084672,5.717128,-4.996671,-0.033462,0.600750,-0.061832,-45.000151,188.345093,1605.318416,900.264660,0
0.050000,-144.308182,189.987189,-13.345076,2.633988,2.397453,-6.494097,3.468504,-2.363378,6.543877,-3.395640,-0.044421,0.597745,-0.058098,-58.413810,188.495973,1606.335834,899.603883,0
0.051042,-170.316536,145.891889,59.632197,3.968568,4.495668,-6.017867,0.987143,-4.403419,6.140994,-1.079482,-0.132093,0.595067,-0.046895,-67.348710,188.472794,1607.569935,899.571577,0
0.052083,-197.050809,62.569894,113.589584,5.065638,6.153648,-4.855072,-1.639741,-6.127346,5.058247,1.531978,-0.161317,0.590298,-0.046895,-71.974500,188.474371,1609.291453,899.271336,0
0.053125,-167.503596,-8.828249,162.610417,5.947818,6.501575,-2.997775,-3.703189,-6.480218,3.278850,3.446099,-0.205153,0.579650,-0.046895,-49.264020,188.341994,1610.788749,898.775586,0
0.054167,-120.931288,-76.928305,188.647349,6.479388,6.103944,-0.334855,-5.654695,-6.153076,0.567786,5.445609,-0.248989,0.599966,-0.043161,-26.248171,188.495510,1612.383559,898.972184,0
0.055208,-41.340963,-131.715204,192.389773,6.535938,4.680282,2.133604,-6.378581,-4.726885,-1.878886,6.153621,-0.259948,0.602579,-0.054364,6.743098,188.495528,1613.329587,898.381609,0
0.056250,33.088526,-174.070854,163.792235,6.060918,2.724079,4.356011,-6.430820,-2.771386,-4.161887,6.295935,-0.274560,0.611464,-0.073035,29.826808,188.495633,1614.268816,897.473116,0
0.057292,96.107458,-184.786616,100.478788,4.805508,0.032968,5.931539,-5.195737,-0.150576,-5.777613,5.157424,-0.267254,0.603167,-0.054364,50.003847,188.344702,1615.565030,897.242456,0
0.058333,143.950126,-189.836433,13.836742,3.176868,-2.352819,6.641916,-3.572591,2.315852,-6.528821,3.563508,-0.208806,0.593761,-0.031958,64.243137,188.495499,1616.632117,896.649529,0
0.059375,169.924452,-144.992118,-60.137690,1.774428,-4.362277,6.181560,-1.068841,4.319136,-6.092365,1.268697,-0.157664,0.588535,-0.046895,71.956557,188.420175,1617.255974,895.651588,0
0.060417,196.704095,-60.824460,-113.467235,0.767838,-6.002505,4.998922,1.483416,6.002629,-4.992832,-1.317858,-0.110175,0.589384,-0.054364,76.785927,188.495483,1617.668110,894.633736,0
0.061458,167.463129,8.834033,-162.623485,-0.182202,-6.361083,3.161468,3.517012,6.436368,-3.288975,-3.189285,-0.051727,0.583243,-0.065566,54.211167,188.344704,1618.586708,894.683710,0
0.062500,121.412577,76.414610,-188.808145,-0.645912,-5.981203,0.450925,5.490907,6.017332,-0.552731,-5.227931,-0.022503,0.603625,-0.061832,29.736328,188.495586,1619.268476,894.254541,0
0.063542,42.593541,131.841798,-192.328978,-0.747702,-4.536240,-1.954037,6.255838,4.613196,1.822597,-6.010657,0.021333,0.611006,-0.043161,-0.540542,188.495477,1619.730077,893.999864,0
0.064583,-33.605377,174.414903,-163.522160,-0.238752,-2.604889,-4.160570,6.319271,2.705482,4.126582,-6.120951,-0.004238,0.579193,-0.080503,-26.180311,188.495495,1620.339649,894.007895,0
0.065625,-96.953242,184.961532,-99.531629,1.027968,0.072021,-5.740066,5.076725,0.047914,5.721325,-5.000229,-0.044421,0.599640,-0.035692,-45.543031,188.344757,1620.579528,893.620374,0
0.066667,-144.183415,190.059674,-13.037311,2.667918,2.422305,-6.482191,3.472236,-2.370729,6.539680,-3.392082,-0.033462,0.597223,-0.028224,-59.838870,188.495495,1620.542054,893.561132,0
0.067708,-169.998946,146.024779,59.903030,3.991188,4.513419,-6.017867,0.968487,-4.370337,6.140994,-1.122176,-0.117481,0.593630,-0.028224,-66.986790,188.495513,1619.969997,894.157642,0
0.068750,-196.994097,62.739027,113.638826,4.997778,6.160748,-4.843166,-1.654666,-6.108967,5.041461,1.535536,-0.190541,0.593173,-0.069301,-72.607860,188.500215,1619.742095,893.872954,0
0.069792,-167.753131,-8.296689,162.450379,5.970438,6.505125,-2.993806,-3.658412,-6.524327,3.224293,3.428310,-0.201500,0.599313,-0.087972,-49.693800,188.269559,1620.178733,893.345751,0
0.070833,-120.863233,-76.747091,188.918182,6.479388,6.121695,-0.311043,-5.658426,-6.127346,0.563589,5.413589,-0.252642,0.598529,-0.028224,-26.316031,188.496690,1619.696885,893.100734,0
0.071875,-41.148140,-131.497748,192.475948,6.524628,4.666081,2.093919,-6.400969,-4.697479,-1.832722,6.167852,-0.256295,0.602579,-0.039427,4.684678,188.495303,1619.329780,893.175842,0
0.072917,33.496856,-174.312472,163.607576,6.060918,2.695677,4.348074,-6.479328,-2.793441,-4.119920,6.331513,-0.241683,0.603690,-0.013287,29.905978,188.495361,1619.093025,894.131855,0
0.073958,96.118801,-184.496674,100.712690,4.862058,0.050719,5.919633,-5.203199,-0.132197,-5.710466,5.164539,-0.252642,0.599444,-0.043161,50.716377,188.344693,1618.408639,893.909992,0
0.075000,144.086236,-189.872676,14.095265,3.188178,-2.338618,6.633978,-3.535277,2.301149,-6.520428,3.559950,-0.201500,0.596962,-0.065566,65.532477,188.495275,1618.261999,893.901513,0
0.076042,169.754314,-145.511597,-59.805303,1.797048,-4.323224,6.153780,-1.072573,4.297081,-6.134332,1.250908,-0.164970,0.589906,-0.084238,71.436297,188.495354,1618.600808,893.880976,0
0.077083,196.828863,-60.643246,-113.491856,0.790458,-5.981203,4.998922,1.461027,6.039387,-5.030602,-1.374783,-0.084604,0.569525,-0.058098,77.622867,188.495329,1619.618117,893.889022,0
0.078125,167.292992,9.341431,-162.623485,-0.125652,-6.364633,3.189248,3.528206,6.399610,-3.284778,-3.239095,-0.077298,0.602841,-0.058098,56.246967,188.269272,1619.603341,893.499207,0
0.079167,121.299152,76.716633,-188.795834,-0.679842,-5.977653,0.462831,5.520758,6.028360,-0.577911,-5.220815,-0.018850,0.602971,-0.024490,30.607198,188.495401,1619.418041,894.028785,0
0.080208,42.502801,131.841798,-192.415152,-0.792942,-4.536240,-1.969911,6.240912,4.598493,1.860367,-5.989310,0.014027,0.611594,-0.061832,-0.133382,188.495347,1619.453419,893.505056,0
0.081253,-33.832227,174.100800,-163.694508,-0.238752,-2.523232,-4.204224,6.308077,2.635642,4.118188,-6.092488,-0.000585,0.602710,-0.054364,-25.185031,188.495320,1619.144076,892.483872,0
0.082292,-96.794447,185.444769,-99.063826,1.027968,0.103973,-5.787689,5.072993,0.003805,5.742308,-4.964650,-0.004238,0.597549,-0.046895,-44.920981,188.269142,1619.467826,891.791204,0
0.083333,-143.979250,190.107998,-12.729545,2.633988,2.479110,-6.513940,3.453579,-2.396460,6.535483,-3.360062,-0.026156,0.591997,-0.035692,-58.221540,188.495329,1619.538405,891.225368,0
0.084375,-170.441303,145.336167,59.878409,4.013808,4.502768,-6.001992,0.961024,-4.388716,6.094831,-1.022556,-0.146705,0.590494,-0.050629,-67.620150,188.420063,1619.537122,889.803193,0
0.085417,-197.039467,62.364519,113.478788,5.043018,6.199801,-4.843166,-1.643472,-6.123670,5.024674,1.574672,-0.139399,0.593303,-0.035692,-71.929260,188.495352,1619.811907,889.304861,0
0.086458,-167.424198,-7.885938,162.979735,5.993058,6.498025,-3.005712,-3.718114,-6.513300,3.253669,3.453215,-0.194194,0.605976,-0.084238,-49.354500,188.344478,1620.022894,889.462670,0
0.087500,-121.577811,-76.565877,188.745834,6.468078,6.118145,-0.287232,-5.692009,-6.105291,0.521622,5.459841,-0.259948,0.591278,-0.080503,-26.146381,188.495327,1620.843610,888.505719,0
0.088542,-40.739810,-131.775609,192.414395,6.535938,4.627028,2.161384,-6.374849,-4.704831,-1.878886,6.210546,-0.248989,0.593173,-0.058098,7.116328,188.420036,1621.652861,888.556334,0
0.089583,34.177406,-173.829236,163.804546,5.993058,2.699227,4.336168,-6.456940,-2.723601,-4.153493,6.295935,-0.318396,0.585007,-0.050629,30.007768,188.495452,1621.635185,887.405580,0
0.090625,96.141486,-185.100719,100.072538,4.805508,-0.009635,5.983131,-5.206931,-0.095440,-5.756630,5.164539,-0.259948,0.605127,-0.073035,50.049087,188.344563,1622.419972,887.302972,0
0.091667,143.972811,-189.860595,14.242992,3.210798,-2.317316,6.630010,-3.520351,2.290122,-6.562395,3.552835,-0.212459,0.597223,-0.069301,64.220517,188.495309,1622.780300,887.401437,0
0.092708,170.219357,-145.185412,-59.559091,1.774428,-4.387129,6.165686,-1.038990,4.330163,-6.151119,1.243792,-0.143052,0.592715,-0.020755,72.103587,188.419963,1623.343335,887.442363,0
0.093750,196.715438,-60.776136,-113.442614,0.801768,-6.016706,5.010828,1.513267,6.079820,-5.030602,-1.332089,-0.095563,0.559596,-0.039427,76.751997,188.495416,1623.493331,887.845937,0
0.094792,167.156882,9.812586,-162.611175,-0.159582,-6.393036,3.169405,3.546863,6.377556,-3.251204,-3.221306,-0.055380,0.601730,-0.031958,54.018897,188.344650,1622.934582,887.581980,0
0.095833,120.970220,76.837442,-188.857387,-0.702462,-6.016706,0.458862,5.502101,6.013657,-0.527551,-5.242163,-0.026156,0.589057,-0.050629,29.566678,188.495334,1623.215575,886.963979,0
0.096875,42.287294,131.829717,-192.292046,-0.770322,-4.539790,-1.965943,6.225987,4.605844,1.877154,-5.960848,-0.015197,0.596766,-0.061832,-0.223862,188.419925,1622.935501,886.861753,0
0.097917,-33.106307,174.451146,-163.485228,-0.227442,-2.551635,-4.208193,6.308077,2.631967,4.143368,-6.085372,0.014027,0.604866,-0.005818,-25.999351,188.495271,1623.283238,886.509828,0
0.098958,-96.442830,185.058180,-99.753220,0.971418,0.100423,-5.795626,5.091650,0.014833,5.721325,-4.964650,-0.022503,0.599444,-0.031958,-45.497791,188.344607,1623.050765,886.250319,0
0.100000,-144.047305,190.107998,-12.741856,2.600058,2.457808,-6.454411,3.416265,-2.370729,6.510303,-3.331599,-0.062686,0.590298,-0.046895,-59.725770,188.495314,1622.499350,885.993328,0
0.101042,-169.885521,145.505300,60.198485,4.013808,4.502768,-6.005961,0.946098,-4.370337,6.115814,-1.036788,-0.121134,0.589318,-0.058098,-66.986790,188.420097,1622.307965,886.336167,0
0.102083,-197.130207,62.014172,113.651137,5.043018,6.157198,-4.886820,-1.647204,-6.101616,4.995297,1.539093,-0.164970,0.590494,-0.061832,-72.585240,188.495474,1621.588989,886.486916,0
0.103125,-167.775816,-7.583916,162.598107,5.959128,6.483823,-3.037460,-3.677069,-6.531678,3.257866,3.414079,-0.212459,0.609308,-0.028224,-49.784280,188.269080,1621.477859,886.654700,0
0.104167,-121.736606,-76.058479,188.868940,6.456768,6.139446,-0.322949,-5.609919,-6.116319,0.538409,5.417146,-0.241683,0.602841,-0.043161,-26.542231,188.495229,1621.082109,886.806268,0
0.105208,-41.318278,-131.570233,192.365152,6.547248,4.658980,2.097887,-6.344998,-4.657046,-1.862099,6.160736,-0.248989,0.563254,-0.058098,4.933498,188.420075,1620.334700,885.995744,0
0.106250,34.086666,-174.288310,163.496781,6.049608,2.731179,4.300451,-6.430820,-2.767710,-4.124116,6.310166,-0.256295,0.603037,-0.073035,30.075628,188.495387,1620.090291,886.886661,0
0.107292,96.220884,-184.593321,100.380303,4.839438,0.043619,5.947413,-5.218125,-0.157928,-5.739843,5.143192,-0.248989,0.601600,-0.039427,50.648517,188.344531,1619.304485,887.163680,0
0.108333,143.916098,-189.836433,14.156818,3.210798,-2.288914,6.614136,-3.591247,2.308501,-6.528821,3.559950,-0.234377,0.597288,-0.031958,65.532477,188.495237,1619.079742,886.965793,0
0.109375,169.913109,-145.668648,-59.522159,1.819668,-4.348075,6.145843,-1.117349,4.330163,-6.155316,1.250908,-0.168623,0.592127,-0.084238,71.424987,188.419853,1619.197258,886.924599,0
0.110417,196.794835,-61.513071,-113.356440,0.790458,-6.034458,4.994953,1.546849,6.061441,-5.005422,-1.332089,-0.154011,0.593238,-0.054364,77.588937,188.495399,1619.123063,886.404924,0
