1-Time,2-VGERA,3-VGERB,4-VGERC,5-VN,6-IGERAN,7-IGERBN,8-IGERCN,9-IGERAT,10-IGERBT,11-IGERCT,12-IN,13-IFD,14-IFAULT,15-VFAULT,16-Speed (rad/s),17-Active Power,18-Reactive Power,19-FAULT 
0.000000,144.975143,-160.778851,22.242574,0.730863,-6.294818,1.264392,5.030154,6.625186,-1.341434,-5.007312,-0.036163,0.185844,-0.074856,-133.460970,188.797654,979.944389,-1361.901448,0
0.001042,192.819027,-97.214857,-24.371239,-0.248696,-4.988486,-1.306128,6.078582,5.236045,1.199285,-6.006550,-0.003348,0.195076,-0.089723,-182.299582,188.797782,978.842522,-1358.920723,0
0.002083,186.943066,-50.669382,-100.562220,-1.678627,-3.344562,-3.434148,6.354883,3.799753,3.380668,-6.434255,-0.003348,0.194387,-0.074856,-172.583648,188.797693,978.963950,-1357.585919,0
0.003125,142.590859,-6.719554,-173.630222,-3.097299,-1.197921,-4.834055,5.628175,1.638061,4.868743,-5.688611,-0.010640,0.208443,-0.048839,-131.006655,188.797764,977.700205,-1355.903569,0
0.004167,88.712815,44.606140,-203.547638,-3.671523,1.539506,-5.883986,3.875748,-0.879077,5.862202,-3.962653,-0.054394,0.215126,-0.067423,-81.143535,188.873152,978.002120,-1354.783619,0
0.005208,41.422628,124.742344,-176.352197,-3.187373,3.810910,-6.153508,1.915151,-3.127817,6.191946,-1.949036,-0.090856,0.227804,-0.071140,-37.258586,188.797652,977.226031,-1353.302050,0
0.006250,-1.008592,183.314709,-124.257980,-2.185296,5.282368,-4.998987,-0.461790,-4.509704,5.228079,0.424156,-0.149195,0.164347,-0.093440,0.535610,188.797713,978.966803,-1351.586880,0
0.007292,-64.129975,192.440582,-68.299532,-1.070625,6.607048,-3.345648,-3.213440,-5.619566,3.477900,3.225052,-0.214826,0.179574,-0.082290,61.803412,188.873121,978.154425,-1348.709254,0
0.008333,-145.082640,161.433755,-22.111028,-0.147362,6.375871,-1.245787,-4.859888,-5.677598,1.499437,5.015355,-0.214826,0.187428,-0.071140,134.273248,188.872649,978.856038,-1347.522301,0
0.009375,-192.112929,98.703657,24.636453,0.787160,5.073208,1.312665,-5.885606,-4.321100,-1.053965,5.972959,-0.254934,0.198315,-0.112023,181.749603,188.873121,978.742136,-1344.927698,0
0.010417,-187.547759,51.982006,100.766676,2.295906,3.495335,3.456776,-6.195971,-2.913824,-3.264941,6.461223,-0.243995,0.198177,-0.086006,174.127717,188.797817,979.287590,-1343.726180,0
0.011458,-143.726649,6.751973,172.838241,3.635763,1.323007,4.929092,-5.454123,-0.817418,-4.710741,5.677729,-0.251287,0.227666,-0.097156,133.248740,188.948603,979.208497,-1340.950877,0
0.012500,-90.131103,-44.350566,203.703487,4.232505,-1.443775,5.906614,-3.716837,1.706974,-5.788750,4.061536,-0.218472,0.214230,-0.048839,82.439921,188.873179,981.212536,-1339.067562,0
0.013542,-42.501918,-123.887775,176.933355,3.759615,-3.711509,6.212340,-1.782734,3.955714,-6.021262,1.972219,-0.171072,0.203689,-0.112023,37.890731,188.873110,980.135027,-1337.174293,0
0.014583,1.115794,-183.423231,125.227992,2.746278,-5.157282,5.057819,0.624487,5.406514,-5.137717,-0.393403,-0.130964,0.200726,-0.067423,-0.578964,188.797731,980.942498,-1336.014253,0
0.015625,63.604381,-192.631319,68.576898,1.654126,-6.415911,3.416548,3.300438,6.523630,-3.383310,-3.118599,-0.061686,0.177231,-0.067423,-60.450735,189.023987,981.088968,-1333.675770,0
0.016667,145.054243,-162.129528,21.975237,0.742122,-6.298488,1.332778,4.924176,6.570781,-1.434439,-4.927827,-0.006994,0.188324,-0.082290,-133.460970,188.873054,981.883231,-1332.430158,0
0.017708,190.920640,-98.964863,-24.504907,-0.271215,-4.929774,-1.209582,6.006668,5.214283,1.080915,-5.821086,-0.014286,0.199004,-0.104590,-180.610833,188.873217,981.318300,-1329.629652,0
0.018750,188.106958,-50.845557,-99.991092,-1.678627,-3.381257,-3.381852,6.309463,3.821515,3.287663,-6.415330,-0.003348,0.200726,-0.063706,-173.799547,188.797741,981.777385,-1328.887776,0
0.019792,144.636146,-5.756463,-171.090523,-3.018484,-1.212598,-4.753601,5.548691,1.685212,4.754601,-5.590201,0.014883,0.217607,-0.097156,-132.492754,189.023978,980.775138,-1326.920003,0
0.020833,89.153512,44.594395,-204.191676,-3.705301,1.425752,-5.799509,3.826544,-0.770267,5.781880,-3.966438,-0.061686,0.187497,-0.112023,-81.470027,188.948463,981.340728,-1325.534029,0
0.021875,41.693826,122.452067,-177.032690,-3.187373,3.704495,-6.048917,1.956785,-2.931959,6.022847,-1.964176,-0.061686,0.189771,-0.063706,-37.224811,188.873016,979.937524,-1322.314580,0
0.022917,-1.483189,183.819745,-125.278720,-2.219074,5.153937,-4.954737,-0.431511,-4.440791,5.181577,0.367381,-0.134610,0.177024,-0.086006,1.199851,188.873050,980.154987,-1321.373551,0
0.023958,-62.491486,191.747626,-68.493959,-1.059366,6.430913,-3.297375,-3.088537,-5.510756,3.393350,3.100147,-0.189302,0.180883,-0.089723,60.103405,189.023827,978.531860,-1319.071009,0
0.025000,-145.444237,162.690471,-21.661416,-0.113585,6.339177,-1.294060,-4.765265,-5.590550,1.533256,4.829890,-0.240349,0.189702,-0.074856,134.160665,188.948556,978.736793,-1316.600590,0
0.026042,-189.446147,100.101313,24.879487,0.832197,4.959455,1.228187,-5.711499,-4.230425,-0.977871,5.795064,-0.218472,0.202311,-0.097156,179.374096,188.873154,976.971631,-1313.700945,0
0.027083,-188.847251,51.782341,100.389975,2.273387,3.506344,3.287821,-6.131627,-2.946467,-3.176163,6.393093,-0.287749,0.207547,-0.082290,175.422425,189.023892,977.369141,-1312.478733,0
0.028125,-146.110933,5.812372,169.460077,3.556947,1.311999,4.772206,-5.329220,-0.839180,-4.533187,5.526329,-0.251287,0.214230,-0.086006,134.464640,189.023916,975.316447,-1309.637593,0
0.029167,-90.504000,-44.350566,204.675621,4.243765,-1.330022,5.806045,-3.758471,1.612672,-5.691518,4.008546,-0.247641,0.217469,-0.074856,83.025354,188.873280,975.164752,-1308.201869,0
0.030208,-42.886115,-121.609243,177.443725,3.782133,-3.561061,5.983045,-1.790304,3.781618,-5.928257,2.021424,-0.171072,0.202793,-0.074856,38.183447,188.873119,974.645419,-1305.662736,0
0.031250,1.725990,-184.386322,126.333794,2.746278,-5.021511,5.041728,0.545003,5.294077,-5.108125,-0.287423,-0.130964,0.202242,-0.093440,-1.153139,189.023885,975.607565,-1304.051700,0
0.032292,62.338790,-191.539033,69.561184,1.665385,-6.228768,3.372298,3.209599,6.382177,-3.341035,-3.031544,-0.058040,0.191631,-0.097156,-59.246094,189.099244,973.987307,-1301.931429,0
0.033333,145.574039,-163.527184,21.853720,0.685826,-6.217759,1.352892,4.844693,6.501868,-1.464031,-4.802922,-0.010640,0.190322,-0.078573,-133.562295,188.873134,974.202368,-1300.428086,0
0.034375,188.479856,-100.691380,-25.003126,-0.282474,-4.849046,-1.137173,5.806067,5.116354,1.068233,-5.677256,0.014883,0.201208,-0.086006,-178.111485,188.948570,972.137110,-1298.521145,0
0.035417,189.429050,-50.880792,-99.650845,-1.678627,-3.410613,-3.228989,6.267829,3.850531,3.186204,-6.385050,0.025822,0.203964,-0.112023,-175.375712,189.023945,972.790071,-1297.587520,0
0.036458,146.658832,-4.805117,-168.307790,-3.029743,-1.249293,-4.649010,5.454068,1.761379,4.615094,-5.495576,-0.006994,0.216711,-0.093440,-134.136469,189.099285,972.032864,-1295.159867,0
0.037500,89.515110,44.523925,-204.932928,-3.727820,1.326677,-5.715031,3.913598,-0.690473,5.748060,-3.970223,-0.058040,0.204929,-0.100873,-81.774002,188.873184,972.618677,-1294.492947,0
0.038542,42.010224,120.995686,-177.421544,-3.187373,3.561386,-5.952372,1.987064,-2.870300,5.883340,-2.013381,-0.123671,0.179436,-0.108307,-37.303619,188.948579,971.691410,-1292.774100,0
0.039583,-2.274184,184.054645,-126.408826,-2.241592,5.106234,-5.007032,-0.314178,-4.302965,5.215397,0.257616,-0.156487,0.175095,-0.074856,2.134292,189.023822,973.135388,-1290.940403,0
0.040625,-61.926489,191.277826,-69.028632,-1.093144,6.302482,-3.321512,-2.978774,-5.427335,3.422943,2.967673,-0.211179,0.194249,-0.097156,59.326581,189.023998,973.348347,-1288.900523,0
0.041667,-145.274739,163.888463,-20.956619,-0.113585,6.295143,-1.370491,-4.659286,-5.565161,1.567076,4.742835,-0.214826,0.192527,-0.100873,134.205698,188.873125,973.837657,-1287.833809,0
0.042708,-188.090156,101.322794,25.280492,0.843456,4.930099,1.135665,-5.597951,-4.205036,-0.910231,5.677729,-0.269518,0.203689,-0.112023,177.786673,189.023845,973.383029,-1286.058065,0
0.043750,-189.762545,51.406501,99.843149,2.284646,3.550377,3.235526,-6.101348,-2.931959,-3.078931,6.328748,-0.262226,0.193836,-0.123173,176.683357,189.023785,973.217061,-1284.652245,0
0.044792,-147.591223,5.037201,167.746691,3.556947,1.367041,4.679683,-5.314081,-0.882704,-4.435954,5.480909,-0.243995,0.215333,-0.115740,136.648755,189.023954,972.921032,-1283.167203,0
0.045833,-90.899498,-44.421036,204.979413,4.243765,-1.190582,5.729614,-3.781181,1.532878,-5.539328,4.042611,-0.254934,0.199141,-0.063706,83.779662,188.873008,973.267982,-1281.208675,0
0.046875,-43.146013,-120.528702,178.172825,3.680800,-3.450977,5.950863,-1.809228,3.698197,-5.847935,2.059274,-0.178364,0.203206,-0.063706,38.600005,189.023940,972.950227,-1279.877890,0
0.047917,2.177987,-184.151421,127.597568,2.791315,-4.962800,5.021615,0.435240,5.228791,-5.120807,-0.189013,-0.149195,0.208305,-0.097156,-1.637247,189.023823,973.909843,-1278.868736,0
0.048958,61.796393,-191.362858,70.375346,1.654126,-6.155378,3.372298,3.092266,6.331399,-3.353718,-2.899069,-0.068979,0.180401,-0.082290,-58.367945,189.023613,974.139051,-1277.333206,0
0.050000,145.641839,-164.490275,21.720052,0.674567,-6.228768,1.461505,4.734929,6.458344,-1.527444,-4.685587,-0.014286,0.194870,-0.093440,-133.607328,188.872892,974.712332,-1275.743565,0
0.051042,187.259464,-102.453131,-25.343372,-0.316252,-4.790334,-1.016492,5.692519,5.116354,0.903361,-5.624266,-0.036163,0.204516,-0.119457,-176.681678,189.023666,975.471071,-1274.209449,0
0.052083,190.186145,-51.280122,-99.164778,-1.667368,-3.480333,-3.168648,6.199700,3.872293,3.080516,-6.267715,0.011237,0.205825,-0.093440,-176.490287,189.098989,975.215112,-1272.398365,0
0.053125,148.749318,-4.112162,-166.059731,-2.939669,-1.333691,-4.520283,5.367014,1.743244,4.488269,-5.404736,0.000299,0.225323,-0.089723,-135.768926,189.023598,973.705111,-1270.810148,0
0.054167,90.001007,44.641375,-205.333934,-3.649005,1.253287,-5.646645,3.928738,-0.607052,5.617008,-4.008073,-0.058040,0.218916,-0.086006,-82.269368,188.948352,974.251399,-1269.093367,0
0.055208,42.292722,119.398364,-178.247857,-3.187373,3.410937,-5.811577,1.987064,-2.645426,5.824155,-2.013381,-0.101794,0.174613,-0.097156,-37.585077,189.023702,973.962362,-1266.551365,0
0.056250,-2.579281,184.336525,-127.222988,-2.252852,4.999819,-4.990941,-0.246049,-4.259441,5.151985,0.189486,-0.134610,0.201002,-0.097156,2.663433,189.099124,974.029428,-1265.635024,0
0.057292,-60.954696,191.007691,-69.587609,-1.093144,6.108000,-3.237034,-2.838731,-5.267747,3.389123,2.865478,-0.196595,0.190115,-0.056273,58.054390,188.948274,972.875744,-1263.262176,0
0.058333,-145.545937,164.499203,-20.822951,-0.113585,6.207076,-1.426809,-4.492749,-5.438216,1.617806,4.659565,-0.214826,0.191562,-0.108307,134.216956,189.023575,972.600354,-1261.413308,0
0.059375,-186.248268,102.920115,25.717952,0.865975,4.845701,1.027051,-5.427629,-4.154258,-0.770724,5.530114,-0.236703,0.204722,-0.071140,175.411166,189.023595,972.195322,-1258.691203,0
0.060417,-190.474440,51.065896,99.454296,2.273387,3.550377,3.179208,-6.002939,-2.939213,-2.956334,6.211413,-0.265872,0.215608,-0.108307,177.572765,189.098926,972.017758,-1256.475960,0
0.061458,-149.500911,3.651290,164.854593,3.444354,1.422083,4.454411,-5.170253,-0.886331,-4.283765,5.405209,-0.258580,0.225048,-0.089723,137.718295,188.872867,970.836356,-1254.247672,0
0.062500,-90.888198,-44.468016,205.404721,4.277543,-1.124531,5.608932,-3.747116,1.463965,-5.484371,4.050181,-0.211179,0.210992,-0.063706,84.151187,189.034817,971.289157,-1253.219067,0
0.063542,-43.417212,-118.766950,178.731802,3.692059,-3.278512,5.798000,-1.801658,3.596641,-5.687290,2.078199,-0.211179,0.205205,-0.123173,39.039080,189.025997,969.931827,-1251.043465,0
0.064583,2.686484,-184.585987,128.290213,2.847611,-4.856385,5.001501,0.336832,5.101846,-5.086987,-0.105743,-0.112733,0.212370,-0.108307,-2.121355,189.098884,970.454801,-1249.156018,0
0.065625,60.971499,-190.869567,71.213811,1.687904,-5.957227,3.332071,2.971148,6.157303,-3.307215,-2.755240,-0.072625,0.177576,-0.093440,-57.534829,188.873012,969.282317,-1246.253142,0
0.066667,145.698339,-165.054035,21.744355,0.652048,-6.100336,1.489664,4.666800,6.353161,-1.557036,-4.598532,-0.043455,0.195283,-0.097156,-133.832495,189.023793,968.860993,-1244.612786,0
0.067708,185.688774,-104.391058,-25.744378,-0.282474,-4.742631,-0.968219,5.556261,5.076457,0.873769,-5.435016,-0.032517,0.206238,-0.097156,-174.283655,189.099182,967.660393,-1242.519512,0
0.068750,190.785041,-51.303612,-99.006806,-1.656109,-3.447307,-3.003717,6.135356,3.843277,2.995967,-6.154165,-0.025225,0.208581,-0.078573,-177.368436,189.023742,966.954050,-1240.852389,0
0.069792,150.421707,-3.348736,-164.115463,-2.928410,-1.274980,-4.443851,5.310240,1.823038,4.340307,-5.325251,0.000299,0.222430,-0.093440,-137.322575,189.023736,966.614876,-1238.458694,0
0.070833,90.419104,44.641375,-205.455450,-3.694042,1.183567,-5.550100,3.887103,-0.574409,5.532459,-3.992933,-0.054394,0.230904,-0.041406,-82.607118,189.023709,966.309957,-1237.480841,0
0.071875,42.812519,118.388293,-178.746076,-3.209892,3.333878,-5.690895,1.945430,-2.627291,5.726923,-2.032306,-0.109087,0.205136,-0.115740,-38.046669,189.099171,965.408257,-1236.770219,0
0.072917,-3.257277,184.019410,-128.292335,-2.286629,4.915421,-4.942669,-0.185490,-4.165139,5.130847,0.147851,-0.123671,0.208236,-0.071140,3.271383,188.948429,965.537801,-1235.555970,0
0.073958,-60.694797,190.866751,-70.255951,-1.104403,6.019932,-3.233012,-2.793312,-5.206088,3.367985,2.820058,-0.222118,0.179987,-0.086006,57.615316,189.023796,965.001436,-1234.716007,0
0.075000,-145.003540,165.145179,-20.725737,-0.136103,6.185059,-1.434855,-4.454900,-5.398319,1.605124,4.587650,-0.229410,0.192665,-0.045123,134.036823,189.023713,964.523022,-1233.846384,0
0.076042,-185.536372,104.129851,26.058199,0.832197,4.783320,0.982801,-5.378425,-4.143377,-0.766496,5.408994,-0.269518,0.206996,-0.086006,174.330367,189.099131,963.921288,-1232.702623,0
0.077083,-190.768238,50.842740,98.822409,2.273387,3.557716,3.078640,-5.953735,-2.913824,-2.888694,6.184918,-0.258580,0.184328,-0.086006,178.372106,188.873094,963.597374,-1231.805291,0
0.078125,-150.506604,2.970079,163.955369,3.500651,1.473456,4.430274,-5.113479,-0.918974,-4.182305,5.352219,-0.236703,0.178471,-0.086006,139.508369,189.023929,963.347697,-1230.275236,0
0.079167,-90.922098,-44.608957,205.392570,4.266283,-1.062150,5.576750,-3.739547,1.395052,-5.412504,4.012331,-0.240349,0.223532,-0.078573,84.635295,189.023758,963.137102,-1228.893825,0
0.080208,-43.281613,-118.109230,179.205717,3.770874,-3.230809,5.729614,-1.850863,3.495085,-5.611196,2.063059,-0.145548,0.197970,-0.082290,39.354313,189.099160,962.548454,-1227.367292,0
0.081250,3.319280,-183.963501,129.298802,2.825093,-4.775657,4.997478,0.283842,5.040187,-5.078532,-0.064108,-0.152841,0.209339,-0.093440,-2.594204,188.872992,962.739131,-1226.497281,0
0.082292,60.734200,-190.916547,72.015821,1.665385,-5.905854,3.315980,2.918159,6.106525,-3.307215,-2.713605,-0.068979,0.193767,-0.086006,-57.073237,189.023742,962.502328,-1225.894251,0
0.083333,145.212442,-165.465110,21.841569,0.674567,-6.023277,1.521846,4.557037,6.287875,-1.582401,-4.488767,-0.032517,0.197419,-0.093440,-133.674878,189.023818,962.191250,-1224.225909,0
0.084375,185.123778,-105.753479,-26.036018,-0.271215,-4.716945,-0.835469,5.454068,5.007544,0.746944,-5.347961,-0.025225,0.208443,-0.063706,-173.506831,189.099180,962.047703,-1222.386203,0
0.085417,190.785041,-50.916027,-98.338464,-1.656109,-3.461985,-2.987626,6.055873,3.832396,2.962147,-6.150380,-0.039809,0.205205,-0.067423,-177.908835,188.873063,961.858290,-1221.885437,0
0.086458,151.721199,-2.996386,-162.815234,-2.905891,-1.337361,-4.319147,5.234541,1.812157,4.247303,-5.287401,-0.039809,0.221947,-0.097156,-138.504699,189.023635,961.129687,-1220.870972,0
0.087500,91.232699,44.664865,-205.127355,-3.682783,1.150542,-5.457577,3.890888,-0.505496,5.456364,-3.951298,-0.058040,0.211337,-0.119457,-83.248842,189.098884,960.692977,-1219.639254,0
0.088542,43.049817,117.389968,-179.353659,-3.232411,3.256819,-5.614463,1.956785,-2.525735,5.633918,-2.024736,-0.101794,0.197626,-0.086006,-38.294352,189.023533,959.882571,-1218.104597,0
0.089583,-3.460676,183.796255,-128.912070,-2.297889,4.849371,-4.894396,-0.128716,-4.081718,5.075890,0.072152,-0.145548,0.209339,-0.086006,3.440258,188.872809,959.883528,-1216.578705,0
0.090625,-60.288000,190.901986,-70.814928,-1.126922,5.909848,-3.224966,-2.721398,-5.082770,3.355303,2.706508,-0.211179,0.193629,-0.104590,56.951074,189.023573,959.509810,-1214.484698,0
0.091667,-144.721042,165.333099,-20.859406,-0.124844,6.078644,-1.430832,-4.371631,-5.282255,1.622034,4.527091,-0.262226,0.193216,-0.089723,134.104373,189.088321,958.650524,-1212.993514,0
0.092708,-184.677578,105.821133,26.447052,0.832197,4.750295,0.930506,-5.215672,-4.059956,-0.711539,5.325724,-0.229410,0.204102,-0.104590,172.686652,188.871727,957.744012,-1211.761558,0
0.093750,-190.892537,50.690055,98.421404,2.228350,3.502674,3.006231,-5.843972,-2.939213,-2.816827,6.135713,-0.269518,0.213610,-0.104590,178.608530,188.948126,957.882778,-1210.537430,0
0.094792,-152.224193,2.277124,162.035405,3.433095,1.422083,4.289479,-5.007501,-0.911720,-4.106210,5.238670,-0.254934,0.208029,-0.071140,140.217643,189.023513,956.368861,-1209.236275,0
0.095833,-90.955997,-44.667682,205.173840,4.300061,-0.977752,5.468137,-3.735762,1.362409,-5.260314,3.978266,-0.214826,0.217469,-0.071140,84.601520,189.098931,955.519212,-1207.303768,0
0.096875,-43.021714,-116.958219,179.995576,3.770874,-3.120724,5.633068,-1.824368,3.404410,-5.513963,2.081984,-0.171072,0.202449,-0.097156,39.692063,188.872691,954.998164,-1205.678984,0
0.097917,3.703477,-183.681621,129.809172,2.836352,-4.676581,5.009546,0.257348,4.960393,-4.998210,-0.037613,-0.141902,0.202035,-0.093440,-2.796854,188.872653,954.339950,-1204.341191,0
0.098958,60.372603,-191.069232,72.514040,1.687904,-5.759075,3.287821,2.808396,5.943310,-3.328353,-2.615195,-0.076271,0.204240,-0.067423,-56.476546,189.023448,954.100452,-1202.008730,0
0.100000,144.715245,-165.641286,21.963086,0.674567,-5.953557,1.513801,4.500263,6.179065,-1.548581,-4.447132,-0.065333,0.197212,-0.086006,-133.798720,189.023539,952.690291,-1200.981434,0
0.101042,184.490982,-107.573956,-26.400568,-0.248696,-4.643556,-0.815356,5.332950,4.956766,0.704669,-5.253336,0.003945,0.210785,-0.115740,-171.964440,188.863745,952.058077,-1199.917151,0
0.102083,190.977139,-52.031803,-98.010369,-1.667368,-3.469324,-2.907171,5.999099,3.846904,2.805730,-6.078465,0.011237,0.212577,-0.071140,-178.302877,188.943829,952.097728,-1198.041022,0
0.103125,153.404888,-2.632291,-161.660825,-2.849594,-1.392403,-4.206511,5.139918,1.859308,4.158525,-5.211701,-0.003348,0.226288,-0.063706,-140.013315,189.022838,951.657426,-1196.702706,0
0.104167,92.046293,44.641375,-204.945080,-3.694042,1.080822,-5.340918,3.928738,-0.447464,5.329539,-3.939943,-0.050748,0.214644,-0.082290,-83.856792,188.872211,951.293392,-1195.129634,0
0.105208,43.366215,116.814462,-180.107063,-3.243670,3.168752,-5.538032,2.013559,-2.464076,5.608553,-2.055016,-0.101794,0.215746,-0.093440,-38.699652,188.872218,951.462726,-1194.519504,0
0.106250,-3.844873,183.032829,-129.811294,-2.309148,4.761303,-4.946691,-0.079512,-4.030940,5.063208,0.011592,-0.138256,0.207754,-0.056273,3.980657,188.947774,951.684489,-1193.608248,0
0.107292,-60.039402,191.313061,-71.483270,-1.115662,5.840128,-3.245080,-2.615420,-5.064635,3.384895,2.638378,-0.160133,0.193974,-0.126890,56.635841,189.022923,952.201739,-1193.113358,0
0.108333,-144.020447,165.873369,-20.810799,-0.124844,6.023602,-1.487150,-4.318642,-5.235104,1.647399,4.390831,-0.222118,0.194456,-0.082290,133.935498,188.872216,952.074568,-1191.267786,0
0.109375,-184.440280,107.113084,26.641479,0.865975,4.702592,0.837983,-5.162683,-4.099853,-0.626989,5.261380,-0.240349,0.206169,-0.059989,172.326385,188.872330,952.912304,-1190.403452,0
