1-Time,2-VGERA,3-VGERB,4-VGERC,5-VN,6-IGERAN,7-IGERBN,8-IGERCN,9-IGERAT,10-IGERBT,11-IGERCT,12-IN,13-IFD,14-IFAULT,15-VFAULT,16-Speed (rad/s),17-FAULT 
0.000000,-136.583939,-64.593702,180.817804,6.332358,6.189150,-0.890456,-5.218125,-6.186158,1.193093,4.933279,-0.238030,0.604801,-0.050629,-57.542940,188.571346,0
0.001042,-55.417006,-117.266443,197.547917,6.649038,5.131167,1.629594,-6.397238,-5.179002,-1.442430,6.239009,-0.274560,0.598921,-0.043161,-23.884381,188.495951,0
0.002083,12.388462,-167.559246,164.641667,6.015678,3.288573,3.832158,-6.553955,-3.370533,-3.570153,6.381323,-0.270907,0.589384,-0.031958,7.127638,188.571353,0
0.003125,80.159903,-186.260486,115.337690,5.076948,0.732373,5.649770,-5.654695,-0.779130,-5.458665,5.609270,-0.263601,0.599509,-0.039427,36.612808,188.571377,0
0.004167,129.817370,-189.401521,29.963636,3.493548,-1.742171,6.491109,-3.927071,1.683623,-6.356757,3.954871,-0.219765,0.601992,-0.039427,57.841677,188.571377,0
0.005208,166.941374,-161.820817,-46.903788,2.034558,-3.957545,6.387926,-1.774070,3.951561,-6.394527,1.877089,-0.164970,0.600946,-0.061832,73.834017,188.495890,0
0.006250,183.887070,-85.107077,-104.837500,0.914868,-5.665229,5.233068,1.039383,5.587270,-5.253027,-0.784181,-0.106522,0.588273,-0.024490,83.515377,188.571681,0
0.007292,181.448432,-5.892589,-150.669887,-0.012552,-6.382385,3.633729,3.099099,6.498856,-3.641497,-2.897541,-0.084604,0.580630,-0.065566,81.852807,188.571190,0
0.008333,135.908293,64.961913,-181.397160,-0.566742,-6.048659,1.034307,5.132695,6.131281,-1.186431,-4.783200,-0.037115,0.548817,-0.039427,61.517427,188.571388,0
0.009375,55.047607,117.876273,-197.425569,-0.849492,-4.976475,-1.485744,6.278226,5.080016,1.503649,-6.049794,-0.029809,0.575404,-0.031958,29.510128,188.496053,0
0.010417,-12.746519,168.277804,-164.507008,-0.306612,-3.165833,-3.743868,6.468526,3.234790,3.610388,-6.209897,-0.011544,0.605323,-0.039427,-2.214422,188.646605,0
0.011458,-80.744809,186.072976,-114.956819,0.677358,-0.552828,-5.541637,5.543146,0.654413,5.549260,-5.402266,-0.015197,0.604670,-0.046895,-32.468671,188.497222,0
0.012500,-130.651811,189.467710,-29.078030,2.317308,1.957219,-6.359165,3.834179,-1.812015,6.367616,-3.765656,-0.066339,0.597549,-0.046895,-53.086800,188.570984,0
0.013542,-166.981841,161.862844,47.567803,3.742368,4.098036,-6.232170,1.658790,-4.035844,6.409582,-1.677200,-0.110175,0.597811,-0.024490,-69.972630,188.495629,0
0.014584,-185.027759,84.702110,104.885985,4.828128,5.827022,-5.029689,-1.206902,-5.734041,5.230312,1.016090,-0.164970,0.586967,-0.035692,-78.161070,188.646632,0
0.015625,-181.386816,6.152072,150.779925,5.721618,6.469622,-3.418444,-3.233036,-6.480218,3.639765,3.058294,-0.212459,0.566063,-0.013287,-78.590850,188.495738,0
0.016666,-135.631169,-64.472893,181.827273,6.298428,6.221103,-0.874582,-5.259170,-6.127346,1.176307,4.968858,-0.292825,0.581022,-0.043161,-57.882240,188.571096,0
0.017708,-54.895251,-117.677194,197.153978,6.603798,5.106315,1.712934,-6.382312,-5.156948,-1.446626,6.231893,-0.307437,0.621197,-0.031958,-25.264201,188.495700,0
0.018750,12.989615,-168.308262,164.518561,6.060918,3.253070,3.891687,-6.591269,-3.330100,-3.603727,6.363534,-0.281866,0.607022,-0.050629,6.946678,188.570986,0
0.019792,80.829110,-185.451065,114.943750,5.110878,0.721722,5.645801,-5.636038,-0.771778,-5.488042,5.559460,-0.230724,0.600032,-0.058098,37.766428,188.571107,0
0.020833,130.361810,-189.631058,29.114205,3.459618,-1.795425,6.530795,-3.956922,1.709353,-6.381937,3.940640,-0.234377,0.602971,-0.017021,57.389277,188.571042,0
0.021875,166.464989,-161.265095,-47.667046,2.011938,-3.922042,6.348240,-1.703174,3.929506,-6.348364,1.855742,-0.179582,0.598987,-0.039427,74.716197,188.495740,0
0.022917,184.726415,-84.188928,-104.899053,0.926178,-5.718483,5.217194,1.065502,5.638730,-5.215257,-0.823317,-0.080951,0.591997,-0.046895,83.311797,188.571102,0
0.023958,180.767882,-5.445596,-150.977652,0.010068,-6.339782,3.629760,3.121487,6.414313,-3.675070,-2.890426,-0.069992,0.598007,-0.009553,83.470137,188.495712,0
0.025000,135.465935,65.046479,-181.754167,-0.578052,-6.041558,1.050181,5.110307,6.061441,-1.178038,-4.761853,-0.055380,0.595786,-0.050629,62.501397,188.571080,0
0.026042,54.877469,118.069567,-196.957766,-0.849492,-4.983575,-1.529398,6.211061,5.087368,1.478468,-6.032004,-0.015197,0.551299,-0.076769,29.736328,188.495649,0
0.027083,-13.268274,168.398613,-164.519319,-0.250062,-3.101928,-3.763711,6.461063,3.238465,3.585208,-6.131624,-0.029809,0.572530,-0.046895,-2.632891,188.571172,0
0.028125,-81.073742,185.819277,-114.661364,0.688668,-0.606082,-5.430516,5.517027,0.680143,5.507294,-5.370245,-0.018850,0.601600,-0.046895,-31.959721,188.571170,0
0.029166,-130.787921,189.395224,-28.597917,2.339928,1.911065,-6.335354,3.834179,-1.800988,6.371812,-3.811908,-0.037115,0.598856,-0.054364,-52.713570,188.571120,0
0.030208,-167.106608,161.560821,48.134091,3.742368,4.041232,-6.263919,1.677447,-3.988059,6.409582,-1.680758,-0.102869,0.600032,-0.020755,-69.067830,188.495720,0
0.031250,-184.902991,84.520897,105.439962,4.850748,5.780868,-5.089218,-1.128543,-5.664201,5.268082,0.962722,-0.168623,0.590494,-0.076769,-79.235520,188.571165,0
0.032291,-181.069226,5.717160,151.235417,5.687688,6.473173,-3.450193,-3.188260,-6.450812,3.673339,3.054736,-0.194194,0.580369,-0.054364,-77.143170,188.495709,0
0.033333,-135.529087,-65.040695,181.581061,6.332358,6.192701,-0.918237,-5.210662,-6.134697,1.163716,4.915490,-0.278213,0.577625,-0.054364,-57.147090,188.571098,0
0.034375,-54.498263,-118.148349,197.141667,6.626418,5.092114,1.645469,-6.359924,-5.120190,-1.429840,6.210546,-0.270907,0.586967,-0.046895,-23.409361,188.495852,0
0.035416,13.670165,-168.223696,164.272349,6.038298,3.320526,3.848033,-6.583806,-3.359506,-3.561760,6.345744,-0.300131,0.601012,-0.046895,7.681828,188.571219,0
0.036458,81.294153,-185.753088,114.599053,5.099568,0.711071,5.649770,-5.609919,-0.790157,-5.467058,5.545229,-0.285519,0.606107,-0.017021,37.076518,188.495664,0
0.037500,130.792825,-189.316955,28.646402,3.470928,-1.806076,6.491109,-3.930802,1.635838,-6.323183,3.965545,-0.219765,0.598921,-0.035692,58.226217,188.571152,0
0.038542,166.635127,-161.035558,-48.085606,1.989318,-3.922042,6.368083,-1.751682,3.933182,-6.377740,1.841510,-0.186888,0.595132,-0.031958,73.879257,188.495682,0
0.039583,184.624332,-83.766096,-105.379167,0.880938,-5.704282,5.233068,1.046845,5.616676,-5.248830,-0.791296,-0.128440,0.590756,-0.058098,83.820747,188.571127,0
0.040625,180.472977,-4.950278,-151.359281,-0.001242,-6.357533,3.621823,3.102830,6.451071,-3.666677,-2.883310,-0.077298,0.572661,-0.065566,81.400407,188.495839,0
0.041666,134.774043,65.457230,-182.037311,-0.555432,-6.062860,1.038275,5.140158,6.138632,-1.144465,-4.804547,0.006721,0.570505,-0.031958,61.019787,188.571026,0
0.042708,54.242289,118.552803,-196.883902,-0.860802,-4.990676,-1.505587,6.240912,5.024880,1.482665,-6.042678,-0.044421,0.600162,-0.024490,29.136898,188.495551,0
0.043750,-14.164331,169.026820,-164.125379,-0.250062,-3.091277,-3.767680,6.438675,3.231114,3.627175,-6.170761,-0.000585,0.584550,-0.035692,-2.904331,188.571178,0
0.044792,-81.856374,185.517254,-114.193561,0.733908,-0.563479,-5.525762,5.479713,0.621331,5.498900,-5.370245,-0.033462,0.599640,-0.061832,-32.898451,188.495685,0
0.045833,-131.423101,189.491871,-27.859280,2.339928,1.985621,-6.382977,3.804328,-1.863476,6.355025,-3.726520,-0.080951,0.594479,-0.031958,-53.493960,188.571123,0
0.046875,-166.766333,161.125909,48.725000,3.753678,4.069634,-6.220265,1.595357,-4.061574,6.392796,-1.623832,-0.099216,0.595132,-0.013287,-69.972630,188.495709,0
0.047916,-185.969186,83.264483,105.464584,4.839438,5.837673,-5.033658,-1.184514,-5.723013,5.209328,1.030321,-0.168623,0.587032,-0.069301,-78.477750,188.646639,0
0.048958,-180.400019,5.173519,151.580114,5.755548,6.480273,-3.406539,-3.214379,-6.480218,3.614585,3.100988,-0.208806,0.588208,-0.035692,-78.240240,188.495788,0
0.050000,-134.281412,-65.016533,182.676705,6.321048,6.224653,-0.826959,-5.315140,-6.182482,1.109159,5.018668,-0.252642,0.606826,-0.020755,-57.214950,188.495635,0
0.051042,-53.840398,-118.522857,196.661554,6.660348,5.077913,1.712934,-6.397238,-5.087109,-1.488593,6.206988,-0.278213,0.585530,-0.061832,-24.879661,188.495763,0
0.052083,14.373400,-169.033117,164.124622,6.038298,3.189165,3.935341,-6.580075,-3.234531,-3.628907,6.377765,-0.281866,0.587947,-0.039427,7.715758,188.571194,0
0.053125,82.235580,-184.871182,113.872728,5.043018,0.686219,5.677550,-5.587530,-0.698263,-5.488042,5.555902,-0.234377,0.595067,-0.046895,38.297998,188.495772,0
0.054166,131.382635,-189.739786,27.710796,3.459618,-1.816727,6.487141,-3.893488,1.764490,-6.365150,3.908619,-0.245336,0.601142,-0.043161,57.807747,188.571174,0
0.055208,166.147399,-160.552322,-48.725758,1.978008,-3.964645,6.320460,-1.718100,3.988318,-6.377740,1.802374,-0.172276,0.599770,-0.061832,74.738817,188.495774,0
0.056250,185.724555,-82.570087,-105.366856,0.914868,-5.711382,5.189414,1.087890,5.646082,-5.223650,-0.866011,-0.132093,0.589514,-0.043161,83.639787,188.495761,0
0.057292,179.815112,-4.442881,-151.642425,-0.023862,-6.350432,3.617855,3.121487,6.421665,-3.612120,-2.886868,-0.080951,0.592062,-0.039427,83.085597,188.495841,0
0.058333,133.923355,65.469311,-182.702084,-0.578052,-6.041558,0.962872,5.170009,6.120253,-1.136071,-4.847242,-0.033462,0.566389,-0.031958,61.834107,188.571277,0
0.059375,53.720534,118.939392,-196.366857,-0.860802,-4.955173,-1.525430,6.252106,5.043259,1.478468,-6.007100,-0.000585,0.585922,-0.039427,29.249998,188.495700,0
0.060416,-14.754141,169.340924,-164.113069,-0.295302,-3.069975,-3.795460,6.446138,3.168626,3.656552,-6.163645,0.003068,0.605715,-0.035692,-3.458521,188.495756,0
0.061458,-82.525582,185.239393,-113.528788,0.688668,-0.563479,-5.505919,5.494638,0.632359,5.532474,-5.366687,-0.000585,0.593630,-0.031958,-32.491291,188.495682,0
0.062500,-131.661294,189.540195,-27.157576,2.339928,1.978520,-6.402819,3.781939,-1.859800,6.409582,-3.687383,-0.048074,0.597419,-0.035692,-53.041560,188.571000,0
0.063541,-166.777675,160.715158,49.340530,3.798918,4.083835,-6.180579,1.554312,-4.072602,6.367616,-1.648737,-0.117481,0.594087,-0.054364,-69.147000,188.495664,0
0.064583,-186.014556,82.636276,105.883144,4.862058,5.830572,-5.073344,-1.218096,-5.734041,5.226115,1.044553,-0.135746,0.587163,-0.039427,-79.620060,188.495718,0
0.065625,-180.093771,4.871496,151.986364,5.721618,6.519326,-3.422413,-3.247961,-6.502272,3.593602,3.076083,-0.197847,0.590102,-0.061832,-76.747320,188.495772,0
0.066667,-133.997849,-65.415203,182.738258,6.377598,6.153648,-0.811085,-5.303946,-6.035452,1.130143,4.997320,-0.267254,0.522687,-0.073035,-56.570280,188.495743,0
0.067708,-53.602206,-118.836961,196.550758,6.649038,5.081464,1.724840,-6.352461,-5.112839,-1.476003,6.214104,-0.289172,0.574163,-0.031958,-22.979581,188.495613,0
0.068750,15.144690,-169.178088,163.989205,6.038298,3.199816,3.959153,-6.591269,-3.271288,-3.624710,6.388439,-0.270907,0.615710,-0.035692,8.405668,188.495711,0
0.069791,82.655253,-185.161124,113.466478,5.054328,0.703970,5.657707,-5.587530,-0.712966,-5.488042,5.523882,-0.267254,0.605780,-0.050629,37.608088,188.495676,0
0.070833,131.870363,-189.570654,27.046023,3.436998,-1.827378,6.518889,-3.927071,1.771841,-6.369347,3.919293,-0.197847,0.597157,-0.028224,58.622067,188.495781,0
0.071875,166.385592,-160.298623,-49.353599,1.989318,-3.978847,6.352209,-1.680786,3.991994,-6.352560,1.823721,-0.161317,0.596962,-0.058098,73.901877,188.495812,0
0.072916,185.974090,-81.772747,-105.883902,0.869628,-5.746885,5.205288,1.061771,5.679163,-5.198470,-0.866011,-0.091910,0.596308,-0.046895,84.420177,188.495749,0
0.073958,179.531550,-3.983806,-152.245644,-0.012552,-6.371734,3.574200,3.114024,6.454747,-3.620513,-2.897541,-0.080951,0.596896,-0.058098,80.914077,188.495707,0
0.075000,133.276833,65.855900,-183.243751,-0.611982,-6.048659,0.950966,5.188666,6.157011,-1.102498,-4.854357,-0.022503,0.564038,-0.065566,60.454287,188.495763,0
0.076041,53.164752,119.495114,-196.354546,-0.826872,-4.923221,-1.596864,6.270763,5.028556,1.520435,-6.032004,-0.011544,0.579520,-0.050629,28.661878,188.495676,0
0.077083,-15.650199,169.944969,-163.916099,-0.306612,-3.045123,-3.851020,6.479720,3.142896,3.694322,-6.181434,0.014027,0.592977,-0.039427,-3.752581,188.571073,0
0.078125,-83.251502,185.034018,-112.950190,0.733908,-0.481822,-5.561480,5.490907,0.562519,5.553457,-5.338224,-0.044421,0.607087,-0.058098,-33.441331,188.495655,0
0.079166,-132.511981,189.866380,-26.394318,2.351238,2.038875,-6.410757,3.774477,-1.903909,6.413779,-3.712288,-0.051727,0.595394,-0.046895,-54.048150,188.495834,0
0.080208,-166.630223,160.147356,49.919129,3.810228,4.126439,-6.204390,1.520729,-4.094656,6.321452,-1.577580,-0.106522,0.595328,-0.069301,-69.995250,188.495770,0
0.081250,-187.386999,81.331538,105.846212,4.850748,5.905128,-5.025721,-1.303918,-5.774474,5.200935,1.105036,-0.143052,0.589645,-0.065566,-79.009320,188.420376,0
0.082292,-179.345166,4.484908,152.392614,5.732928,6.480273,-3.358916,-3.292738,-6.528003,3.593602,3.140124,-0.186888,0.596308,-0.031958,-77.889630,188.495712,0
0.083333,-132.897627,-65.366879,183.907766,6.332358,6.206902,-0.743619,-5.367380,-6.193509,1.062996,5.075593,-0.241683,0.608197,-0.054364,-56.536350,188.495720,0
0.084375,-53.001053,-119.296035,196.058334,6.592488,5.021109,1.776432,-6.386044,-5.054027,-1.543150,6.224778,-0.289172,0.558485,-0.031958,-24.551671,188.495655,0
0.085416,15.802555,-169.975427,164.075379,5.993058,3.171414,3.998839,-6.602463,-3.146313,-3.738021,6.420459,-0.300131,0.550777,-0.031958,8.484838,188.345091,0
0.086458,83.505940,-184.375865,112.826326,5.020398,0.593912,5.717236,-5.617381,-0.683560,-5.559385,5.477630,-0.263601,0.599509,-0.035692,38.750398,188.495801,0
0.087500,132.437488,-190.102213,26.307386,3.391758,-1.909034,6.574450,-3.856175,1.849032,-6.419707,3.880157,-0.216112,0.602449,-0.069301,58.271457,188.420367,0
0.088541,166.011289,-159.658335,-49.981440,1.966698,-4.000148,6.332366,-1.650935,3.955237,-6.365150,1.756122,-0.205153,0.601730,-0.054364,74.874537,188.495671,0
0.089583,187.199080,-80.649223,-105.883902,0.892248,-5.753986,5.165602,1.140130,5.708569,-5.206863,-0.930052,-0.139399,0.592585,-0.031958,84.160047,188.420271,0
0.090625,178.771602,-3.887159,-152.541099,-0.001242,-6.396586,3.522609,3.147607,6.447395,-3.607923,-2.922446,-0.051727,0.600554,-0.024490,82.757607,188.495750,0
0.091666,132.505543,65.952547,-183.920834,-0.611982,-6.098363,0.958904,5.222248,6.083496,-1.085711,-4.854357,-0.029809,0.592258,-0.065566,61.359087,188.420292,0
0.092708,52.677024,119.881703,-195.714395,-0.883422,-4.916120,-1.584959,6.255838,4.988122,1.549812,-6.032004,0.006721,0.609112,-0.024490,28.695808,188.495631,0
0.093750,-16.240009,170.102021,-163.879167,-0.227442,-3.013171,-3.823240,6.472257,3.161275,3.740486,-6.149413,-0.011544,0.577625,-0.020755,-4.227601,188.420305,0
0.094791,-83.841312,184.599105,-112.457765,0.779148,-0.524426,-5.525762,5.472250,0.555168,5.524080,-5.341782,-0.015197,0.609700,-0.061832,-32.977621,188.495501,0
0.095833,-132.829572,189.805975,-25.631061,2.362548,2.006923,-6.390914,3.793134,-1.911261,6.392796,-3.747867,-0.066339,0.600162,-0.039427,-53.448720,188.420280,0
0.096875,-166.437400,159.990304,50.386932,3.810228,4.101587,-6.220265,1.516998,-4.105683,6.384402,-1.606043,-0.084604,0.602188,-0.031958,-69.214860,188.496666,0
0.097916,-187.398341,80.824140,106.338637,4.828128,5.919329,-5.041595,-1.277798,-5.774474,5.226115,1.108594,-0.161317,0.591474,-0.024490,-80.027220,188.420401,0
0.098959,-179.072946,3.808377,152.848107,5.755548,6.512226,-3.390664,-3.289007,-6.505948,3.610388,3.111662,-0.190541,0.594479,-0.043161,-76.283610,188.495629,0
0.100000,-132.670777,-65.862197,183.846213,6.366288,6.206902,-0.807116,-5.333797,-6.164103,1.062996,5.054246,-0.245336,0.580369,-0.087972,-56.095260,188.495667,0
0.101041,-52.558696,-119.706786,195.996781,6.581178,5.067262,1.744683,-6.363655,-5.123866,-1.505380,6.228335,-0.307437,0.617604,-0.031958,-22.538491,188.495758,0
0.102083,16.732640,-170.059994,163.755304,6.015678,3.182065,3.955184,-6.591269,-3.245558,-3.708644,6.391996,-0.256295,0.599575,-0.054364,9.072958,188.420403,0
0.103125,84.095750,-184.665807,112.333902,5.031708,0.636515,5.689455,-5.568874,-0.650478,-5.546795,5.530997,-0.259948,0.603690,-0.017021,38.218828,188.495698,0
0.104166,132.755078,-189.884757,25.741099,3.414378,-1.898383,6.614136,-3.900951,1.815950,-6.390331,3.873041,-0.212459,0.599183,-0.054364,58.950057,188.420294,0
0.105208,166.238139,-159.452960,-50.461553,1.966698,-3.961095,6.324429,-1.647204,3.995670,-6.339970,1.759680,-0.172276,0.600489,-0.061832,73.958427,188.495689,0
0.106250,187.267135,-79.779398,-106.437879,0.858318,-5.775287,5.209257,1.132667,5.708569,-5.181683,-0.962073,-0.106522,0.582851,-0.054364,84.951747,188.420215,0
0.107291,178.397300,-3.391842,-152.984281,-0.035172,-6.389485,3.506734,3.181189,6.440044,-3.607923,-2.954467,-0.066339,0.601992,-0.065566,80.382507,188.495698,0
0.108333,131.847678,66.302893,-184.314773,-0.645912,-6.084162,0.923186,5.222248,6.123929,-1.022760,-4.907725,-0.048074,0.579716,-0.069301,60.001887,188.495356,0
0.109375,52.064529,120.304534,-195.714395,-0.860802,-4.887718,-1.608770,6.274495,4.995474,1.541419,-6.113835,0.024986,0.609896,-0.058098,28.266028,188.495694,0
0.110416,-17.306204,170.766470,-163.743751,-0.272682,-3.013171,-3.835146,6.487183,3.087760,3.765666,-6.241917,-0.011544,0.625378,-0.024490,-4.668691,188.420245,0
0.111458,-84.578574,184.574944,-111.916099,0.733908,-0.453420,-5.585291,5.475981,0.533113,5.620604,-5.309762,-0.015197,0.606499,-0.035692,-33.995521,188.495734,0
0.112500,-133.793684,190.023431,-24.793939,2.419098,2.067277,-6.446474,3.752089,-1.973748,6.472533,-3.694499,-0.051727,0.597288,-0.043161,-54.579720,188.495615,0
0.113541,-166.323975,159.301692,50.953220,3.787608,4.186793,-6.200422,1.468490,-4.135089,6.359222,-1.531328,-0.113828,0.598333,-0.054364,-69.950010,188.495595,0
0.114583,-188.555276,79.422755,106.350947,4.862058,5.997435,-5.025721,-1.341231,-5.814907,5.150575,1.183309,-0.161317,0.591213,-0.028224,-79.495650,188.344941,0
0.115625,-178.244943,3.566759,153.377463,5.800788,6.533527,-3.319230,-3.393485,-6.524327,3.568421,3.193492,-0.205153,0.601665,-0.069301,-77.527710,188.495794,0
0.116666,-131.536526,-65.946763,184.929546,6.354978,6.217553,-0.723776,-5.412156,-6.156752,0.979062,5.104056,-0.248989,0.585203,-0.076769,-55.959540,188.420329,0
0.117708,-52.139023,-120.177941,195.418182,6.626418,5.042410,1.804212,-6.371118,-5.031972,-1.576724,6.242567,-0.274560,0.588012,-0.031958,-24.178441,188.495682,0
0.118750,17.481245,-170.809010,163.841478,6.072228,3.114609,4.070273,-6.613657,-3.197773,-3.809364,6.416901,-0.274560,0.612378,-0.035692,9.434878,188.344690,0
0.119791,84.923753,-184.001357,111.607576,5.065638,0.579711,5.745016,-5.546485,-0.587991,-5.588762,5.523882,-0.252642,0.599901,-0.046895,39.225418,188.495655,0
0.120833,133.254148,-190.452560,25.002462,3.380448,-1.994241,6.590324,-3.859906,1.893141,-6.453281,3.883714,-0.241683,0.602318,-0.087972,58.746477,188.420278,0
0.121875,165.829809,-158.619377,-51.150947,1.955388,-3.996598,6.328397,-1.594965,4.028752,-6.344167,1.724101,-0.154011,0.602514,-0.035692,74.953707,188.495694,0
0.122916,188.356015,-78.861249,-106.339394,0.880938,-5.832092,5.169571,1.229682,5.774733,-5.198470,-0.951399,-0.095563,0.593565,-0.043161,84.578517,188.420318,0
0.123958,177.739435,-2.884444,-153.304357,-0.035172,-6.393036,3.510703,3.177458,6.454747,-3.582743,-3.004277,-0.091910,0.600424,-0.031958,82.316517,188.495674,0
0.125000,131.257868,66.387460,-184.991857,-0.623292,-6.080611,0.875563,5.293144,6.134956,-1.014367,-4.907725,-0.033462,0.586314,-0.054364,60.929307,188.420405,0
0.126041,51.860364,120.642800,-195.221970,-0.838182,-4.884167,-1.632582,6.296883,5.024880,1.558206,-6.074699,-0.018850,0.578736,-0.043161,28.277338,188.495807,0
0.127083,-17.793931,170.971846,-163.780682,-0.250062,-2.988319,-3.922455,6.513302,3.120841,3.824420,-6.209897,-0.007891,0.601077,-0.035692,-5.053231,188.420339,0
