1-Time,2-VGERA,3-VGERB,4-VGERC,5-VN,6-IGERAN,7-IGERBN,8-IGERCN,9-IGERAT,10-IGERBT,11-IGERCT,12-IN,13-IFD,14-IFAULT,15-VFAULT,16-Speed (rad/s),17-Active Power,18-Reactive Power,19-FAULT 
0.000000,79.286530,70.096297,-204.553410,-0.962592,-0.254605,-5.323365,5.005829,0.643386,5.251295,-4.904167,-0.073645,0.329260,-0.061832,17.363188,188.591019,1492.178071,-893.401275,0
0.001042,24.944610,149.347027,-177.014584,-0.431022,2.262543,-6.398851,3.513281,-1.867152,6.405386,-3.491702,-0.033462,0.324687,-0.024490,4.119178,188.520546,1491.442504,-893.950397,0
0.002083,-24.474664,190.627476,-120.078031,0.609498,4.151291,-5.827375,1.080428,-3.745460,5.922766,-1.232469,-0.099216,0.318220,-0.046895,-15.039961,188.593340,1491.254745,-893.682000,0
0.003125,-92.461612,201.548614,-58.758902,1.774428,5.983234,-4.783637,-1.587502,-5.579659,4.919757,1.414569,-0.161317,0.301627,-0.009553,-40.114231,188.515513,1490.212814,-893.580276,0
0.004167,-153.609032,156.595570,-5.343182,2.792328,6.483823,-2.894591,-3.759159,-6.167779,3.115179,3.495909,-0.212459,0.308421,-0.043161,-54.455310,188.719521,1490.667076,-893.127359,0
0.005208,-204.230612,92.276837,46.435227,3.742368,6.057790,-0.505504,-5.449470,-5.678904,0.760834,5.210791,-0.248989,0.316652,-0.061832,-64.408110,188.569009,1490.071268,-893.032261,0
0.006250,-181.500241,39.519529,119.781819,5.122188,4.729986,1.915332,-6.311416,-4.462231,-1.635478,6.011307,-0.252642,0.322401,-0.031958,-47.940751,188.496595,1489.283421,-892.534382,0
0.007292,-134.916592,-10.857841,186.172917,6.411528,3.096858,3.840095,-6.397238,-2.859604,-3.700250,6.239009,-0.245336,0.335139,-0.020755,-27.955981,188.496579,1488.798298,-892.224610,0
0.008334,-79.304312,-69.885138,204.614205,6.728208,0.324091,5.447372,-5.109915,-0.139549,-5.278207,4.947511,-0.278213,0.331154,-0.039427,-12.370801,188.726428,1488.174038,-891.874773,0
0.009376,-24.848967,-149.474133,176.878410,6.241878,-2.168205,6.510952,-3.665875,2.426125,-6.411314,3.627549,-0.227071,0.313974,-0.050629,1.020238,188.506462,1487.974733,-892.005507,0
0.010417,24.513595,-190.609611,119.892614,5.212668,-4.021450,5.935508,-1.173320,4.286054,-5.928694,1.311391,-0.150358,0.319722,-0.065566,19.636498,188.499391,1486.788324,-891.493859,0
0.011459,92.500543,-201.337454,58.684280,4.025118,-5.920849,4.927487,1.468490,6.186417,-4.946668,-1.335647,-0.117481,0.301823,-0.031958,46.000107,188.491319,1486.632127,-892.126214,0
0.012501,153.398429,-155.780365,5.465530,2.995908,-6.393036,3.062253,3.599102,6.767186,-3.095927,-3.409871,-0.055380,0.307245,-0.050629,59.323287,188.723377,1486.603262,-891.962936,0
0.013543,204.020008,-91.280419,-46.435985,1.989318,-5.935050,0.609668,5.311801,6.329771,-0.712205,-5.089175,-0.026156,0.315541,-0.020755,69.841587,188.569284,1486.899048,-892.215257,0
0.014584,180.688485,-38.498949,-120.176516,0.632118,-4.589494,-1.795294,6.162554,5.065313,1.642139,-5.921711,-0.015197,0.323315,-0.069301,54.245097,188.565834,1486.884347,-891.217066,0
0.015626,134.240945,11.673045,-186.592235,-0.634602,-2.984769,-3.724025,6.263300,3.352414,3.702716,-6.131624,-0.004238,0.337229,-0.069301,32.145358,188.568048,1486.739825,-891.533786,0
0.016667,78.197650,70.712423,-204.627273,-0.973902,-0.194250,-5.355113,4.964784,0.650737,5.305852,-4.900609,-0.029809,0.323707,-0.058098,17.736418,188.640292,1487.255025,-891.469722,0
0.017709,23.923785,149.600726,-176.928410,-0.476262,2.230590,-6.438537,3.509549,-1.863476,6.480926,-3.555743,-0.033462,0.316979,-0.031958,3.666778,188.569275,1488.860475,-891.257863,0
0.018750,-24.882994,191.364412,-119.154735,0.609498,4.236497,-5.855155,1.058039,-3.804272,5.952143,-1.239585,-0.117481,0.317566,-0.043161,-15.367951,188.489895,1489.718104,-891.535614,0
0.019792,-92.892627,201.584856,-58.032576,1.763118,6.029388,-4.811417,-1.650935,-5.656850,4.919757,1.428800,-0.164970,0.300974,-0.017021,-40.679731,188.499925,1490.384401,-892.050685,0
0.020833,-154.017362,155.339156,-5.121591,2.792328,6.526427,-2.922371,-3.844981,-6.219240,3.098392,3.567066,-0.219765,0.305677,-0.039427,-55.823820,188.570705,1490.665027,-892.778099,0
0.021875,-204.582230,91.008342,46.644508,3.787608,6.054240,-0.461849,-5.512903,-5.800204,0.689490,5.260601,-0.285519,0.313386,-0.069301,-64.340250,188.510210,1491.867724,-893.700723,0
0.022917,-180.536129,38.226872,120.483523,5.178738,4.733536,1.951050,-6.389775,-4.502664,-1.732002,6.086022,-0.303784,0.321617,-0.076769,-49.241400,188.514729,1492.735089,-894.507915,0
0.023958,-134.133959,-11.824313,186.616099,6.434148,3.096858,3.919467,-6.490522,-2.889010,-3.742217,6.278145,-0.285519,0.339516,-0.058098,-28.204801,188.514586,1493.745374,-894.430045,0
0.025000,-77.897842,-70.465021,204.417235,6.739518,0.324091,5.570398,-5.154691,-0.121170,-5.336961,5.015110,-0.278213,0.329325,-0.031958,-11.793991,188.512268,1494.860791,-894.485393,0
0.026042,-23.555922,-149.401648,176.976894,6.230568,-2.168205,6.546670,-3.621098,2.422449,-6.474264,3.609760,-0.252642,0.322139,-0.035692,0.861898,188.513708,1495.408400,-894.503223,0
0.027083,24.955953,-191.225737,118.809281,5.156118,-4.124408,5.971225,-1.191977,4.377948,-5.979055,1.286486,-0.146705,0.315411,-0.043161,19.794838,188.508961,1496.273103,-895.380567,0
0.028125,92.693366,-201.373697,57.970265,4.047738,-5.938600,4.899707,1.513267,6.215823,-4.950865,-1.356994,-0.102869,0.300059,-0.050629,44.789937,188.641614,1496.553673,-895.574209,0
0.029167,153.806759,-154.717245,5.022348,2.995908,-6.417888,3.010661,3.647610,6.792916,-3.083337,-3.452566,-0.073645,0.305416,-0.031958,60.103677,188.571446,1496.723663,-895.782552,0
0.030209,204.201488,-90.229380,-46.731440,2.023248,-5.949251,0.589825,5.319264,6.318744,-0.682828,-5.135427,-0.026156,0.312863,-0.058098,69.558837,188.569109,1496.709080,-896.088055,0
0.031251,180.166730,-37.242535,-120.533523,0.643428,-4.621447,-1.823074,6.184942,5.046934,1.700893,-5.964405,0.010374,0.303064,-0.043161,52.887897,188.488047,1496.788874,-896.512282,0
0.032292,133.537710,12.422061,-186.961554,-0.611982,-2.998970,-3.755774,6.267032,3.385495,3.740486,-6.156529,-0.022503,0.302868,-0.039427,30.765538,188.492575,1497.610155,-896.383434,0
0.033335,76.915948,71.183579,-204.331819,-0.939972,-0.204901,-5.382893,4.968515,0.613980,5.280672,-4.875704,-0.026156,0.320637,-0.046895,16.582798,188.569438,1496.985304,-895.807769,0
0.034376,22.800878,149.890668,-176.706819,-0.419712,2.255442,-6.406788,3.528206,-1.900233,6.468336,-3.513049,-0.080951,0.310315,-0.031958,3.644158,188.507343,1496.550816,-895.796104,0
0.035418,-25.393407,191.497302,-118.465341,0.654738,4.193894,-5.839281,1.024457,-3.818975,5.910176,-1.179102,-0.110175,0.344088,-0.017021,-15.345331,188.500296,1495.749132,-895.921098,0
0.036460,-93.289615,201.512371,-57.380114,1.797048,6.057790,-4.787606,-1.636010,-5.660526,4.957527,1.467936,-0.179582,0.302607,-0.061832,-40.091611,188.487904,1496.198501,-895.979935,0
0.037501,-154.028705,154.795515,-4.432197,2.814948,6.544178,-2.910466,-3.815130,-6.189834,3.173932,3.538603,-0.241683,0.305024,-0.039427,-55.032120,188.643566,1496.724963,-894.629246,0
0.038542,-204.752367,90.126436,47.001515,3.798918,6.100393,-0.481692,-5.509172,-5.774474,0.660113,5.239254,-0.281866,0.311818,-0.013287,-64.147980,188.567583,1496.278843,-894.225575,0
0.039584,-180.275251,37.260400,120.618940,5.190048,4.751288,1.931207,-6.344998,-4.517367,-1.748788,6.057559,-0.296478,0.321029,-0.054364,-47.386561,188.492121,1496.230485,-893.691041,0
0.040625,-133.385354,-12.186740,186.985417,6.411528,3.114609,3.863907,-6.427089,-2.874307,-3.738021,6.285261,-0.303784,0.323315,-0.024490,-27.548821,188.550811,1496.259478,-893.419527,0
0.041667,-77.081182,-70.851610,204.404925,6.705588,0.320540,5.502932,-5.188274,-0.084413,-5.328567,4.997320,-0.230724,0.301823,-0.054364,-11.929711,188.701328,1495.892435,-893.279658,0
0.042708,-22.795974,-149.921127,176.693751,6.230568,-2.157554,6.582387,-3.680800,2.451855,-6.482658,3.656012,-0.212459,0.325471,-0.039427,1.291678,188.549515,1496.662117,-893.055938,0
0.043750,25.466365,-191.394870,118.390720,5.190048,-4.081805,5.963288,-1.236753,4.348542,-5.941284,1.311391,-0.161317,0.331285,-0.087972,19.941868,188.484814,1496.539403,-892.121720,0
0.044792,93.317203,-201.277050,57.477841,4.025118,-5.917298,4.939393,1.449833,6.237877,-4.938275,-1.349878,-0.088257,0.305612,-0.028224,46.214997,188.553353,1496.810519,-891.941961,0
0.045833,153.988239,-154.403142,4.665341,3.052458,-6.446290,3.054316,3.677461,6.814970,-3.112713,-3.445450,-0.066339,0.311295,-0.031958,59.730447,188.711800,1497.407830,-891.589659,0
0.046875,204.564448,-89.915276,-46.965341,2.068488,-5.984754,0.633480,5.304338,6.348150,-0.682828,-5.149658,-0.051727,0.315541,-0.046895,69.898137,188.494770,1497.997677,-891.669387,0
0.047917,179.815112,-37.097564,-121.185985,0.632118,-4.699553,-1.815137,6.222255,5.054286,1.705090,-6.007100,-0.022503,0.317632,-0.065566,53.962347,188.495209,1498.572019,-891.858017,0
0.048958,133.333545,12.518709,-187.343182,-0.634602,-3.038023,-3.767680,6.319271,3.407550,3.690126,-6.213455,-0.051727,0.312145,-0.069301,32.066188,188.492587,1499.438446,-891.322914,0
0.050001,76.666413,71.739300,-204.294887,-0.973902,-0.197800,-5.458296,5.043143,0.628683,5.318442,-4.971766,-0.044421,0.295356,-0.050629,17.804278,188.721215,1501.039679,-891.354059,0
0.051046,22.369863,150.494713,-176.559091,-0.431022,2.269643,-6.490128,3.509549,-1.929639,6.480926,-3.569975,-0.051727,0.316783,-0.043161,3.519748,188.495448,1501.983176,-891.278196,0
0.052085,-25.586229,192.197994,-117.726705,0.666048,4.286201,-5.946432,1.065502,-3.852057,6.006700,-1.214680,-0.124787,0.320114,-0.046895,-15.684631,188.495593,1503.710510,-891.362316,0
0.053126,-93.981507,201.174106,-57.417046,1.842288,6.089743,-4.815386,-1.662129,-5.723013,5.012084,1.432358,-0.205153,0.307572,-0.039427,-41.064271,188.495772,1505.060367,-891.267998,0
0.054168,-155.333092,153.804881,-4.678409,2.826258,6.632935,-2.922371,-3.882294,-6.259673,3.123572,3.609760,-0.190541,0.309532,-0.043161,-56.400630,188.571044,1505.506573,-892.507691,0
0.055209,-205.081300,90.633834,47.543182,3.821538,6.132346,-0.485661,-5.535291,-5.855340,0.710474,5.292622,-0.270907,0.317044,-0.046895,-64.283700,188.518228,1507.320758,-892.884117,0
0.056251,-179.787524,38.021497,121.825379,5.190048,4.790341,1.998673,-6.438283,-4.535746,-1.765575,6.171410,-0.259948,0.321747,-0.054364,-48.868170,188.515283,1508.640616,-894.042669,0
0.057293,-133.827712,-12.150497,187.576326,6.456768,3.139461,3.943279,-6.516642,-2.881659,-3.775791,6.317282,-0.252642,0.329978,-0.080503,-28.374451,188.517583,1509.410069,-894.792182,0
0.058334,-77.591594,-71.600626,204.146402,6.739518,0.320540,5.578335,-5.199468,-0.084413,-5.399911,5.079151,-0.227071,0.313908,-0.054364,-12.065431,188.436944,1510.971246,-895.518972,0
0.059375,-23.249674,-150.029855,176.669129,6.264498,-2.154004,6.598261,-3.684532,2.466558,-6.516231,3.641781,-0.256295,0.309727,-0.069301,0.782728,188.518787,1511.078855,-896.141666,0
0.060428,26.056175,-193.049954,116.605682,5.122188,-4.216715,6.050597,-1.117349,4.436760,-5.987448,1.272255,-0.197847,0.316587,-0.084238,20.597848,188.514498,1512.160066,-896.868483,0
0.061471,95.324826,-200.056878,56.874621,3.991188,-6.016706,4.895739,1.572968,6.315068,-4.980242,-1.371225,-0.132093,0.305285,-0.054364,45.366747,188.506516,1513.464138,-896.842837,0
0.062504,155.451421,-153.291699,4.751515,3.007218,-6.510195,3.030504,3.699849,6.781889,-3.142090,-3.449008,-0.062686,0.310903,-0.043161,61.166817,188.505678,1513.797697,-896.128160,0
0.063543,204.632503,-90.664292,-47.507008,2.023248,-6.006055,0.550139,5.371503,6.366529,-0.687025,-5.181679,-0.051727,0.318154,-0.039427,69.366567,188.563662,1514.413370,-896.652759,0
0.064584,179.599605,-38.124441,-122.010796,0.575568,-4.624997,-1.854822,6.244644,5.043259,1.751253,-5.950174,-0.011544,0.325144,-0.054364,52.684317,188.495526,1513.834010,-896.994776,0
0.065626,133.821273,12.216686,-187.798675,-0.691152,-2.998970,-3.799428,6.296883,3.378144,3.753076,-6.224128,-0.018850,0.337687,-0.061832,30.799468,188.570723,1513.970623,-898.270522,0
0.066668,77.755293,72.113808,-204.024054,-0.962592,-0.197800,-5.450359,5.028217,0.606628,5.385589,-4.932630,-0.029809,0.330436,-0.043161,16.876858,188.493288,1513.844817,-899.461859,0
0.067710,23.368003,150.615522,-176.596023,-0.476262,2.283844,-6.478223,3.494624,-1.955370,6.510303,-3.552185,-0.055380,0.331023,-0.046895,3.813808,188.572401,1513.802742,-900.425274,0
0.068750,-25.540859,192.173832,-117.849811,0.620808,4.254249,-5.855155,1.046845,-3.844705,5.952143,-1.182659,-0.124787,0.318677,-0.043161,-15.695941,188.485623,1512.892991,-900.506573,0
0.069792,-94.662057,200.968730,-57.527841,1.774428,6.068441,-4.787606,-1.665861,-5.711986,4.928150,1.496399,-0.183235,0.306331,-0.065566,-40.351741,188.498235,1511.741865,-901.098762,0
0.070834,-155.537258,153.853205,-4.592235,2.769708,6.625835,-2.898560,-3.904683,-6.296430,3.110982,3.613318,-0.241683,0.311426,-0.046895,-55.789890,188.489719,1512.083649,-901.411810,0
0.071876,-205.240095,90.633834,47.887879,3.787608,6.082642,-0.418195,-5.565142,-5.803880,0.655917,5.278390,-0.241683,0.317175,-0.046895,-63.887850,188.564226,1511.238706,-901.619641,0
0.072917,-179.878264,37.924850,122.170076,5.167428,4.747737,1.998673,-6.415895,-4.498989,-1.732002,6.135831,-0.278213,0.326908,-0.061832,-47.205601,188.502623,1510.811700,-901.009928,0
0.073958,-133.668917,-12.162578,187.957955,6.468078,3.153662,3.903593,-6.456940,-2.877983,-3.742217,6.271030,-0.292825,0.338536,-0.050629,-27.537511,188.638407,1510.346863,-900.407509,0
0.075000,-77.705019,-71.866406,203.949432,6.807378,0.295688,5.554524,-5.184542,-0.099116,-5.370534,5.011552,-0.241683,0.331023,-0.069301,-11.963641,188.558631,1509.499467,-899.917303,0
0.076041,-23.351757,-150.513091,176.496781,6.230568,-2.193057,6.578418,-3.688263,2.459206,-6.520428,3.641781,-0.208806,0.318220,-0.024490,1.201198,188.564764,1509.689097,-899.824521,0
0.077083,25.647845,-191.962673,117.701326,5.156118,-4.138609,5.971225,-1.188245,4.388975,-6.000038,1.286486,-0.175929,0.322727,-0.065566,20.100208,188.499775,1509.375829,-899.650504,0
0.078125,94.542193,-200.721328,57.502462,4.025118,-6.006055,4.923519,1.516998,6.267283,-4.959258,-1.389014,-0.135746,0.304044,-0.061832,46.350717,188.640725,1508.602945,-899.983139,0
0.079166,155.281284,-153.207132,4.702273,2.995908,-6.492444,3.050347,3.711043,6.825998,-3.083337,-3.509491,-0.051727,0.309205,-0.065566,60.228087,188.501979,1508.363170,-901.252733,0
0.080209,204.916066,-89.794467,-47.740909,1.955388,-5.998955,0.542202,5.375234,6.384907,-0.653452,-5.195911,-0.037115,0.317305,-0.039427,69.739797,188.569701,1508.542434,-901.395182,0
0.081250,179.168590,-37.000917,-122.281629,0.598188,-4.674701,-1.922288,6.304346,5.028556,1.759647,-6.028447,0.003068,0.323707,-0.050629,53.419467,188.500065,1509.092069,-901.622399,0
0.082291,133.208778,12.905298,-188.069508,-0.645912,-2.967017,-3.851020,6.289420,3.345062,3.774059,-6.217013,-0.018850,0.338405,-0.046895,31.647718,188.512422,1508.908604,-901.636761,0
0.083333,76.473590,72.548721,-204.060985,-0.962592,-0.112594,-5.497982,5.035680,0.558844,5.431753,-4.946861,-0.044421,0.320702,-0.009553,17.329258,188.520061,1509.194659,-901.963474,0
0.084375,22.267780,150.470552,-176.472917,-0.487572,2.351300,-6.462348,3.468504,-1.962721,6.569057,-3.516607,-0.059033,0.321747,-0.039427,3.406648,188.581214,1509.398933,-902.153149,0
0.085416,-25.960532,192.959091,-116.938826,0.643428,4.332355,-5.914684,0.994606,-3.903517,5.989913,-1.154197,-0.124787,0.323642,-0.065566,-15.797731,188.508263,1510.090074,-902.746638,0
0.086458,-94.900250,200.799598,-56.998485,1.774428,6.125245,-4.819354,-1.729294,-5.745068,4.991100,1.492841,-0.175929,0.303391,-0.054364,-41.143441,188.511185,1511.127155,-902.621250,0
0.087500,-156.229150,152.669276,-4.518371,2.814948,6.640036,-2.882686,-3.964384,-6.307458,3.052228,3.666686,-0.245336,0.307180,-0.076769,-56.785170,188.509852,1510.714051,-903.205781,0
0.088541,-205.330835,89.510310,48.023296,3.810228,6.111044,-0.398352,-5.587530,-5.866368,0.706277,5.331758,-0.278213,0.315149,-0.050629,-64.283700,188.438670,1512.025488,-902.968095,0
0.089583,-179.197714,36.704679,122.810228,5.212668,4.793891,2.026453,-6.497985,-4.487961,-1.828525,6.153621,-0.300131,0.321225,-0.043161,-48.449700,188.508983,1511.941677,-903.532324,0
0.090626,-132.977024,-13.237779,188.179546,6.490698,3.086207,3.915499,-6.512910,-2.855928,-3.788381,6.356418,-0.300131,0.330044,-0.043161,-27.763711,188.638733,1512.963174,-904.028737,0
0.091667,-75.924247,-72.639584,203.900190,6.773448,0.206932,5.673581,-5.199468,-0.029276,-5.441878,5.004436,-0.256295,0.319200,-0.050629,-11.364211,188.490478,1513.099977,-904.527464,0
0.092709,-21.684409,-150.356039,176.324432,6.264498,-2.235660,6.618104,-3.665875,2.547424,-6.533018,3.577740,-0.219765,0.297446,-0.043161,1.201198,188.569987,1512.499418,-905.188698,0
0.093751,26.010805,-193.049954,116.396402,5.110878,-4.262869,6.034722,-1.165857,4.414705,-5.983251,1.222445,-0.132093,0.328672,-0.039427,20.349028,188.519739,1512.268582,-905.452292,0
0.094792,94.700988,-200.358901,56.542235,3.979878,-5.995405,4.911613,1.569237,6.344474,-4.980242,-1.396130,-0.113828,0.302215,-0.061832,45.095307,188.568739,1513.022304,-905.707541,0
0.095834,155.984519,-151.962799,4.135985,2.950668,-6.524396,2.967007,3.767014,6.848052,-3.041370,-3.587764,-0.073645,0.305547,-0.028224,61.472187,188.549205,1512.989106,-906.369123,0
0.096876,204.802641,-88.719267,-48.073296,1.966698,-5.970553,0.573951,5.412548,6.337123,-0.691222,-5.213700,-0.000585,0.315933,-0.061832,69.174297,188.551661,1512.812473,-905.626897,0
0.097917,178.714890,-35.853231,-122.835606,0.586878,-4.632098,-1.926257,6.315540,4.999150,1.810007,-6.032004,-0.011544,0.313582,-0.039427,52.254537,188.468904,1512.576667,-905.701940,0
0.098959,132.233323,13.569747,-188.328031,-0.623292,-2.924414,-3.823240,6.259569,3.304629,3.799240,-6.188550,-0.007891,0.342651,-0.039427,30.109558,188.624741,1512.034109,-905.589335,0
0.100003,74.987723,73.309818,-203.839395,-0.939972,-0.137445,-5.478139,4.990903,0.514735,5.389786,-4.939746,-0.033462,0.312145,-0.020755,16.119088,188.545824,1511.606195,-904.797707,0
0.101042,21.371723,150.675927,-176.066667,-0.431022,2.333548,-6.454411,3.464773,-1.948018,6.485123,-3.459681,-0.048074,0.286864,-0.054364,3.519748,188.544833,1510.351393,-903.817372,0
0.102083,-26.402889,193.031576,-116.126326,0.688668,4.325254,-5.859123,0.979681,-3.874111,5.952143,-1.100829,-0.099216,0.308617,-0.039427,-15.922141,188.474263,1509.494556,-903.388088,0
0.103125,-95.115757,200.630465,-56.161364,1.842288,6.089743,-4.779669,-1.725563,-5.726689,4.907166,1.496399,-0.168623,0.298884,-0.061832,-40.295191,188.630010,1508.493343,-902.999254,0
0.104166,-156.070355,152.343092,-3.804356,2.814948,6.608083,-2.846968,-3.886026,-6.252321,3.048032,3.652454,-0.227071,0.305220,-0.024490,-56.242290,188.627407,1507.950743,-902.201581,0
0.105208,-205.364862,88.833779,48.404924,3.855468,6.036488,-0.398352,-5.553948,-5.785501,0.609753,5.310411,-0.241683,0.314235,-0.039427,-63.650340,188.548898,1506.396984,-902.392326,0
0.106251,-178.891466,35.895258,122.994887,5.201358,4.701584,2.078044,-6.445745,-4.440177,-1.832722,6.128716,-0.281866,0.323119,-0.050629,-46.640101,188.476761,1505.724237,-901.963428,0
0.107302,-131.729349,-14.554597,189.262879,6.479388,3.032953,3.955184,-6.378581,-2.767710,-3.805168,6.267472,-0.281866,0.352189,-0.031958,-27.051181,188.703616,1504.513648,-901.577264,0
0.108340,-74.812681,-73.775189,203.555493,6.716898,0.182080,5.621990,-5.188274,0.014833,-5.433485,4.993763,-0.230724,0.322531,-0.058098,-11.454691,188.507913,1504.342677,-901.176271,0
0.109376,-21.344134,-150.899680,176.102841,6.151398,-2.264062,6.578418,-3.617367,2.547424,-6.512035,3.599087,-0.234377,0.307114,-0.065566,1.483948,188.502327,1504.591773,-900.709350,0
0.110417,26.453163,-192.917064,116.187122,5.099568,-4.230916,6.022817,-1.083767,4.455139,-5.941284,1.211772,-0.190541,0.306723,-0.054364,20.552608,188.508813,1504.202484,-900.891643,0
