1-Time,2-VGERA,3-VGERB,4-VGERC,5-VN,6-IGERAN,7-IGERBN,8-IGERCN,9-IGERAT,10-IGERBT,11-IGERCT,12-IN,13-IFD,14-IFAULT,15-VFAULT,16-Speed (rad/s),17-FAULT 
0.000000,-59.364196,-94.264402,195.011932,6.592488,-2.661693,5.996616,-3.024070,3.076732,-5.964963,3.118612,-0.186888,0.204685,-0.031958,2.694118,188.495747,0
0.001042,-15.037704,-164.357807,149.351894,5.766858,-4.507838,5.467048,-0.606702,4.932986,-5.360639,0.663165,-0.183235,0.197695,-0.002084,2.682808,188.495776,0
0.002083,36.343823,-206.314786,88.832955,4.658478,-5.789488,4.030738,2.163281,6.256256,-4.123790,-2.020697,-0.099216,0.191947,-0.058098,2.343508,188.495649,0
0.003125,113.404772,-175.725938,40.723106,3.742368,-6.282977,2.190585,4.451357,6.741455,-2.234271,-4.312448,-0.015197,0.179665,-0.035692,2.128618,188.495725,0
0.004176,183.762302,-124.623714,-5.515530,2.826258,-5.434461,0.087553,5.544462,6.072469,-0.215829,-5.477359,-0.029809,0.194625,-0.020755,1.981588,188.495591,0
0.005218,190.352295,-68.495834,-68.619697,1.672638,-3.922042,-2.434562,6.551372,4.411030,2.318302,-6.425276,-0.004238,0.190901,-0.039427,2.026828,188.495740,0
0.006253,167.553869,-22.008515,-150.497538,0.111858,-2.143353,-4.004216,6.139989,2.727536,3.982207,-6.154986,-0.026156,0.207102,-0.009553,2.196478,188.420278,0
0.007291,109.865912,24.225105,-197.240910,-0.781632,0.345392,-4.930007,4.561060,0.268459,4.884664,-4.540862,-0.051727,0.210891,-0.039427,2.286958,188.495671,0
0.008333,59.312387,94.608451,-194.815720,-0.781632,2.766682,-5.821510,2.813659,-2.242078,5.920072,-2.995262,-0.059033,0.205599,-0.050629,2.128618,188.495761,0
0.009375,15.303485,165.185093,-148.860228,0.134478,4.559573,-5.276703,0.447224,-4.050547,5.319777,-0.596918,-0.117481,0.193972,-0.039427,2.264338,188.494162,0
0.010416,-36.248180,206.211843,-88.821402,1.208928,5.947731,-3.813724,-2.326677,-5.399547,4.010408,2.071716,-0.205153,0.184369,-0.035692,2.569708,188.419724,0
0.011458,-114.103103,175.671317,-40.416099,2.125038,6.384416,-1.988810,-4.622589,-5.866368,2.173264,4.378695,-0.230724,0.175419,-0.028224,2.841148,188.494875,0
0.012500,-183.825454,125.644294,5.108523,2.973288,5.578502,0.068504,-5.660842,-5.186354,0.154823,5.574060,-0.241683,0.190248,-0.039427,2.942938,188.495048,0
0.013541,-190.676324,70.289592,67.510985,4.206078,4.005729,2.548710,-6.640327,-3.557997,-2.347078,6.403964,-0.234377,0.192600,-0.031958,2.886388,188.494974,0
0.014583,-168.082063,23.077419,150.164394,5.766858,2.255442,4.152653,-6.193682,-1.848773,-4.006954,6.213619,-0.252642,0.205991,-0.024490,2.818528,188.419708,0
0.015625,-110.269338,-23.591113,197.461743,6.671658,-0.290107,5.158451,-4.653932,0.650737,-4.981929,4.542391,-0.208806,0.212916,-0.031958,2.637568,188.495104,0
0.016666,-59.908636,-94.409373,194.445645,6.615108,-2.693646,6.000426,-2.949629,3.128193,-5.956905,2.981564,-0.230724,0.199002,-0.005818,2.728048,188.494741,0
0.017708,-15.412006,-165.396765,148.847160,5.766858,-4.543341,5.455618,-0.520507,4.962392,-5.360639,0.575606,-0.132093,0.188615,-0.017021,2.682808,188.495139,0
0.018750,36.638728,-205.638256,89.066856,4.635858,-5.800139,3.939302,2.233804,6.289338,-4.015011,-2.058766,-0.095563,0.176922,-0.013287,2.388748,188.344175,0
0.019791,114.516337,-175.605129,40.981629,3.719748,-6.254575,2.148677,4.490537,6.697346,-2.198011,-4.304835,-0.040768,0.180776,-0.002084,2.139928,188.493767,0
0.020833,183.365315,-125.626429,-4.900000,2.837568,-5.448662,0.106602,5.520955,6.009981,-0.260146,-5.496393,-0.051727,0.196323,0.001650,1.992898,188.493635,0
0.021875,190.488405,-70.138837,-67.511743,1.661328,-3.961095,-2.396463,6.473014,4.422057,2.269956,-6.360558,0.017680,0.194886,-0.039427,2.004208,188.495394,0
0.022916,167.497157,-22.503832,-150.583713,0.100548,-2.129152,-3.981357,6.112563,2.687103,3.970120,-6.143565,0.006721,0.206318,-0.024490,2.219098,188.344446,0
0.023958,110.183502,24.237186,-197.265531,-0.826872,0.370244,-4.964296,4.537552,0.213323,4.868548,-4.533248,-0.040768,0.197826,-0.017021,2.286958,188.495222,0
0.025000,59.675347,95.272901,-194.409470,-0.759012,2.756031,-5.768172,2.797987,-2.212672,5.863668,-2.983842,-0.099216,0.195931,-0.005818,2.139928,188.495166,0
0.026041,14.963210,165.390468,-148.798675,0.100548,4.598626,-5.261463,0.419798,-4.068926,5.279488,-0.547428,-0.161317,0.200569,-0.028224,2.241718,188.495242,0
0.027083,-36.837990,205.837335,-89.166099,1.208928,5.894477,-3.806104,-2.283579,-5.348087,4.006380,2.105978,-0.175929,0.179143,-0.043161,2.547088,188.344429,0
0.028125,-114.375323,175.502185,-40.600758,2.125038,6.398617,-2.011669,-4.536394,-5.844313,2.149091,4.359660,-0.223418,0.180449,-0.043161,2.807218,188.495443,0
0.029166,-184.097674,125.740941,5.330114,3.029838,5.553651,0.011356,-5.605991,-5.208408,0.187053,5.505536,-0.234377,0.197434,-0.031958,2.909008,188.495264,0
0.030208,-190.619612,69.407686,67.831061,4.228698,4.066084,2.522041,-6.581558,-3.546969,-2.343049,6.411577,-0.270907,0.194037,-0.039427,2.818528,188.495253,0
0.031250,-167.685076,23.017014,150.890720,5.766858,2.290945,4.137414,-6.213272,-1.874503,-4.002925,6.240267,-0.270907,0.209258,-0.035692,2.807218,188.269086,0
0.032291,-110.110543,-24.183078,197.178599,6.671658,-0.240404,5.116543,-4.602999,0.606628,-4.921497,4.580460,-0.227071,0.218077,-0.043161,2.682808,188.495170,0
0.033333,-59.160031,-95.170470,194.433334,6.603798,-2.693646,5.947088,-2.937875,3.069381,-5.944819,3.038668,-0.197847,0.206449,-0.002084,2.728048,188.495302,0
0.034375,-14.481921,-165.058499,148.847160,5.778168,-4.490087,5.383231,-0.528343,4.899904,-5.336466,0.625096,-0.161317,0.204946,-0.046895,2.671498,188.495193,0
0.035416,37.081086,-205.843631,88.808334,4.624548,-5.800139,3.962161,2.186789,6.259932,-4.051271,-2.043538,-0.124787,0.190183,-0.031958,2.332198,188.268988,0
0.036458,114.550364,-175.484319,40.513826,3.742368,-6.215522,2.144867,4.384752,6.689995,-2.246357,-4.293414,-0.059033,0.183912,-0.020755,2.094688,188.495094,0
0.037500,183.705590,-125.119031,-5.577083,2.882808,-5.420259,0.129461,5.493529,6.028360,-0.260146,-5.462131,-0.033462,0.195409,-0.028224,1.970278,188.495097,0
0.038541,190.238870,-69.184445,-68.127273,1.661328,-3.900740,-2.354555,6.425998,4.400002,2.318302,-6.326296,-0.022503,0.194821,-0.005818,2.026828,188.495255,0
0.039583,167.088827,-21.464874,-150.632955,0.145788,-2.136252,-3.958498,6.100809,2.679751,3.982207,-6.147372,-0.018850,0.208931,-0.020755,2.173858,188.269048,0
0.040625,108.901799,25.143253,-197.474811,-0.804252,0.377345,-4.941437,4.517962,0.187593,4.908836,-4.510407,-0.055380,0.202725,-0.054364,2.286958,188.495255,0
0.041666,58.007999,95.635328,-194.360228,-0.725082,2.770232,-5.752933,2.817577,-2.245754,5.863668,-2.949580,-0.055380,0.198479,-0.002084,2.139928,188.495251,0
0.042708,13.772247,166.030756,-148.072349,0.089238,4.566673,-5.208126,0.427634,-4.105683,5.279488,-0.589304,-0.091910,0.194429,-0.020755,2.264338,188.495204,0
0.043750,-37.155580,206.018548,-88.033523,1.231548,5.908678,-3.771816,-2.330595,-5.366466,3.986236,2.094557,-0.164970,0.191359,-0.058098,2.569708,188.344428,0
0.044791,-115.135271,175.526346,-39.603599,2.170278,6.384416,-1.985000,-4.579491,-5.870043,2.149091,4.386309,-0.245336,0.177248,-0.002084,2.784598,188.495251,0
0.045833,-183.859481,124.931520,6.339583,3.029838,5.521698,0.057074,-5.641253,-5.156948,0.174967,5.520764,-0.248989,0.192926,-0.050629,2.920318,188.495282,0
0.046875,-190.710352,68.888207,68.766667,4.240008,3.987978,2.586808,-6.601148,-3.510212,-2.387366,6.415384,-0.248989,0.187112,-0.020755,2.875078,188.495246,0
0.047916,-167.310773,21.458578,150.644508,5.721618,2.187987,4.190751,-6.158421,-1.767906,-4.015011,6.198391,-0.274560,0.198936,-0.035692,2.863768,188.269071,0
0.048959,-108.545278,-24.968336,198.200379,6.660348,-0.375314,5.131782,-4.567737,0.735280,-4.994016,4.496709,-0.190541,0.192861,-0.039427,2.682808,188.495151,0
0.050000,-57.969068,-95.557059,194.051705,6.581178,-2.746900,5.905180,-2.839927,3.190681,-5.896473,2.916847,-0.183235,0.196585,-0.028224,2.739358,188.495434,0
0.051042,-13.778686,-166.254509,147.726894,5.721618,-4.536240,5.364182,-0.489163,4.944013,-5.316322,0.510889,-0.121134,0.202529,0.001650,2.660188,188.495372,0
0.052083,37.602841,-205.312071,87.601894,4.613238,-5.768187,3.893584,2.253394,6.278311,-3.946521,-2.115869,-0.110175,0.188550,-0.020755,2.332198,188.419782,0
0.053125,115.412394,-175.266863,39.282765,3.708438,-6.247474,2.102959,4.474865,6.682643,-2.145636,-4.327676,-0.069992,0.177510,-0.024490,2.094688,188.495323,0
0.054167,183.512767,-124.285448,-6.315720,2.860188,-5.342153,0.072314,5.524872,5.951169,-0.183599,-5.477359,-0.059033,0.190967,-0.009553,2.004208,188.495323,0
0.055208,190.409008,-68.254215,-68.730493,1.616088,-3.776481,-2.476470,6.492603,4.315460,2.423051,-6.333910,-0.033462,0.186198,-0.035692,2.038138,188.495354,0
0.056250,166.533044,-20.836667,-150.780682,0.055308,-2.043945,-4.011836,6.002861,2.598885,3.990264,-6.090269,-0.029809,0.179339,-0.005818,2.230408,188.344533,0
0.057292,108.062454,25.517761,-198.004167,-0.792942,0.480303,-4.998584,4.435686,0.114078,4.892721,-4.434269,-0.051727,0.205142,-0.035692,2.275648,188.495209,0
0.058333,57.747122,96.215212,-193.769319,-0.736392,2.844788,-5.752933,2.696121,-2.322945,5.839495,-2.835373,-0.091910,0.195931,-0.046895,2.139928,188.495285,0
0.059375,13.431972,166.441507,-147.296781,0.100548,4.627028,-5.162407,0.364947,-4.068926,5.283517,-0.478904,-0.088257,0.175223,-0.039427,2.230408,188.495202,0
0.060417,-37.813445,205.390341,-87.319508,1.242858,5.894477,-3.737527,-2.412871,-5.388520,3.881486,2.239219,-0.154011,0.185087,0.001650,2.513158,188.344455,0
0.061458,-115.554943,175.043110,-39.123485,2.192898,6.338262,-1.901184,-4.650014,-5.811231,2.056428,4.386309,-0.259948,0.176138,-0.039427,2.818528,188.495188,0
0.062500,-183.972906,124.375799,6.511932,3.052458,5.475544,0.102792,-5.645171,-5.112839,0.090362,5.535991,-0.248989,0.192208,-0.020755,2.942938,188.495211,0
0.063542,-190.472159,68.598265,69.185227,4.228698,3.984428,2.613477,-6.573722,-3.510212,-2.411539,6.381122,-0.267254,0.191881,-0.031958,2.829838,188.495202,0
0.064583,-166.823045,21.398173,151.223107,5.766858,2.159585,4.183132,-6.154503,-1.771582,-4.027098,6.179357,-0.252642,0.209192,-0.046895,2.829838,188.418449,0
0.065625,-108.624675,-25.234116,197.941857,6.671658,-0.361113,5.177500,-4.555984,0.716901,-4.965814,4.508129,-0.238030,0.213961,0.001650,2.671498,188.495213,0
0.066667,-58.388741,-96.112780,193.830114,6.615108,-2.761101,5.958517,-2.816419,3.153923,-5.940790,2.913040,-0.183235,0.197238,-0.028224,2.728048,188.495242,0
0.067708,-13.846741,-166.278671,147.406819,5.732928,-4.522039,5.413710,-0.481327,4.958716,-5.324379,0.518503,-0.146705,0.192861,-0.043161,2.626258,188.495162,0
0.068750,37.852376,-205.275829,87.589584,4.613238,-5.832092,3.916443,2.257312,6.300365,-4.006954,-2.169166,-0.088257,0.183258,-0.024490,2.332198,188.421452,0
0.069792,115.922807,-174.989002,39.381250,3.731058,-6.265226,2.125818,4.478783,6.723077,-2.145636,-4.308641,-0.040768,0.179796,-0.039427,2.105998,188.495287,0
0.070833,183.728275,-123.983426,-6.401894,2.792328,-5.413159,0.030405,5.540544,5.998954,-0.183599,-5.473552,-0.022503,0.192142,-0.031958,1.992898,188.495256,0
0.071875,190.227528,-68.399186,-69.456818,1.604778,-3.851036,-2.461230,6.508275,4.377948,2.350532,-6.322489,-0.026156,0.194037,-0.046895,2.072068,188.495249,0
0.072917,166.816607,-20.836667,-151.014584,0.032688,-2.097199,-3.973737,6.061630,2.650345,3.966091,-6.128338,0.017680,0.207820,-0.043161,2.185168,188.419920,0
0.073958,108.153194,25.795622,-198.287311,-0.815562,0.451901,-5.010014,4.506208,0.191269,4.916894,-4.510407,-0.069992,0.215006,-0.043161,2.275648,188.495231,0
0.075000,58.155452,96.662205,-193.560038,-0.747702,2.798635,-5.756743,2.762726,-2.289863,5.875755,-2.972421,-0.073645,0.194298,-0.065566,2.139928,188.495396,0
0.076042,13.704192,167.516707,-146.927463,0.134478,4.630578,-5.219555,0.400209,-4.068926,5.303661,-0.543621,-0.091910,0.192208,-0.013287,2.275648,188.495244,0
0.077083,-38.006267,205.257451,-87.602652,1.276788,5.908678,-3.745147,-2.369774,-5.384844,3.954005,2.159275,-0.150358,0.185937,-0.061832,2.569708,188.419838,0
0.078125,-116.587111,175.055191,-39.049621,2.170278,6.427019,-1.965951,-4.606917,-5.892098,2.112832,4.428185,-0.241683,0.176464,-0.043161,2.829838,188.495220,0
0.079167,-183.904851,124.484527,6.795076,3.018528,5.496846,0.098983,-5.625581,-5.190030,0.130650,5.535991,-0.252642,0.194625,-0.043161,2.931628,188.495231,0
0.080208,-190.767064,68.223757,70.083902,4.262628,4.034131,2.602048,-6.655999,-3.535942,-2.443769,6.430612,-0.245336,0.189856,-0.039427,2.886388,188.495427,0
0.081250,-167.004526,21.603549,151.309281,5.789478,2.180886,4.175512,-6.142749,-1.745852,-4.127818,6.183164,-0.281866,0.202725,-0.013287,2.807218,188.419779,0
0.082292,-108.397825,-25.270359,199.037501,6.705588,-0.364663,5.173690,-4.575573,0.702198,-5.022218,4.523357,-0.241683,0.209258,-0.020755,2.637568,188.495360,0
0.083333,-58.933181,-96.535612,193.288448,6.547248,-2.729149,5.931849,-2.851680,3.128193,-5.912588,2.935881,-0.194194,0.199263,-0.031958,2.728048,188.495269,0
0.084375,-13.982851,-167.945835,146.865152,5.766858,-4.525589,5.421330,-0.493081,4.955041,-5.376754,0.545151,-0.172276,0.195801,-0.046895,2.648878,188.495271,0
0.085417,38.362788,-204.563055,87.774243,4.624548,-5.814340,3.916443,2.292573,6.281986,-3.994867,-2.089221,-0.099216,0.186198,-0.024490,2.354818,188.495258,0
0.086458,117.261222,-174.976921,39.381250,3.708438,-6.251025,2.106769,4.521880,6.704698,-2.165781,-4.312448,-0.051727,0.182278,-0.031958,2.094688,188.495195,0
0.087500,183.569480,-124.333772,-6.672727,2.826258,-5.324402,0.049455,5.477857,5.962196,-0.195685,-5.431676,-0.077298,0.196715,-0.039427,2.015518,188.495244,0
0.088542,190.851365,-67.758898,-70.072349,1.638708,-3.893640,-2.457421,6.500439,4.355893,2.366648,-6.379593,-0.022503,0.190967,-0.024490,2.049448,188.495322,0
0.089583,166.567072,-21.114528,-151.433144,0.077928,-2.068797,-3.988977,6.006779,2.576830,3.994293,-6.082655,-0.026156,0.201549,-0.020755,2.207788,188.495396,0
0.090625,108.005742,26.049321,-198.939773,-0.838182,0.451901,-5.013824,4.463111,0.099375,4.912865,-4.498986,-0.062686,0.212916,-0.024490,2.275648,188.495128,0
0.091667,58.325589,97.411221,-193.018372,-0.702462,2.830587,-5.737693,2.719628,-2.260457,5.815322,-2.850600,-0.102869,0.192208,-0.061832,2.162548,188.495372,0
0.092708,13.386602,168.193238,-146.484281,0.145788,4.627028,-5.192886,0.376701,-4.113035,5.279488,-0.475097,-0.135746,0.201549,-0.017021,2.264338,188.495256,0
0.093750,-38.766215,204.713811,-87.725758,1.231548,5.890927,-3.699429,-2.397199,-5.421602,3.909688,2.189730,-0.175929,0.180319,-0.050629,2.547088,188.570595,0
0.094792,-117.313031,174.825654,-38.495644,2.158968,6.387966,-1.916423,-4.689194,-5.818583,2.072544,4.466254,-0.241683,0.176269,-0.050629,2.807218,188.495338,0
0.095833,-184.233784,124.122100,7.176705,3.041148,5.461343,0.091363,-5.609909,-5.123866,0.082304,5.535991,-0.259948,0.195931,-0.024490,2.897698,188.495267,0
0.096879,-190.664982,68.235838,71.647349,4.273938,3.959576,2.636336,-6.593312,-3.473454,-2.415568,6.411577,-0.259948,0.194755,0.001650,2.852458,188.495369,0
0.097925,-166.255920,20.588753,152.244887,5.778168,2.113431,4.190751,-6.111405,-1.742176,-4.055300,6.072764,-0.278213,0.208735,-0.046895,2.829838,188.495227,0
0.098971,-106.809875,-27.010009,200.330114,6.739518,-0.393065,5.166071,-4.583409,0.746307,-4.998045,4.492902,-0.201500,0.199459,-0.035692,2.660188,188.495215,0
0.100013,-57.628793,-98.903469,192.008145,6.569868,-2.832107,5.855652,-2.773322,3.212735,-5.896473,2.852130,-0.219765,0.198544,-0.031958,2.716738,188.495378,0
0.101056,-12.451614,-170.603634,144.698485,5.676378,-4.607246,5.364182,-0.418640,5.013853,-5.276034,0.457592,-0.172276,0.183977,-0.065566,2.637568,188.495282,0
0.102090,39.338244,-204.079819,86.887879,4.624548,-5.839192,3.863105,2.323917,6.300365,-3.958608,-2.207235,-0.106522,0.187047,-0.024490,2.320888,188.570736,0
0.103135,119.575092,-174.215825,37.965530,3.708438,-6.243924,2.068670,4.553224,6.708374,-2.145636,-4.396200,-0.051727,0.181952,-0.009553,2.094688,188.495229,0
0.104171,183.853042,-122.799497,-8.125379,2.803638,-5.299550,0.011356,5.501365,5.929114,-0.139281,-5.450710,-0.026156,0.196258,-0.024490,1.981588,188.495171,0
0.105208,190.454378,-67.432714,-71.192614,1.650018,-3.890090,-2.449801,6.476932,4.333839,2.338446,-6.371979,-0.018850,0.193906,-0.009553,2.038138,188.495229,0
0.106257,165.875179,-19.266150,-151.937879,0.043998,-2.008442,-3.977547,5.987189,2.602561,3.990264,-6.090269,-0.026156,0.212197,-0.009553,2.173858,188.570700,0
0.107301,105.646501,27.752729,-200.614016,-0.872112,0.501605,-5.090020,4.455275,0.058942,4.997471,-4.479952,-0.077298,0.209584,-0.013287,2.264338,188.495213,0
0.108336,56.851064,98.087752,-192.673675,-0.713772,2.858989,-5.745313,2.723546,-2.315593,5.827409,-2.862021,-0.088257,0.187439,-0.031958,2.185168,188.495369,0
0.109375,12.479202,169.413409,-145.351705,0.123168,4.666081,-5.269083,0.368865,-4.124062,5.259344,-0.528394,-0.139399,0.189987,-0.028224,2.286958,188.495197,0
0.110418,-39.117832,204.556759,-86.310038,1.254168,5.919329,-3.752766,-2.393282,-5.395872,3.929832,2.193537,-0.143052,0.174374,-0.024490,2.558398,188.570703,0
0.111459,-118.742186,174.644440,-38.089394,2.170278,6.430569,-1.958331,-4.669604,-5.844313,2.116861,4.489095,-0.234377,0.177444,-0.024490,2.807218,188.495361,0
0.112507,-183.700686,122.479097,8.506250,3.075078,5.443592,0.152320,-5.629499,-5.061378,0.025900,5.562640,-0.274560,0.195082,-0.039427,2.897698,188.495311,0
0.113542,-190.937202,67.257285,71.708902,4.307868,4.027031,2.636336,-6.699096,-3.535942,-2.463914,6.464874,-0.270907,0.191424,0.001650,2.886388,188.496753,0
0.114586,-165.836248,19.755170,151.900190,5.778168,2.099230,4.244089,-6.138831,-1.716446,-4.123790,6.137481,-0.267254,0.195147,-0.061832,2.841148,188.571446,0
0.115636,-105.040445,-27.517407,201.684281,6.762138,-0.432119,5.257507,-4.606917,0.805119,-5.130996,4.519550,-0.223418,0.234212,-0.050629,2.682808,188.496170,0
0.116676,-56.630653,-98.770579,191.626516,6.547248,-2.807255,5.897560,-2.702799,3.278899,-5.924674,2.810254,-0.205153,0.176987,-0.020755,2.739358,188.495921,0
0.117717,-12.168051,-171.690916,143.836743,5.665068,-4.610796,5.390851,-0.395133,5.035907,-5.332437,0.434751,-0.143052,0.196911,0.001650,2.648878,188.495930,0
0.118758,39.678519,-203.330803,85.595265,4.556688,-5.856944,3.847866,2.402275,6.344474,-3.926377,-2.245304,-0.084604,0.175027,-0.039427,2.354818,188.571261,0
0.119801,120.482492,-174.276229,37.042235,3.651888,-6.332681,2.026762,4.615911,6.770861,-2.069089,-4.438076,-0.040768,0.178555,-0.046895,2.083378,188.495910,0
0.120845,183.263232,-121.518921,-8.962500,2.781018,-5.288899,-0.083890,5.540544,5.877654,-0.050647,-5.435483,-0.004238,0.195539,-0.028224,1.992898,188.496270,0
0.121884,191.112243,-65.717226,-73.433144,1.548228,-3.868788,-2.506949,6.539619,4.330163,2.406936,-6.398627,0.003068,0.197107,-0.058098,2.083378,188.495848,0
0.122925,165.183287,-18.468810,-152.221023,0.089238,-1.969389,-4.015645,5.908830,2.565803,3.990264,-6.021745,-0.015197,0.193449,-0.054364,2.219098,188.646837,0
0.123969,104.829841,28.006428,-201.525001,-0.849492,0.526457,-5.131929,4.463111,0.007481,5.037759,-4.460917,-0.026156,0.209062,-0.031958,2.286958,188.497314,0
0.125002,56.658242,98.800525,-192.033523,0.247578,2.866090,-5.791031,2.672613,-2.370729,5.835466,-2.839180,-0.062686,0.203901,-0.043161,2.117308,188.497330,0
0.126041,12.150270,170.150344,-147.506061,0.145788,4.698033,-5.234794,0.392373,-4.142441,5.299633,-0.471290,-0.117481,0.188223,-0.069301,2.253028,188.495783,0
0.127083,-39.582875,204.303060,-86.063826,1.276788,5.961933,-3.718478,-2.444215,-5.406899,3.881486,2.216378,-0.175929,0.182801,-0.043161,2.547088,188.646574,0
0.128125,-119.252598,174.584036,-37.793940,2.204208,6.441220,-1.943092,-4.650014,-5.851665,2.092688,4.420571,-0.238030,0.180580,-0.035692,2.852458,188.495667,0
