1-Time,2-VGERA,3-VGERB,4-VGERC,5-VN,6-IGERAN,7-IGERBN,8-IGERCN,9-IGERAT,10-IGERBT,11-IGERCT,12-IN,13-IFD,14-IFAULT,15-VFAULT,16-Speed (rad/s),17-Active Power,18-Reactive Power,19-FAULT 
0.000000,128.036555,-184.045716,36.460030,1.023605,-0.306183,5.274452,-4.400939,0.328109,-5.260061,3.861413,0.066437,0.599519,-0.011006,120.144051,188.571125,1223.208734,994.732612,0
0.001042,172.230563,-152.721774,-36.450000,-0.372548,-2.313384,5.723897,-2.796496,2.377122,-5.798006,2.288774,0.066437,0.601862,-0.025873,159.244212,188.571089,1223.509794,995.693700,0
0.002083,176.727934,-96.698076,-106.018321,-1.701146,-4.148121,5.336875,-0.666260,4.163061,-5.299745,0.129728,0.026329,0.596350,-0.055607,162.846876,188.495743,1223.967344,996.819284,0
0.003125,179.010519,-13.167565,-148.913722,-2.500556,-5.212268,4.134193,1.506503,5.233883,-4.126849,-2.010279,-0.013779,0.576507,-0.029590,167.980672,188.646502,1224.347134,998.002211,0
0.004167,147.980924,62.423320,-169.510805,-2.950928,-5.447114,2.303120,3.362243,5.467314,-2.147036,-3.788541,-0.064826,0.595110,-0.059323,134.644773,188.495611,1225.255949,997.608841,0
0.005208,68.689348,117.801043,-188.759053,-3.333744,-4.966413,-0.148021,5.082670,4.981925,0.264897,-5.517301,-0.090349,0.607305,-0.033307,61.758379,188.571089,1225.787621,997.150829,0
0.006250,-5.178264,157.393472,-166.910348,-2.917150,-3.781174,-2.045678,5.515676,3.803650,2.130066,-5.856199,-0.119518,0.610474,-0.018440,-5.859119,188.495676,1226.737998,996.249844,0
0.007292,-76.808491,180.824767,-116.055602,-1.971369,-1.740947,-4.113958,5.349433,1.717585,4.162792,-5.661999,-0.119518,0.593180,-0.044457,-71.686543,188.646438,1226.764459,995.064774,0
0.008333,-128.031052,184.031155,-36.000388,-0.417586,0.317628,-5.262540,4.297846,-0.305491,5.278366,-4.569149,-0.079410,0.595454,-0.048173,-119.444356,188.571035,1228.327337,994.362273,0
0.009375,-171.965162,152.883388,37.189130,0.989827,2.383541,-5.720308,2.705002,-2.380440,5.741351,-2.950816,-0.050241,0.590493,-0.029590,-158.454451,188.571020,1229.094968,994.204652,0
0.010417,-176.451233,95.649954,106.162019,2.318424,4.155896,-5.279186,0.528373,-4.121916,5.234272,-0.749883,0.029975,0.592078,-0.025873,-162.473672,188.495680,1229.289543,994.183352,0
0.011458,-179.072815,11.990247,148.814386,3.117835,5.216374,-4.101473,-1.617327,-5.203854,4.026101,1.367277,0.008098,0.583741,-0.007290,-167.877668,188.646491,1229.813330,993.526493,0
0.012500,-147.320025,-63.142583,169.593745,3.511910,5.436542,-2.299531,-3.391880,-5.378001,2.160932,3.107460,0.077375,0.585946,-0.040740,-135.217268,188.571064,1230.731325,993.267008,0
0.013542,-68.536946,-117.768624,189.157936,3.917245,5.021892,0.101671,-5.139369,-4.955601,-0.246592,4.794334,0.091960,0.572166,-0.029590,-61.542792,188.571026,1231.073592,992.754953,0
0.014583,4.471872,-157.384543,167.139107,3.489392,3.799957,1.982682,-5.553044,-3.729158,-2.111761,5.129424,0.102898,0.612128,-0.048173,5.646889,188.495678,1231.757205,991.939699,0
0.015625,75.763101,-180.780604,117.049917,2.554870,1.715697,4.063447,-5.382935,-1.665324,-4.259131,4.946648,0.106545,0.606685,-0.048173,71.339213,188.571127,1233.044786,990.887081,0
0.016667,127.991356,-183.740346,37.286344,1.023605,-0.368564,5.232837,-4.358411,0.368867,-5.255651,3.830950,0.088314,0.602758,-0.011006,119.907626,188.495698,1233.368382,989.941114,0
0.017708,172.072364,-153.132850,-36.535062,-0.406326,-2.328062,5.703090,-2.753969,2.391943,-5.771549,2.246888,0.040913,0.595385,-0.018440,158.557454,188.571141,1233.478969,989.167265,0
0.018750,176.479335,-96.063846,-105.945411,-1.678627,-4.170138,5.291098,-0.573473,4.174176,-5.295336,0.103073,0.022683,0.613782,-0.037023,163.004492,188.495653,1233.479878,988.863285,0
0.019792,179.236517,-11.464538,-148.306138,-2.545593,-5.160895,4.142516,1.525833,5.267230,-4.126849,-2.025510,-0.057533,0.569961,-0.044457,168.678688,188.571075,1233.571077,989.169236,0
0.020833,147.291628,63.785742,-169.109800,-2.939669,-5.392072,2.286474,3.331314,5.437672,-2.155855,-3.826620,-0.057533,0.569754,-0.051890,134.656031,188.571060,1233.221913,989.286201,0
0.021875,68.180851,117.707083,-188.686143,-3.345004,-4.959074,-0.148021,5.105867,5.022682,0.260488,-5.494454,-0.075764,0.612679,-0.033307,62.535204,188.571064,1232.929504,989.754174,0
0.022917,-4.658468,157.076357,-167.104774,-2.905891,-3.784843,-1.995740,5.515676,3.788829,2.121247,-5.898086,-0.104934,0.593801,-0.029590,-4.373020,188.495647,1233.395782,989.657424,0
0.023958,-75.881897,180.683827,-116.942674,-1.915073,-1.759294,-4.084827,5.357165,1.776869,4.233342,-5.722925,-0.115872,0.611026,-0.029590,-70.245477,188.646480,1234.736807,990.368687,0
0.025000,-128.008453,183.796255,-37.823139,-0.462623,0.291941,-5.258379,4.375169,-0.261028,5.322460,-4.584380,-0.064826,0.603722,-0.066757,-119.388064,188.495749,1235.314026,990.612854,0
0.026042,-172.371959,152.871643,35.633716,0.933530,2.317490,-5.678693,2.720466,-2.328567,5.732533,-2.905122,-0.086703,0.597108,-0.011006,-158.837234,188.571011,1235.066046,989.897372,0
0.027083,-176.699831,96.577810,105.675952,2.295906,4.152227,-5.287509,0.547703,-4.047811,5.163722,-0.799385,-0.010133,0.585395,-0.018440,-162.102148,188.495667,1233.879298,989.423263,0
0.028125,-178.993716,11.814072,148.449836,3.151613,5.220043,-4.093150,-1.563202,-5.192738,4.039329,1.298736,0.048206,0.584568,-0.033307,-167.652502,188.646502,1233.011271,989.913687,0
0.029167,-147.365225,-63.894263,169.131981,3.534429,5.458559,-2.328662,-3.384147,-5.392822,2.196207,3.046535,0.073729,0.572442,-0.044457,-134.631836,188.495691,1232.131271,990.723264,0
0.030208,-67.361753,-118.097485,188.890600,3.962282,5.040239,0.085025,-5.116172,-4.929664,-0.281867,4.767679,0.077375,0.561693,-0.003573,-60.912326,188.495655,1231.520963,990.321241,0
0.031250,6.031262,-157.079173,167.625174,3.511910,3.825644,1.949390,-5.595572,-3.795852,-2.032392,5.171311,0.099252,0.595730,-0.022156,5.489273,188.495667,1230.889797,992.120326,0
0.032292,76.237698,-180.451743,117.110675,2.577388,1.748722,4.046801,-5.417730,-1.746840,-4.210627,4.988534,0.121129,0.605927,-0.025873,71.046497,188.646464,1230.129089,993.529009,0
0.033333,127.708858,-184.198402,38.489359,1.023605,-0.298844,5.253644,-4.451198,0.294762,-5.286517,3.910915,0.059144,0.605307,-0.014723,119.659943,188.495595,1230.548451,994.859177,0
0.034375,172.388762,-152.909695,-34.590795,-0.327511,-2.350079,5.732220,-2.819693,2.373417,-5.815643,2.231657,0.040913,0.598348,-0.007290,159.232954,188.495685,1231.059280,994.590691,0
0.035417,176.965232,-97.578952,-105.204159,-1.656109,-4.126104,5.320229,-0.612135,4.159355,-5.242423,0.072610,0.000805,0.594696,-0.018440,162.835618,188.495618,1231.424597,993.378376,0
0.036458,179.055718,-13.226290,-148.451958,-2.556853,-5.215937,4.150839,1.494904,5.263525,-4.029843,-1.998855,-0.032010,0.592423,-0.014723,167.991930,188.646342,1231.409582,991.984519,0
0.037500,147.992223,63.104531,-169.158407,-2.950928,-5.428767,2.282313,3.342913,5.456199,-2.195539,-3.796157,-0.053887,0.576920,-0.025873,134.768614,188.495756,1231.424913,992.440914,0
0.038542,68.158251,117.765808,-188.649688,-3.378782,-4.951735,-0.114728,5.063339,4.981925,0.260488,-5.494454,-0.083057,0.559902,-0.033307,61.566988,188.495685,1231.221705,992.018231,0
0.039583,-6.183958,156.817966,-167.554386,-2.905891,-3.759157,-2.037355,5.546605,3.788829,2.116838,-5.875238,-0.097641,0.586566,-0.022156,-5.701502,188.495640,1230.716000,992.220512,0
0.040625,-76.774591,180.413692,-116.553820,-1.971369,-1.770302,-4.047374,5.345566,1.769458,4.184839,-5.688654,-0.115872,0.609854,-0.018440,-70.864685,188.495700,1229.644760,992.135691,0
0.041667,-127.579055,184.301290,-37.373527,-0.440104,0.302950,-5.275025,4.321043,-0.286965,5.256319,-4.591996,-0.042949,0.602826,-0.018440,-119.162898,188.495642,1229.174361,991.806041,0
0.042708,-172.281560,152.918623,35.123346,0.956049,2.354185,-5.707824,2.739797,-2.332272,5.807492,-2.954624,-0.050241,0.602895,-0.003573,-158.949817,188.495662,1229.892394,992.732078,0
0.043750,-176.790230,97.529156,105.177733,2.239609,4.181583,-5.279186,0.559302,-4.118211,5.225453,-0.803193,0.019036,0.592905,-0.033307,-162.597514,188.495734,1231.394257,993.118402,0
0.044792,-179.174515,14.033879,148.583505,3.084057,5.227382,-4.147250,-1.547737,-5.181622,4.056967,1.310159,0.029975,0.594696,-0.022156,-167.933960,188.495575,1232.033498,992.691385,0
0.045833,-147.975421,-62.120767,169.532987,3.545688,5.465898,-2.316177,-3.380281,-5.381707,2.125657,3.065574,0.070083,0.602826,-0.025873,-135.690118,188.495703,1232.927838,991.256100,0
0.046875,-68.977643,-117.651174,188.829841,3.928504,4.963180,0.085025,-5.112306,-4.940780,-0.295095,4.767679,0.099252,0.606340,-0.003573,-61.160009,188.495718,1233.556675,990.845030,0
0.047917,5.432366,-156.961723,167.831753,3.590725,3.785279,1.928583,-5.583973,-3.732863,-2.089714,5.106577,0.110191,0.587117,-0.040740,6.468747,188.495633,1233.689753,989.195771,0
0.048958,76.181198,-180.557448,116.989158,2.566129,1.741383,4.059286,-5.340407,-1.680145,-4.223856,4.919993,0.143006,0.571615,-0.018440,71.429280,188.420390,1233.662533,987.821028,0
0.050000,127.392460,-184.351087,37.116220,1.046123,-0.309852,5.245321,-4.393206,0.346636,-5.299745,3.884260,0.091960,0.600277,-0.033307,119.423518,188.495633,1233.847266,987.345277,0
0.051042,171.609067,-152.991910,-35.514322,-0.395067,-2.339071,5.707251,-2.761701,2.380827,-5.793596,2.258312,0.026329,0.598003,-0.022156,158.782621,188.495606,1233.439374,987.501254,0
0.052083,176.761833,-97.156132,-105.167704,-1.678627,-4.173807,5.278614,-0.654662,4.144534,-5.277698,0.084034,0.026329,0.594558,-0.037023,162.993234,188.495682,1233.203385,987.981361,0
0.053125,179.225217,-13.813540,-148.269683,-2.545593,-5.190251,4.142516,1.487172,5.267230,-4.118030,-2.025510,-0.039302,0.592629,-0.048173,168.633655,188.495705,1233.793036,988.653258,0
0.054167,148.658919,61.777345,-169.304227,-2.950928,-5.436106,2.315605,3.308118,5.430262,-2.226405,-3.765694,-0.057533,0.586979,0.011294,135.826897,188.495644,1233.564527,988.451598,0
0.055208,70.712034,117.272517,-188.200076,-3.299967,-5.017786,-0.093921,5.063339,5.015272,0.203166,-5.494454,-0.115872,0.609716,-0.007290,63.379578,188.495582,1233.944816,988.706602,0
0.056250,-4.036972,156.559576,-167.760965,-2.917150,-3.825207,-2.012386,5.523408,3.814765,2.081563,-5.901893,-0.130457,0.610474,-0.033307,-4.969711,188.495759,1234.376748,988.745707,0
0.057292,-75.768898,180.214027,-117.027735,-1.982628,-1.777641,-4.018243,5.330102,1.780574,4.153973,-5.692462,-0.097641,0.606134,0.000144,-70.290510,188.420227,1234.213561,988.516480,0
0.058333,-127.386957,184.500955,-37.324921,-0.440104,0.266255,-5.266702,4.386767,-0.212859,5.256319,-4.622458,-0.083057,0.598348,0.007577,-118.836406,188.495694,1233.735714,989.458083,0
0.059375,-171.614864,152.707213,35.779536,0.933530,2.291804,-5.728631,2.720466,-2.302630,5.750170,-2.996510,-0.061180,0.594696,-0.003573,-158.668359,188.495635,1232.529350,989.655395,0
0.060417,-176.790230,96.800965,105.214188,2.284646,4.130210,-5.329125,0.586365,-4.073747,5.260729,-0.845079,-0.002841,0.589391,-0.029590,-162.090889,188.495767,1231.705653,990.557621,0
0.061458,-178.779017,12.636223,147.988073,3.106575,5.231052,-4.163896,-1.528407,-5.192738,4.127517,1.272081,0.055498,0.565896,-0.022156,-167.607468,188.420495,1231.011675,991.807281,0
0.062500,-148.201419,-62.437882,169.289953,3.545688,5.513601,-2.382762,-3.360951,-5.407643,2.240301,3.027496,0.070083,0.571615,-0.051890,-135.881510,188.495685,1230.396116,993.452369,0
0.063542,-69.960736,-117.792114,187.991376,3.917245,4.981528,0.030925,-5.089109,-4.985243,-0.171632,4.756256,0.121129,0.609579,-0.014723,-63.017633,188.495579,1229.606227,994.810417,0
0.064583,3.658277,-156.832528,168.281364,3.534429,3.888025,1.899452,-5.603304,-3.814379,-2.032392,5.148464,0.135714,0.608890,0.000144,4.318407,188.495455,1229.990810,995.867313,0
0.065625,75.209404,-180.017178,118.131415,2.588648,1.811103,4.001024,-5.421596,-1.765366,-4.184171,4.999958,0.081021,0.609648,-0.018440,70.596164,188.344883,1230.059030,997.038157,0
0.066667,127.279460,-184.785652,38.452904,1.057383,-0.254810,5.249483,-4.470529,0.283646,-5.264470,3.910915,0.106545,0.604549,0.011294,119.085768,188.495673,1229.718368,997.478299,0
0.067708,171.722067,-152.710029,-34.639401,-0.372548,-2.284029,5.707251,-2.811961,2.351185,-5.753912,2.315429,0.073729,0.597590,-0.014723,158.850171,188.495729,1228.986394,997.750971,0
0.068750,177.055631,-97.355797,-104.693789,-1.678627,-4.115096,5.324390,-0.650796,4.163061,-5.264470,0.114497,0.022683,0.589873,-0.048173,162.790584,188.495651,1229.098407,997.792355,0
0.069792,178.773220,-12.439374,-147.637796,-2.556853,-5.164565,4.125870,1.433046,5.241293,-4.131259,-1.998855,-0.032010,0.550118,-0.007290,167.823055,188.344844,1228.019024,998.103171,0
0.070833,148.206922,62.987081,-169.012587,-2.928410,-5.414089,2.336412,3.296519,5.471020,-2.266089,-3.773310,-0.072118,0.574646,-0.011006,135.646764,188.495580,1227.930785,999.194747,0
0.071875,69.435143,117.624868,-187.799071,-3.322485,-5.006777,-0.039821,5.051741,5.041209,0.189937,-5.490646,-0.108580,0.589667,-0.007290,63.627261,188.420195,1227.386484,999.837385,0
0.072917,-4.308170,156.324676,-168.198425,-2.928410,-3.803190,-1.958286,5.577534,3.851818,2.041879,-5.879046,-0.079410,0.595661,0.003860,-3.494870,188.495678,1226.810135,1000.360636,0
0.073958,-75.294301,179.755971,-118.072779,-1.960110,-1.766633,-4.068181,5.357165,1.750932,4.158383,-5.684846,-0.097641,0.596212,-0.029590,-69.457394,188.344892,1227.226774,999.582311,0
0.075000,-127.420857,184.500955,-39.038306,-0.496401,0.251577,-5.275025,4.444759,-0.249912,5.287185,-4.622458,-0.061180,0.609027,-0.040740,-118.825148,188.420388,1228.340393,999.004525,0
0.076042,-172.134661,152.883388,34.017544,0.933530,2.284465,-5.745278,2.766860,-2.284104,5.754580,-3.011741,-0.086703,0.600691,-0.022156,-158.825975,188.420305,1228.581145,998.917970,0
0.077083,-177.106628,97.963721,104.679515,2.284646,4.104524,-5.287509,0.586365,-4.070042,5.229863,-0.818425,0.000805,0.591596,-0.003573,-162.586256,188.495731,1229.011649,998.060350,0
0.078125,-179.027615,13.470118,147.854404,3.140353,5.201696,-4.118120,-1.501344,-5.166801,4.048148,1.294928,0.059144,0.577678,0.022444,-167.765085,188.345641,1229.124303,996.633938,0
0.079167,-148.291819,-62.731507,169.059071,3.568207,5.502593,-2.312016,-3.337754,-5.389117,2.200616,3.046535,0.099252,0.539990,-0.022156,-136.050385,188.420289,1229.256966,996.015547,0
0.080208,-68.943743,-117.733389,188.197954,3.939764,5.043909,0.080863,-5.081377,-4.959306,-0.242182,4.771487,0.091960,0.562244,-0.018440,-61.846767,188.420195,1229.580655,995.279680,0
0.081250,5.545365,-156.397963,168.487943,3.568207,3.829313,1.916098,-5.568509,-3.814379,-2.019164,5.178926,0.150299,0.611163,-0.037023,5.320398,188.495727,1229.323844,995.885395,0
0.082292,75.729201,-179.911473,118.216477,2.577388,1.781747,3.955247,-5.421596,-1.728314,-4.179762,4.958072,0.110191,0.599106,-0.025873,70.190864,188.344768,1229.086465,995.223208,0
0.083333,127.064762,-184.632967,39.206308,1.068642,-0.229124,5.236998,-4.474395,0.298467,-5.290926,3.922339,0.051852,0.604342,-0.029590,119.074510,188.420242,1229.686623,995.054271,0
0.084375,171.688167,-153.038890,-33.059684,-0.316252,-2.317054,5.769674,-2.842890,2.351185,-5.784777,2.304006,0.022683,0.609027,-0.040740,158.985271,188.420215,1230.360669,994.649930,0
0.085417,176.976532,-98.906138,-104.146963,-1.656109,-4.096748,5.336875,-0.685591,4.166766,-5.299745,0.144959,-0.021072,0.593249,-0.018440,162.959459,188.495674,1230.928440,994.895012,0
0.086458,178.942719,-14.858846,-147.820071,-2.500556,-5.223276,4.175808,1.440779,5.248704,-4.144487,-1.956969,-0.017425,0.601448,0.018727,168.385972,188.420249,1231.315097,994.836019,0
0.087500,149.065716,61.847815,-169.049042,-2.939669,-5.454453,2.369705,3.284921,5.441378,-2.270499,-3.777118,-0.083057,0.604893,-0.029590,136.153388,188.420263,1231.554616,994.247755,0
0.088542,70.666834,117.319498,-187.701858,-3.345004,-4.940727,-0.010690,5.001481,4.959693,0.181119,-5.452568,-0.090349,0.546604,-0.029590,63.278253,188.420166,1231.025601,993.071933,0
0.089584,-4.963566,155.984071,-168.684492,-2.928410,-3.788512,-1.954124,5.511810,3.836997,2.019832,-5.863815,-0.090349,0.592009,0.003860,-5.127327,188.495738,1230.614649,993.000358,0
0.090625,-75.938397,179.532816,-117.611016,-1.971369,-1.821675,-3.980789,5.283708,1.795395,4.123108,-5.696270,-0.104934,0.608132,-0.025873,-69.615011,188.344894,1229.801262,993.838589,0
0.091667,-126.991459,185.099951,-38.102628,-0.440104,0.244238,-5.229248,4.413830,-0.194333,5.229863,-4.656729,-0.079410,0.600897,-0.033307,-118.509915,188.420193,1228.731382,994.650904,0
0.092708,-171.366266,152.777683,33.652994,0.922271,2.229423,-5.699501,2.809387,-2.228525,5.754580,-3.026973,-0.035656,0.597383,-0.014723,-158.994850,188.420332,1228.012399,994.731918,0
0.093750,-177.287427,98.656676,104.217751,2.228350,4.071498,-5.316640,0.694616,-4.040400,5.296004,-0.867926,-0.013779,0.598761,0.000144,-162.293539,188.495617,1228.028787,995.698136,0
0.094792,-178.473919,15.126165,147.866556,3.084057,5.153993,-4.209673,-1.458816,-5.159391,4.105470,1.222579,0.015390,0.592491,0.000144,-167.449852,188.344800,1227.580482,996.354976,0
0.095833,-149.354012,-60.723110,169.375015,3.500651,5.429203,-2.441023,-3.287494,-5.370591,2.284395,2.985609,0.070083,0.602895,-0.018440,-136.680851,188.420254,1227.169355,996.719615,0
0.096875,-71.723525,-117.568959,187.250124,3.951023,4.981528,0.018441,-5.050448,-5.026001,-0.145176,4.706754,0.073729,0.606754,-0.025873,-63.254058,188.420247,1226.590818,997.594956,0
0.097917,3.895576,-156.186552,169.022616,3.545688,3.880686,1.907775,-5.533714,-3.829200,-1.983889,5.148464,0.091960,0.588289,0.003860,4.993906,188.495682,1226.463978,997.313720,0
0.098958,75.684001,-179.312477,118.459510,2.577388,1.833120,3.951086,-5.409998,-1.798714,-4.109212,4.984726,0.110191,0.612472,-0.011006,70.787555,188.344811,1225.453269,998.237530,0
0.100000,126.714464,-185.549078,38.282781,1.034864,-0.210776,5.212029,-4.462797,0.220657,-5.264470,3.937570,0.099252,0.597314,0.026161,118.624177,188.495754,1224.607159,999.191450,0
0.101042,170.964972,-152.627814,-34.043969,-0.338771,-2.217978,5.661474,-2.858354,2.303017,-5.749502,2.330661,0.044560,0.596143,-0.037023,158.816396,188.420271,1223.299298,999.542008,0
0.102083,177.270330,-98.154458,-103.903930,-1.644849,-4.115096,5.345198,-0.697189,4.107482,-5.312973,0.179230,-0.002841,0.592560,-0.018440,162.801843,188.495680,1222.301948,1000.116672,0
0.103125,178.558522,-14.424281,-147.394763,-2.500556,-5.149887,4.184131,1.402117,5.241293,-4.148896,-1.934122,-0.028364,0.592423,-0.014723,167.642922,188.269518,1221.733187,1000.216081,0
0.104167,149.393414,60.872979,-169.316379,-2.939669,-5.461792,2.402997,3.311984,5.452493,-2.310183,-3.735231,-0.053887,0.576369,-0.011006,136.795113,188.420186,1221.527684,1000.616446,0
0.105208,72.282724,117.225537,-186.887696,-3.322485,-5.017786,-0.002367,5.005347,5.052325,0.163481,-5.429721,-0.079410,0.607718,-0.051890,65.113360,188.420339,1221.819876,1001.335378,0
0.106250,-2.974779,155.948836,-168.915373,-2.962187,-3.850893,-1.945801,5.523408,3.862934,2.002194,-5.833352,-0.115872,0.607994,-0.014723,-3.629970,188.495738,1221.878214,1001.048383,0
0.107292,-74.774504,179.086506,-118.485936,-2.005147,-1.795989,-3.993274,5.345566,1.847269,4.074604,-5.612497,-0.093995,0.602826,-0.011006,-69.389844,188.344807,1220.826438,1000.309528,0
0.108333,-126.821960,185.135186,-38.467178,-0.485141,0.266255,-5.204279,4.390633,-0.227681,5.229863,-4.649113,-0.068472,0.595041,-0.044457,-118.250973,188.420274,1221.185502,999.807787,0
0.109375,-171.253267,152.578018,34.309184,0.967308,2.247770,-5.624593,2.778458,-2.228525,5.706076,-3.019357,-0.017425,0.588151,-0.014723,-158.431934,188.420253,1220.557034,999.529863,0
0.110417,-177.321327,97.822781,104.229903,2.284646,4.045812,-5.279186,0.644357,-4.070042,5.212225,-0.875542,-0.006487,0.597866,-0.037023,-162.586256,188.495705,1220.113087,998.864955,0
