1-Time,2-VGERA,3-VGERB,4-VGERC,5-VN,6-IGERAN,7-IGERBN,8-IGERCN,9-IGERAT,10-IGERBT,11-IGERCT,12-IN,13-IFD,14-IFAULT,15-VFAULT,16-Speed (rad/s),17-FAULT 
0.000000,-145.124842,171.877913,-6.697349,2.781018,4.712235,-4.997941,-0.154656,-4.432825,5.041461,0.051913,-0.106522,0.435870,-0.024490,6.064498,188.344992,0
0.001042,-186.388859,124.001291,52.984470,3.923328,5.645958,-3.608936,-2.296462,-5.509820,3.723699,2.193737,-0.183235,0.431820,-0.050629,7.274668,188.420367,0
0.002083,-189.179114,45.584143,111.533712,5.054328,5.752466,-1.521461,-4.229312,-5.561280,1.776434,4.061607,-0.248989,0.436654,-0.031958,7.919338,188.269496,0
0.003125,-164.452463,-19.531930,164.333902,6.060918,5.184422,0.411239,-5.415887,-5.020945,-0.225389,5.271275,-0.238030,0.429599,-0.013287,7.817548,188.269536,0
0.004167,-100.889090,-73.219467,191.897349,6.626418,3.473187,2.752703,-5.878577,-3.392588,-2.529373,5.637733,-0.270907,0.448216,-0.013287,5.510308,188.344840,0
0.005208,-30.735725,-131.401101,192.020455,6.547248,1.524085,4.447289,-5.415887,-1.470171,-4.350738,5.370894,-0.267254,0.449131,-0.039427,3.304858,188.420350,0
0.006250,31.750111,-175.919232,144.403031,5.676378,-0.755194,5.534681,-4.136027,0.808795,-5.370534,4.129206,-0.183235,0.445603,-0.035692,1.936348,188.344898,0
0.007292,83.528625,-202.630111,69.616099,4.307868,-3.062875,5.804544,-2.102431,3.190681,-5.781810,2.179506,-0.190541,0.441488,-0.024490,0.601768,188.269471,0
0.008333,145.118403,-171.872129,8.026136,3.075078,-4.607246,5.114011,0.058032,4.683035,-5.143913,0.112397,-0.161317,0.441161,-0.013287,-1.185212,188.344916,0
0.009375,186.144227,-124.502905,-52.468182,1.932768,-5.569371,3.721038,2.169988,5.756354,-3.792578,-1.954712,-0.069992,0.439724,-0.058098,-2.463241,188.420276,0
0.010417,189.047908,-46.713964,-111.657576,0.858318,-5.693631,1.744683,4.095375,5.822518,-1.790755,-3.790561,-0.029809,0.444428,-0.039427,-2.972191,188.344777,0
0.011458,164.298571,18.692051,-164.703978,-0.148272,-5.107835,-0.287232,5.237174,5.300561,0.198477,-5.053597,-0.033462,0.459452,-0.073035,-3.368041,188.269427,0
0.012500,102.016901,73.333979,-191.590341,-0.679842,-3.432104,-2.632665,5.681207,3.628095,2.464691,-5.416497,0.006721,0.455076,-0.020755,-0.619712,188.420224,0
0.013542,31.614001,132.047173,-191.664205,-0.691152,-1.500752,-4.319313,5.300607,1.731408,4.307039,-5.174563,-0.048074,0.452267,-0.028224,1.370848,188.420287,0
0.014583,-31.541042,175.707560,-144.846970,0.202338,0.767875,-5.351145,4.020747,-0.529179,5.318442,-3.925759,-0.022503,0.452267,-0.024490,2.875078,188.495716,0
0.015625,-83.852654,202.792947,-70.220076,1.582158,3.118160,-5.684506,2.039390,-2.947822,5.775882,-2.061448,-0.084604,0.444624,-0.043161,4.424548,188.269492,0
0.016667,-145.283637,171.865833,-8.100758,2.758398,4.666081,-5.013815,-0.117342,-4.421798,5.079231,0.048356,-0.121134,0.443709,-0.035692,6.087118,188.420285,0
0.017708,-186.831216,124.569093,52.652083,3.923328,5.603354,-3.640685,-2.266611,-5.469387,3.753076,2.122580,-0.183235,0.441684,-0.039427,7.410388,188.495671,0
0.018750,-189.031661,46.357321,111.755303,5.043018,5.734715,-1.620676,-4.177073,-5.520847,1.801614,3.922851,-0.208806,0.444101,-0.031958,7.930648,188.495696,0
0.019792,-164.305010,-18.976208,164.875569,6.038298,5.187972,0.343773,-5.352454,-5.083433,-0.229586,5.217907,-0.267254,0.452659,-0.028224,7.930648,188.269561,0
0.020833,-100.832378,-73.678541,191.146402,6.581178,3.483838,2.693175,-5.792756,-3.381561,-2.437046,5.548787,-0.245336,0.437111,-0.002084,5.487688,188.420323,0
0.021875,-29.714900,-131.980984,191.786554,6.615108,1.627043,4.312357,-5.419619,-1.466495,-4.325558,5.331758,-0.252642,0.448870,-0.005818,3.270928,188.495745,0
0.022917,32.907046,-175.109811,144.403031,5.710308,-0.680638,5.415623,-4.158416,0.764686,-5.315977,4.097185,-0.205153,0.453442,-0.028224,2.094688,188.495658,0
0.023958,83.880243,-202.811324,68.778977,4.319178,-3.027372,5.760890,-2.147207,3.157599,-5.731450,2.215084,-0.194194,0.439332,-0.024490,0.669628,188.345012,0
0.025000,144.596648,-171.582187,6.758144,3.120318,-4.568193,5.086231,-0.020326,4.602169,-5.059979,0.190669,-0.146705,0.435347,-0.031958,-1.185212,188.495731,0
0.026042,186.155570,-123.355219,-53.145265,1.978008,-5.487715,3.717069,2.143868,5.715921,-3.771594,-1.979617,-0.073645,0.436981,-0.028224,-2.384071,188.495579,0
0.027083,188.673605,-44.841424,-111.596023,0.824388,-5.651028,1.701029,4.069255,5.822518,-1.790755,-3.779887,-0.044421,0.415685,-0.043161,-3.040051,188.495707,0
0.028125,163.833529,20.262568,-164.470076,-0.170892,-5.075882,-0.295169,5.225980,5.282182,0.206871,-5.039365,-0.022503,0.443709,-0.043161,-3.345421,188.420244,0
0.029167,100.349554,74.252128,-191.504167,-0.725082,-3.385950,-2.608853,5.673744,3.583986,2.447904,-5.377361,-0.029809,0.442795,-0.017021,-0.517922,188.495732,0
0.030208,29.776516,132.131739,-191.590341,-0.668532,-1.493652,-4.287564,5.278219,1.709353,4.302843,-5.167448,-0.037115,0.438744,-0.024490,1.517878,188.495803,0
0.031250,-32.777375,176.106230,-143.849811,0.213648,0.806929,-5.339239,3.990896,-0.547557,5.280672,-3.900854,-0.018850,0.446779,-0.050629,2.875078,188.507924,0
0.032292,-84.295012,202.780866,-68.681250,1.627398,3.139461,-5.652757,2.031927,-2.892686,5.788472,-2.008080,-0.073645,0.439594,-0.024490,4.379308,188.435604,0
0.033333,-145.782707,171.612134,-6.845076,2.792328,4.637679,-5.005878,-0.184507,-4.385040,5.066641,0.030566,-0.113828,0.438614,-0.013287,6.075808,188.495888,0
0.034375,-186.422886,124.267071,53.403030,3.934638,5.628206,-3.553376,-2.274074,-5.465711,3.769863,2.133254,-0.168623,0.438614,-0.061832,7.297288,188.495582,0
0.035417,-189.099716,46.345240,112.432387,5.054328,5.734715,-1.553210,-4.173341,-5.542902,1.738663,3.986892,-0.245336,0.437111,-0.028224,7.930648,188.495633,0
0.036458,-164.713340,-18.831237,164.666288,6.015678,5.163120,0.399333,-5.341260,-5.017269,-0.233782,5.200118,-0.234377,0.458668,-0.035692,7.817548,188.571024,0
0.037500,-101.569640,-73.521490,191.737311,6.592488,3.476738,2.752703,-5.803950,-3.407291,-2.432849,5.573692,-0.278213,0.461020,-0.050629,5.532928,188.495617,0
0.038542,-31.178082,-131.993065,191.392614,6.603798,1.587990,4.371886,-5.404693,-1.488549,-4.254214,5.317527,-0.230724,0.452985,-0.009553,3.361408,188.495703,0
0.039583,31.806823,-176.064203,144.316856,5.687688,-0.719691,5.443403,-4.132296,0.731604,-5.315977,4.100743,-0.205153,0.454292,-0.035692,1.947658,188.495635,0
0.040625,84.152463,-202.183117,69.936174,4.319178,-3.038023,5.752953,-2.139745,3.109814,-5.769220,2.197295,-0.186888,0.448412,-0.031958,0.590458,188.646542,0
0.041667,145.481363,-171.582187,7.915341,3.142938,-4.578844,5.074325,-0.012864,4.620547,-5.047389,0.172880,-0.146705,0.443840,-0.031958,-1.241762,188.495658,0
0.042708,186.042145,-124.249206,-53.182197,2.000628,-5.540969,3.693258,2.155062,5.646082,-3.767398,-1.929807,-0.080951,0.443186,-0.020755,-2.451931,188.495676,0
0.043750,188.730318,-45.880381,-112.211553,0.858318,-5.626176,1.740715,4.043135,5.745327,-1.799149,-3.772772,-0.055380,0.444820,-0.031958,-2.938261,188.495787,0
0.044792,163.742789,19.779332,-164.740910,-0.148272,-5.093634,-0.235640,5.211054,5.249101,0.181690,-4.989555,-0.040768,0.456709,-0.043161,-3.311491,188.721927,0
0.045833,100.474321,74.276290,-191.331819,-0.702462,-3.403701,-2.592979,5.666281,3.617068,2.431118,-5.384476,-0.026156,0.454422,-0.054364,-0.551852,188.571075,0
0.046875,29.572351,132.312953,-191.344129,-0.634602,-1.500752,-4.247878,5.293144,1.694650,4.260876,-5.160332,-0.000585,0.452789,-0.024490,1.382158,188.571189,0
0.047917,-33.094965,175.804207,-144.071402,0.202338,0.764325,-5.327333,3.994628,-0.525503,5.263885,-3.879507,-0.048074,0.444950,-0.024490,2.909008,188.495834,0
0.048959,-84.578574,202.672138,-68.361174,1.616088,3.103959,-5.613071,2.005807,-2.907389,5.729718,-2.040100,-0.059033,0.439920,-0.020755,4.458478,188.721944,0
0.050000,-145.249610,171.418839,-6.143371,2.792328,4.627028,-4.958255,-0.098685,-4.381365,5.012084,0.012777,-0.121134,0.434433,-0.058098,6.053188,188.571109,0
0.051042,-186.490941,123.240194,53.858523,3.968568,5.557201,-3.569251,-2.214372,-5.421602,3.723699,2.094118,-0.164970,0.433126,-0.020755,7.399078,188.571189,0
0.052083,-188.816154,44.665994,112.063069,5.054328,5.677910,-1.600833,-4.139759,-5.487765,1.751253,3.890830,-0.238030,0.455729,-0.058098,7.953268,188.570998,0
0.053125,-163.715200,-20.365512,164.666288,6.049608,5.134718,0.391396,-5.300215,-4.976836,-0.221192,5.150308,-0.238030,0.417448,-0.031958,7.941958,188.721929,0
0.054167,-100.242568,-74.451719,191.244887,6.581178,3.412833,2.681269,-5.736785,-3.377885,-2.411866,5.481188,-0.238030,0.430840,-0.058098,5.465068,188.571002,0
0.055208,-29.317912,-132.234683,191.454167,6.524628,1.612842,4.328231,-5.352454,-1.466495,-4.245821,5.274833,-0.227071,0.433910,-0.043161,3.248308,188.570989,0
0.056250,33.383431,-175.448077,143.972160,5.687688,-0.698389,5.415623,-4.087520,0.779389,-5.257224,4.061607,-0.212459,0.429076,-0.024490,2.094688,188.646755,0
0.057292,84.481395,-202.497221,68.483523,4.307868,-3.020271,5.713267,-2.091237,3.113490,-5.710466,2.211526,-0.190541,0.437699,-0.050629,0.624388,188.721985,0
0.058333,145.322568,-171.292246,6.450379,3.120318,-4.529140,5.046545,0.009524,4.602169,-5.022209,0.137302,-0.179582,0.435935,-0.035692,-1.241762,188.646525,0
0.059375,186.223625,-123.596837,-53.686932,1.944078,-5.477064,3.685321,2.121480,5.660785,-3.733824,-1.940481,-0.080951,0.435870,-0.002084,-2.372762,188.571279,0
0.060417,188.560180,-45.276336,-112.519319,0.835698,-5.622625,1.704997,4.039404,5.756354,-1.778165,-3.751425,-0.037115,0.442860,-0.031958,-3.017431,188.721954,0
0.061458,163.912926,20.045112,-164.888637,-0.148272,-5.061681,-0.259452,5.162546,5.223370,0.169100,-4.993113,-0.040768,0.468467,-0.035692,-3.345421,188.721880,0
0.062500,100.701171,74.602474,-191.393372,-0.691152,-3.371749,-2.589010,5.666281,3.572959,2.422724,-5.409381,0.014027,0.458407,-0.039427,-0.529232,188.721960,0
0.063542,30.502436,132.627056,-191.011743,-0.702462,-1.507853,-4.243910,5.244637,1.679947,4.281859,-5.178121,-0.048074,0.459583,-0.043161,1.483948,188.571094,0
0.064583,-32.335017,176.456576,-143.775947,0.179718,0.810479,-5.359082,3.975971,-0.562260,5.280672,-3.868834,-0.037115,0.456905,-0.046895,2.841148,188.721833,0
0.065625,-84.986904,202.164740,-69.222917,1.536918,3.096858,-5.648789,2.020733,-2.929443,5.742308,-2.011638,-0.113828,0.443252,-0.046895,4.390618,188.721867,0
0.066667,-146.633395,171.225545,-6.980492,2.781018,4.669631,-4.966192,-0.121073,-4.377689,5.070837,0.027009,-0.106522,0.441945,-0.065566,6.121048,188.721837,0
0.067708,-186.354831,124.448284,53.784659,3.934638,5.571402,-3.553376,-2.255417,-5.447332,3.753076,2.111907,-0.157664,0.444362,-0.020755,7.308598,188.571008,0
0.068750,-188.872866,46.055298,113.220265,5.088258,5.731164,-1.592896,-4.184535,-5.553929,1.759647,3.965545,-0.197847,0.451809,-0.035692,7.919338,188.721922,0
0.069792,-164.191585,-19.809790,164.764773,6.072228,5.131167,0.371553,-5.322603,-5.046675,-0.229586,5.178771,-0.252642,0.452528,-0.028224,7.817548,188.721869,0
0.070833,-99.936320,-74.282587,191.921970,6.603798,3.505140,2.764609,-5.826338,-3.355830,-2.487406,5.591481,-0.234377,0.460432,-0.017021,5.532928,188.721837,0
0.071875,-29.669530,-132.343411,190.900190,6.592488,1.577339,4.359980,-5.382305,-1.503252,-4.283591,5.328200,-0.241683,0.454422,-0.043161,3.372718,188.571084,0
0.072917,33.145238,-176.607844,143.393561,5.676378,-0.701940,5.491026,-4.147222,0.757334,-5.320174,4.093627,-0.223418,0.458799,-0.024490,1.992898,188.721905,0
0.073958,84.912411,-202.038146,68.409659,4.296558,-3.048674,5.725173,-2.162133,3.150247,-5.744040,2.197295,-0.164970,0.443644,-0.061832,0.556528,188.721974,0
0.075000,145.730898,-171.183518,6.117992,3.142938,-4.582394,5.074325,0.031913,4.646278,-5.051586,0.126628,-0.132093,0.436981,-0.031958,-1.253072,188.797278,0
0.076042,185.792610,-122.859902,-54.314773,1.989318,-5.509016,3.685321,2.128943,5.682839,-3.746414,-1.961828,-0.044421,0.436131,-0.058098,-2.451931,188.571192,0
0.077083,188.809715,-43.814547,-112.790152,0.801768,-5.661678,1.697060,4.039404,5.796787,-1.786559,-3.804792,-0.048074,0.423001,-0.054364,-2.994811,188.721900,0
0.078125,163.232376,21.663953,-164.433144,-0.170892,-5.047480,-0.259452,5.170009,5.234398,0.261428,-4.978882,-0.033462,0.450111,-0.013287,-3.345421,188.722007,0
0.079167,98.784289,75.085711,-192.070455,-0.713772,-3.368199,-2.604885,5.684938,3.561931,2.435314,-5.395150,-0.007891,0.447759,-0.024490,-0.495302,188.797271,0
0.080208,28.540183,132.856594,-190.790152,-0.713772,-1.475900,-4.255816,5.281950,1.716705,4.231499,-5.131869,-0.007891,0.413660,-0.028224,1.450018,188.571011,0
0.081250,-33.673432,176.649871,-143.000379,0.224958,0.814029,-5.355113,3.916269,-0.492421,5.289065,-3.875949,-0.040768,0.420519,-0.031958,2.954248,188.797322,0
0.082292,-85.213754,202.358034,-67.351705,1.593468,3.093308,-5.609103,1.968494,-2.944146,5.717128,-1.993848,-0.099216,0.437177,-0.024490,4.458478,188.797409,0
0.083333,-146.281777,171.056412,-5.429356,2.826258,4.623478,-4.918569,-0.165850,-4.351959,5.028871,0.083934,-0.143052,0.436131,-0.043161,6.098428,188.797264,0
0.084375,-186.445571,123.216032,54.461743,3.968568,5.582053,-3.533533,-2.251686,-5.406899,3.694322,2.136812,-0.186888,0.435478,-0.050629,7.387768,188.571239,0
0.085417,-188.929579,44.907612,113.023296,5.054328,5.685011,-1.580990,-4.147222,-5.491441,1.780630,3.933524,-0.201500,0.442272,-0.035692,7.930648,188.721875,0
0.086458,-163.749228,-20.546726,164.887879,6.038298,5.088564,0.427113,-5.270364,-4.995215,-0.263159,5.168097,-0.234377,0.456382,-0.013287,7.941958,188.797293,0
0.087500,-100.151828,-74.536286,191.835796,6.649038,3.380880,2.752703,-5.762905,-3.348479,-2.466423,5.563018,-0.263601,0.446910,-0.039427,5.465068,188.797394,0
0.088542,-30.304710,-132.862890,190.875569,6.592488,1.559588,4.352043,-5.344991,-1.462819,-4.350738,5.299737,-0.248989,0.458277,-0.058098,3.259618,188.571038,0
0.089583,32.941073,-176.571601,143.258144,5.676378,-0.716141,5.439435,-4.087520,0.753658,-5.311781,4.065165,-0.223418,0.452201,-0.013287,2.083378,188.721853,0
0.090625,85.184631,-202.050227,68.815909,4.262628,-3.020271,5.733110,-2.124819,3.146572,-5.744040,2.215084,-0.194194,0.443970,-0.031958,0.601768,188.797257,0
0.091667,146.524873,-170.966061,6.745833,3.086388,-4.575293,5.038608,0.031913,4.609520,-5.047389,0.162207,-0.128440,0.440116,-0.039427,-1.264382,188.797251,0
0.092708,186.132885,-123.717646,-54.142424,1.932768,-5.526768,3.637698,2.132674,5.704894,-3.750611,-2.015195,-0.091910,0.443252,-0.024490,-2.384071,188.571058,0
0.093750,188.571523,-45.336741,-113.639584,0.779148,-5.604874,1.716903,4.058061,5.771057,-1.769772,-3.769214,-0.044421,0.446910,-0.031958,-3.040051,188.721896,0
0.094792,163.708761,20.492105,-165.036364,-0.170892,-5.086533,-0.243577,5.173740,5.256452,0.223657,-5.028692,-0.004238,0.453051,-0.058098,-3.356731,188.797393,0
0.095833,99.328729,75.013225,-192.218182,-0.736392,-3.407252,-2.672351,5.692401,3.528850,2.502461,-5.437844,-0.037115,0.463829,-0.031958,-0.551852,188.721958,0
0.096875,29.413556,133.315668,-190.445455,-0.679842,-1.475900,-4.319313,5.278219,1.676272,4.286056,-5.156774,-0.066339,0.456447,-0.065566,1.495258,188.571129,0
0.097917,-33.333157,177.737152,-142.680303,0.224958,0.796278,-5.347176,3.953583,-0.562260,5.326836,-3.858160,-0.018850,0.446583,-0.069301,2.875078,188.721902,0
0.098958,-85.372549,202.116416,-67.893371,1.570848,3.160763,-5.680537,1.979688,-2.966201,5.746505,-2.000964,-0.088257,0.441749,-0.061832,4.481098,188.797318,0
0.100000,-147.245890,170.947684,-5.269318,2.860188,4.705134,-5.009847,-0.147193,-4.443852,5.070837,0.091050,-0.113828,0.439267,-0.046895,6.154978,188.721936,0
0.101042,-185.844419,122.901929,55.015720,3.991188,5.560751,-3.573219,-2.281537,-5.491441,3.715306,2.158159,-0.146705,0.440573,-0.024490,7.263358,188.571129,0
0.102083,-189.088374,43.759926,113.823485,5.099568,5.713413,-1.553210,-4.247969,-5.542902,1.721877,4.033144,-0.238030,0.430579,-0.050629,7.953268,188.721945,0
0.103125,-163.522378,-22.020596,164.555493,6.060918,5.113416,0.435050,-5.382305,-5.024621,-0.300929,5.182328,-0.241683,0.447759,-0.017021,7.783618,188.721820,0
0.104167,-97.679162,-75.116169,192.992993,6.615108,3.412833,2.800326,-5.848726,-3.319073,-2.562947,5.616386,-0.263601,0.456905,-0.028224,5.465068,188.646404,0
0.105208,-28.308429,-132.887052,190.432387,6.569868,1.502783,4.455226,-5.374842,-1.396656,-4.291984,5.303295,-0.248989,0.422217,-0.017021,3.270928,188.571091,0
0.106250,33.814446,-177.852177,142.199432,5.665068,-0.740993,5.522775,-4.091251,0.790416,-5.307584,4.061607,-0.201500,0.462588,-0.035692,1.925038,188.721996,0
0.107292,85.241343,-201.881095,67.203220,4.240008,-3.062875,5.733110,-2.057654,3.175978,-5.706270,2.161717,-0.175929,0.443317,-0.035692,0.522598,188.721909,0
0.108333,146.808436,-171.002304,5.096212,3.063768,-4.624997,5.098136,0.087883,4.712441,-5.043192,0.083934,-0.121134,0.436458,-0.050629,-1.253072,188.646487,0
0.109375,185.565760,-122.521636,-55.078030,1.887528,-5.519667,3.637698,2.203570,5.708569,-3.733824,-1.968943,-0.062686,0.438418,-0.035692,-2.451931,188.571127,0
0.110417,188.979853,-43.874951,-113.516478,0.824388,-5.682980,1.681186,4.080449,5.778409,-1.744592,-3.840371,-0.040768,0.438614,-0.024490,-3.017431,188.646630,0
0.111458,163.334459,21.833086,-164.691667,-0.125652,-5.047480,-0.279295,5.207323,5.249101,0.244641,-5.021576,-0.011544,0.461020,-0.046895,-3.345421,188.721925,0
0.112500,98.614151,75.363571,-192.747538,-0.691152,-3.361098,-2.648539,5.707326,3.609716,2.510855,-5.444960,0.003068,0.462327,-0.039427,-0.517922,188.646518,0
0.113542,29.345501,133.424396,-190.346970,-0.679842,-1.511403,-4.251847,5.274487,1.694650,4.277663,-5.142543,-0.037115,0.451025,-0.031958,1.461328,188.571192,0
0.114583,-33.242417,177.809637,-142.594129,0.202338,0.796278,-5.303522,3.998359,-0.514476,5.297459,-3.890181,-0.037115,0.456513,-0.020755,2.909008,188.721944,0
0.115625,-85.769537,201.911041,-67.942614,1.593468,3.171414,-5.648789,2.002076,-2.914740,5.759095,-2.040100,-0.121134,0.447629,-0.050629,4.503718,188.721896,0
0.116667,-147.756302,170.947684,-5.700189,2.781018,4.683832,-4.990004,-0.143462,-4.414446,5.066641,0.037682,-0.132093,0.444820,-0.043161,6.132358,188.571174,0
0.117708,-186.434229,123.590540,54.843371,3.934638,5.574952,-3.581156,-2.266611,-5.465711,3.769863,2.129696,-0.205153,0.444624,-0.065566,7.410388,188.571096,0
0.118750,-189.122401,45.415010,114.217425,5.088258,5.713413,-1.640519,-4.177073,-5.557605,1.793220,3.965545,-0.219765,0.447563,-0.031958,7.919338,188.646554,0
0.119792,-163.885338,-20.425917,165.257197,6.026988,5.156019,0.387427,-5.337529,-5.083433,-0.200209,5.193002,-0.248989,0.459518,-0.043161,7.919338,188.721983,0
0.120833,-99.425908,-74.983279,192.340531,6.626418,3.466087,2.732861,-5.811413,-3.377885,-2.495800,5.630617,-0.270907,0.455925,-0.035692,5.465068,188.571085,0
0.121875,-29.748927,-133.321964,190.370834,6.558558,1.584439,4.399666,-5.397231,-1.462819,-4.312968,5.338874,-0.267254,0.456709,-0.061832,3.259618,188.495779,0
0.122917,33.564911,-177.441426,142.581061,5.687688,-0.716141,5.487058,-4.121102,0.742631,-5.349551,4.047375,-0.230724,0.445212,-0.009553,2.105998,188.571156,0
0.123958,85.626988,-201.905257,67.978788,4.273938,-3.006070,5.776764,-2.147207,3.135544,-5.752433,2.211526,-0.175929,0.447171,-0.039427,0.601768,188.721893,0
0.125000,146.944546,-170.712362,5.588636,3.120318,-4.582394,5.098136,0.005793,4.653629,-5.038995,0.119513,-0.146705,0.443774,-0.069301,-1.298312,188.571120,0
0.126042,185.826637,-122.461232,-55.102652,1.898838,-5.509016,3.701195,2.125211,5.704894,-3.746414,-1.961828,-0.117481,0.439855,-0.076769,-2.372762,188.495635,0
0.127083,188.696290,-43.198421,-114.107387,0.790458,-5.640377,1.704997,4.072986,5.749003,-1.790755,-3.776330,-0.062686,0.447171,-0.058098,-3.062671,188.571114,0
0.128125,162.971499,22.594183,-164.827084,-0.159582,-5.072332,-0.239609,5.229711,5.307913,0.227854,-5.021576,-0.029809,0.432538,-0.009553,-3.356731,188.646453,0
