1-Time,2-VGERA,3-VGERB,4-VGERC,5-VN,6-IGERAN,7-IGERBN,8-IGERCN,9-IGERAT,10-IGERBT,11-IGERCT,12-IN,13-IFD,14-IFAULT,15-VFAULT,16-Speed (rad/s),17-Active Power,18-Reactive Power,19-FAULT 
0.000000,-160.335135,151.328296,1.673864,2.894118,6.345363,-2.644571,-3.762890,-5.958261,2.892754,3.545719,-0.201500,0.307637,-0.009553,-159.626998,188.570693,1455.528198,-869.773573,0
0.001042,-203.686172,88.193491,52.898296,3.900708,5.827022,-0.199923,-5.464395,-5.539226,0.488049,5.292622,-0.256295,0.310969,-0.065566,-194.936817,188.570553,1455.574001,-869.921763,0
0.002083,-178.403739,33.442834,131.242993,5.393628,4.492117,2.105824,-6.192012,-4.219632,-1.786559,5.982844,-0.245336,0.318024,-0.039427,-169.297048,188.721384,1456.149947,-870.565319,0
0.003125,-132.251104,-17.200315,191.885038,6.513318,2.748931,3.895656,-6.020369,-2.495705,-3.733824,5.968613,-0.263601,0.335270,-0.046895,-123.672509,188.796785,1456.452329,-870.615060,0
0.004167,-72.566866,-75.563162,200.403978,6.671658,0.025867,5.689455,-4.968123,0.216999,-5.378928,4.872796,-0.219765,0.329717,-0.050629,-64.068810,188.570653,1456.503919,-870.198930,0
0.005208,-18.565222,-153.388346,175.622728,6.275808,-2.253411,6.368083,-3.348708,2.554776,-6.281217,3.406963,-0.212459,0.322205,-0.073035,-12.099361,188.570645,1456.529944,-869.598951,0
0.006250,28.698978,-193.376138,111.816856,5.043018,-4.206064,5.768827,-0.818840,4.480869,-5.655909,0.998301,-0.157664,0.305808,-0.054364,33.694828,188.721331,1456.594397,-869.829577,0
0.007292,98.920399,-198.172257,51.445644,3.934638,-5.906648,4.740964,1.606551,6.263608,-4.795587,-1.421035,-0.110175,0.299537,-0.039427,103.477526,188.796798,1457.166823,-870.138477,0
0.008333,159.977079,-151.334592,-1.650000,2.894118,-6.140966,2.828107,3.610296,6.517235,-2.894485,-3.335157,-0.059033,0.308356,-0.039427,164.325325,188.570510,1457.914012,-869.873025,0
0.009375,203.226033,-87.789037,-52.997538,1.898838,-5.668779,0.383459,5.326727,6.076144,-0.418437,-5.025134,-0.022503,0.312275,-0.073035,199.544664,188.645955,1456.910249,-869.190035,0
0.010417,178.442670,-33.159189,-131.009849,0.394608,-4.358726,-1.870697,6.039418,4.749199,1.793220,-5.715356,0.010374,0.309858,-0.058098,174.221575,188.721358,1456.946959,-868.969398,0
0.011458,131.915733,17.423556,-191.898107,-0.713772,-2.583587,-3.696245,5.856581,3.028948,3.702716,-5.718914,0.028639,0.326320,-0.024490,128.336906,188.796843,1456.919808,-868.782701,0
0.012500,72.254180,75.895131,-200.220076,-0.860802,0.061370,-5.438454,4.781947,0.375056,5.368803,-4.648002,-0.004238,0.304240,-0.028224,68.665347,188.570696,1456.216577,-868.728166,0
0.013542,18.207165,153.768638,-175.278788,-0.453642,2.383252,-6.164704,3.196114,-1.995803,6.233321,-3.153706,-0.044421,0.289673,0.005384,16.741138,188.570662,1454.875300,-868.547270,0
0.014583,-29.079719,193.164466,-111.596023,0.756528,4.318154,-5.529731,0.725948,-3.837354,5.654178,-0.787738,-0.128440,0.297577,-0.039427,-28.962571,188.721436,1453.933102,-867.576813,0
0.015625,-99.210400,198.516307,-50.867803,1.932768,5.976134,-4.585208,-1.699443,-5.627444,4.785462,1.613808,-0.132093,0.300713,-0.046895,-98.767889,188.796751,1453.270786,-866.653932,0
0.016667,-159.802038,151.509509,2.400189,2.928048,6.277907,-2.664413,-3.706920,-5.884746,2.838197,3.538603,-0.205153,0.309532,-0.028224,-159.072808,188.570522,1451.992443,-866.338961,0
0.017708,-203.584090,88.048521,53.267614,3.912018,5.777318,-0.191986,-5.430813,-5.484090,0.458672,5.264159,-0.241683,0.309858,-0.046895,-194.948127,188.646007,1451.113153,-866.091689,0
0.018750,-178.732671,33.684453,130.996781,5.393628,4.435313,2.046296,-6.136042,-4.182874,-1.752985,5.922361,-0.245336,0.319853,-0.028224,-169.466698,188.721507,1450.259048,-865.529661,0
0.019792,-132.228419,-16.994940,192.168182,6.581178,2.709878,3.875813,-5.915891,-2.469975,-3.649890,5.890340,-0.281866,0.330370,-0.058098,-123.559409,188.796854,1449.063080,-864.504203,0
0.020833,-72.793716,-75.587324,199.936175,6.660348,0.022317,5.590241,-4.897227,0.231702,-5.362141,4.812312,-0.216112,0.316325,-0.058098,-64.057500,188.570649,1448.038660,-864.488410,0
0.021875,-18.497167,-153.871582,175.191857,6.207948,-2.281814,6.316492,-3.266618,2.598885,-6.205676,3.335806,-0.223418,0.289150,-0.058098,-11.793991,188.646031,1446.616609,-864.638424,0
0.022917,29.027911,-192.760012,111.693750,5.009088,-4.184763,5.697393,-0.803914,4.436760,-5.588762,0.966280,-0.164970,0.300647,-0.058098,34.011508,188.721454,1445.330248,-864.047160,0
0.023958,99.215304,-198.244743,50.657765,3.900708,-5.832092,4.748901,1.621476,6.215823,-4.741030,-1.403246,-0.102869,0.300190,-0.005818,103.737656,188.796784,1444.645914,-863.212466,0
0.025000,159.432639,-151.105055,-2.462500,2.916738,-6.069960,2.820169,3.576714,6.454747,-2.839928,-3.335157,-0.048074,0.308813,-0.017021,163.918165,188.570689,1443.420562,-862.880257,0
0.026042,203.328116,-87.897765,-53.305303,1.898838,-5.636826,0.355679,5.274487,6.009981,-0.418437,-5.003787,-0.004238,0.311295,-0.020755,199.725624,188.647355,1442.713398,-862.555769,0
0.027083,178.181792,-33.412888,-131.317614,0.394608,-4.330324,-1.854822,6.039418,4.694062,1.810007,-5.669104,-0.015197,0.319788,-0.009553,174.085855,188.728870,1441.682577,-862.543539,0
0.028125,132.244665,17.520203,-191.996591,-0.759012,-2.569386,-3.660528,5.826730,2.981163,3.673339,-5.701125,-0.029809,0.329521,-0.050629,128.597036,188.721511,1441.117243,-862.565233,0
0.029167,72.254180,76.378367,-199.949243,-0.906042,0.139476,-5.454328,4.815529,0.360353,5.406573,-4.623097,-0.018850,0.313386,-0.035692,68.586177,188.570598,1441.052859,-862.945409,0
0.030208,18.093740,153.768638,-175.278788,-0.487572,2.415205,-6.188516,3.173726,-2.006830,6.245911,-3.128802,-0.055380,0.310838,-0.013287,16.333978,188.721414,1440.905236,-863.233639,0
0.031250,-29.317912,193.442327,-111.017425,0.790458,4.360757,-5.549574,0.696097,-3.874111,5.637391,-0.794854,-0.091910,0.296467,-0.058098,-29.335801,188.721409,1441.016050,-863.280466,0
0.032292,-99.357853,198.190122,-50.055303,1.955388,6.040039,-4.565365,-1.733025,-5.667877,4.814839,1.670734,-0.132093,0.296140,-0.046895,-98.948849,188.721458,1441.426558,-863.816973,0
0.033333,-160.380505,150.518875,2.683333,2.916738,6.288558,-2.632665,-3.729308,-5.936207,2.825607,3.577740,-0.186888,0.304632,-0.039427,-159.943678,188.570573,1441.937598,-864.218108,0
0.034375,-203.482007,87.746498,53.587690,3.912018,5.834123,-0.144363,-5.412156,-5.502468,0.488049,5.249928,-0.197847,0.312275,-0.031958,-194.676687,188.721293,1442.326310,-863.626566,0
0.035417,-178.347026,33.769019,131.809281,5.393628,4.499218,2.105824,-6.177087,-4.193901,-1.807542,5.933034,-0.259948,0.319853,-0.028224,-169.206568,188.721418,1442.574178,-864.172531,0
0.036459,-132.546009,-17.514419,191.823485,6.581178,2.773783,3.891687,-5.979324,-2.510408,-3.742217,5.943708,-0.252642,0.336903,-0.009553,-123.695129,188.583320,1443.745187,-865.093353,0
0.037502,-72.691634,-76.747091,200.207008,6.671658,0.072021,5.625958,-4.949466,0.228026,-5.408304,4.865680,-0.245336,0.319461,-0.035692,-63.706890,188.575428,1445.142143,-865.302632,0
0.038542,-18.349714,-153.654126,175.339584,6.241878,-2.274713,6.340303,-3.274081,2.613588,-6.264430,3.353595,-0.197847,0.309074,-0.020755,-11.579101,188.721878,1445.829977,-865.777223,0
0.039583,29.209391,-193.678161,111.102841,5.043018,-4.245117,5.725173,-0.792720,4.513951,-5.643319,0.948491,-0.139399,0.295944,-0.043161,34.226398,188.721969,1446.882782,-866.749365,0
0.040625,99.430811,-197.954801,50.116099,3.900708,-5.913748,4.756838,1.625208,6.256256,-4.778801,-1.421035,-0.102869,0.299145,-0.035692,103.816826,188.646667,1447.561870,-866.934238,0
0.041666,160.090504,-150.271473,-2.745644,2.882808,-6.158717,2.875730,3.632685,6.498856,-2.839928,-3.331599,-0.007891,0.309989,-0.050629,164.868205,188.571062,1448.166819,-866.767045,0
0.042708,203.180663,-87.076264,-53.637690,1.910148,-5.675880,0.359647,5.315533,6.068793,-0.460404,-5.042923,-0.051727,0.315999,-0.028224,199.431564,188.721889,1449.323007,-866.475960,0
0.043750,178.068367,-33.098785,-132.068561,0.383298,-4.348075,-1.878634,6.035687,4.767577,1.797417,-5.715356,0.043251,0.325928,-0.050629,174.187645,188.721878,1450.834653,-866.294775,0
0.044791,132.221980,17.592688,-192.119698,-0.713772,-2.611989,-3.704182,5.867775,3.010569,3.706912,-5.726030,-0.026156,0.340234,-0.076769,128.563106,188.646556,1451.492832,-866.555688,0
0.045833,72.571770,76.764956,-200.170834,-0.928662,0.096873,-5.430516,4.856574,0.371380,5.406573,-4.669349,-0.004238,0.317632,-0.028224,68.642727,188.571143,1452.296901,-866.532432,0
0.046881,17.640040,154.421007,-174.835607,-0.431022,2.436506,-6.132956,3.169995,-2.003154,6.279485,-3.167938,-0.062686,0.315019,-0.024490,15.689308,188.721873,1453.260702,-866.194419,0
0.047917,-29.567447,193.696026,-110.882008,0.790458,4.374958,-5.541637,0.718485,-3.866760,5.654178,-0.816201,-0.106522,0.297773,-0.046895,-29.607241,188.721902,1453.750140,-865.881999,0
0.048958,-99.993033,198.274689,-49.858333,1.932768,6.032938,-4.557428,-1.721831,-5.660526,4.768676,1.603135,-0.175929,0.296467,-0.043161,-99.288149,188.646516,1453.720269,-865.008112,0
0.050000,-160.267080,150.434309,3.311174,2.950668,6.316960,-2.656476,-3.729308,-5.932531,2.875967,3.559950,-0.186888,0.305743,-0.031958,-160.000228,188.571053,1454.248309,-864.254585,0
0.051042,-203.538720,86.949158,53.907765,3.900708,5.851874,-0.211829,-5.456932,-5.495117,0.467065,5.285506,-0.219765,0.310577,-0.061832,-194.699307,188.721889,1454.293302,-864.464543,0
0.052083,-178.210916,33.104569,132.030872,5.348388,4.485017,2.101856,-6.184550,-4.208604,-1.794952,5.943708,-0.267254,0.314823,-0.061832,-169.206568,188.815767,1454.695883,-864.072142,0
0.053125,-132.228419,-17.272801,192.328220,6.490698,2.777333,3.895656,-6.001712,-2.510408,-3.712841,5.940150,-0.274560,0.325993,-0.031958,-123.683819,188.593534,1454.674742,-863.724493,0
0.054167,-72.997881,-76.541716,199.985417,6.705588,0.057820,5.621990,-4.964392,0.180241,-5.391518,4.872796,-0.241683,0.321813,-0.031958,-64.046190,188.582828,1454.788787,-863.194291,0
0.055208,-18.621934,-154.209848,175.290341,6.196638,-2.274713,6.379989,-3.296469,2.562127,-6.239250,3.392732,-0.183235,0.315607,-0.013287,-11.703511,188.728212,1455.203455,-862.320030,0
0.056250,29.447583,-193.533190,111.189015,5.031708,-4.245117,5.752953,-0.818840,4.506599,-5.655909,0.962722,-0.132093,0.311426,-0.039427,34.497838,188.803363,1455.453060,-862.097761,0
0.057292,99.997936,-198.015205,50.140720,3.878088,-5.888896,4.796524,1.647596,6.296689,-4.795587,-1.438824,-0.084604,0.299733,-0.058098,104.223986,188.578499,1456.072507,-862.554979,0
0.058333,160.294669,-149.921127,-3.139583,2.860188,-6.151617,2.863824,3.647610,6.480477,-2.856715,-3.352946,-0.048074,0.305285,-0.046895,165.060475,188.502010,1456.169462,-862.361458,0
0.059375,203.350801,-86.206439,-53.797727,1.876218,-5.682980,0.355679,5.360309,6.116578,-0.410043,-5.092733,-0.011544,0.309140,-0.043161,199.567284,188.738477,1456.695596,-863.094704,0
0.060417,177.614667,-32.349769,-132.524053,0.405918,-4.330324,-1.934194,6.102852,4.745523,1.797417,-5.754492,-0.018850,0.323511,-0.050629,173.859655,188.741925,1456.915012,-863.052698,0
0.061466,131.666198,18.667889,-192.193561,-0.759012,-2.555185,-3.755774,5.845387,2.973811,3.778256,-5.697567,-0.004238,0.329456,-0.043161,128.008916,188.593344,1456.610139,-863.496165,0
0.062508,71.755110,78.480445,-200.146213,-0.928662,0.132376,-5.537668,4.849111,0.316244,5.486310,-4.672907,-0.026156,0.321878,-0.024490,67.749237,188.591062,1457.397808,-864.185999,0
0.063550,17.526615,154.529735,-174.712501,-0.442332,2.464908,-6.232170,3.173726,-2.032560,6.350829,-3.160822,-0.091910,0.320767,-0.050629,15.474418,188.728189,1457.987004,-864.942854,0
0.064586,-29.987120,194.879955,-109.589394,0.813078,4.410461,-5.632914,0.684902,-3.969681,5.767488,-0.801970,-0.106522,0.314300,-0.043161,-30.172741,188.801032,1459.934835,-866.014344,0
0.065628,-100.492103,197.501511,-49.525947,1.978008,6.075541,-4.569334,-1.807653,-5.715662,4.793856,1.684965,-0.146705,0.298622,-0.069301,-99.717929,188.573475,1460.254989,-866.967860,0
0.066670,-162.047853,148.718820,3.225000,2.961978,6.377315,-2.636633,-3.848712,-6.017073,2.859180,3.656012,-0.186888,0.302999,-0.054364,-161.945548,188.570620,1461.345259,-868.095748,0
0.067712,-203.255157,85.704825,54.338637,3.934638,5.841223,-0.168174,-5.483052,-5.590686,0.378935,5.345989,-0.241683,0.309009,-0.024490,-194.065947,188.721509,1462.120499,-869.100557,0
0.068760,-177.156063,31.497809,134.788447,5.450178,4.527620,2.201070,-6.330073,-4.157144,-1.912459,6.071790,-0.212459,0.320571,-0.028224,-168.448798,188.796809,1463.273147,-870.569966,0
0.069805,-131.445786,-18.855399,191.885038,6.468078,2.699227,3.955184,-5.994250,-2.414838,-3.767398,5.954381,-0.252642,0.322009,-0.031958,-122.812949,188.570638,1462.790772,-871.127790,0
0.070838,-72.362701,-78.003505,200.317804,6.682968,0.022317,5.725173,-4.997974,0.239053,-5.496435,4.915490,-0.234377,0.319004,-0.054364,-63.401520,188.570658,1464.208293,-872.274174,0
0.071884,-18.009439,-154.185686,174.724054,6.219258,-2.349269,6.423643,-3.281544,2.654021,-6.327380,3.332248,-0.205153,0.319984,-0.024490,-11.024911,188.721482,1464.241260,-873.781903,0
0.072922,29.651748,-195.284921,109.748675,4.975158,-4.333874,5.816450,-0.770332,4.543357,-5.706270,0.934259,-0.124787,0.312471,-0.009553,34.893688,188.721433,1465.313745,-874.163579,0
0.073962,100.542376,-197.181623,49.968371,3.855468,-5.942150,4.740964,1.677447,6.381232,-4.820767,-1.485076,-0.088257,0.301888,-0.050629,104.710316,188.570577,1465.972307,-875.018979,0
0.075004,162.279606,-148.435175,-3.102652,2.860188,-6.272326,2.832075,3.740894,6.605453,-2.865109,-3.449008,-0.044421,0.308160,-0.069301,167.424265,188.646004,1467.848902,-876.274413,0
0.076042,203.192006,-85.626555,-53.957765,1.898838,-5.718483,0.371553,5.360309,6.134956,-0.405847,-5.092733,0.014027,0.311361,-0.050629,198.990474,188.721364,1468.001586,-876.061479,0
0.077083,177.410502,-31.479944,-133.201137,0.394608,-4.376478,-1.918320,6.158822,4.767577,1.868761,-5.839881,-0.004238,0.323576,-0.039427,173.814415,188.721391,1469.097218,-877.062421,0
0.078125,131.031018,18.293381,-192.193561,-0.691152,-2.590688,-3.759743,5.923746,3.028948,3.786649,-5.761608,0.010374,0.325014,-0.046895,128.336906,188.570582,1470.116546,-876.908775,0
0.079166,72.061357,77.707267,-200.404735,-0.849492,0.096873,-5.593228,4.908813,0.345650,5.532474,-4.740506,-0.015197,0.315541,-0.069301,68.733207,188.570653,1471.173964,-877.351354,0
0.080208,18.354618,154.505573,-175.020266,-0.431022,2.425855,-6.228202,3.278205,-2.054615,6.371812,-3.224863,-0.073645,0.326059,-0.061832,16.616728,188.721409,1471.955962,-877.828702,0
0.081250,-29.692215,194.976602,-109.872538,0.767838,4.442413,-5.656726,0.707291,-3.980708,5.771685,-0.794854,-0.084604,0.317044,-0.076769,-29.867371,188.721393,1471.950554,-878.222608,0
0.082291,-100.843720,197.610239,-49.981440,1.944078,6.107494,-4.612988,-1.796459,-5.745068,4.861003,1.663618,-0.164970,0.301301,-0.043161,-99.932819,188.574900,1473.123965,-878.253095,0
0.083333,-162.047853,148.984600,3.089583,2.950668,6.402167,-2.668382,-3.848712,-6.002370,2.871770,3.631107,-0.190541,0.307180,-0.035692,-162.058648,188.571118,1473.106025,-877.933868,0
0.084375,-203.527377,85.813553,54.289394,3.934638,5.887377,-0.172143,-5.524097,-5.601714,0.437689,5.367337,-0.223418,0.309532,-0.024490,-194.258217,188.725850,1473.812586,-877.712694,0
0.085416,-177.439626,31.413243,133.212690,5.427558,4.538271,2.137573,-6.315148,-4.278444,-1.853706,6.075348,-0.281866,0.324687,-0.039427,-168.663688,188.722040,1474.813421,-876.841729,0
0.086458,-131.026114,-18.154707,192.365152,6.558558,2.766682,3.943279,-6.065146,-2.506732,-3.754807,6.007749,-0.256295,0.312994,0.001650,-123.118319,188.570957,1476.129362,-876.369043,0
0.087500,-71.784234,-77.604835,200.354735,6.682968,0.032968,5.752953,-5.076333,0.228026,-5.509025,4.972416,-0.205153,0.328149,-0.073035,-63.774750,188.646437,1476.806039,-876.204931,0
0.088541,-18.565222,-154.463546,175.044129,6.207948,-2.310216,6.427612,-3.348708,2.598885,-6.348364,3.417637,-0.179582,0.325014,-0.039427,-11.929711,188.721989,1478.077324,-875.603983,0
0.089583,29.572351,-195.067465,110.019508,5.009088,-4.337425,5.856136,-0.800183,4.561735,-5.769220,0.973396,-0.143052,0.316129,-0.043161,34.757968,188.646632,1479.067429,-875.723603,0
0.090625,100.882651,-197.229947,50.288447,3.866778,-5.963452,4.808430,1.718492,6.373880,-4.854341,-1.470845,-0.080951,0.301823,-0.017021,104.959136,188.571038,1479.564251,-875.509986,0
0.091666,162.211551,-148.423094,-2.696402,2.894118,-6.300728,2.843981,3.785671,6.682643,-2.886092,-3.452566,-0.044421,0.308878,-0.046895,167.345095,188.646487,1480.412493,-875.969607,0
0.092709,203.248718,-85.179562,-54.474811,1.876218,-5.768187,0.359647,5.382697,6.138632,-0.443617,-5.178121,-0.026156,0.311687,-0.058098,198.911304,188.721878,1481.297954,-876.263251,0
0.093750,176.956802,-30.996708,-133.927463,0.371988,-4.458134,-1.993723,6.240912,4.808011,1.927515,-5.914596,-0.022503,0.295095,-0.054364,173.328085,188.571047,1482.435260,-877.049770,0
0.094791,130.690743,18.837021,-192.205872,-0.747702,-2.583587,-3.767680,5.994642,3.043651,3.816026,-5.843439,-0.011544,0.321094,-0.065566,127.782716,188.571138,1483.612415,-877.327369,0
0.095836,70.745627,78.903276,-200.675569,-0.906042,0.139476,-5.644820,4.987172,0.305217,5.608014,-4.804547,-0.007891,0.315803,-0.050629,67.896267,188.721849,1485.092601,-877.752112,0
0.096875,17.934945,154.348522,-174.921781,-0.464952,2.472009,-6.363134,3.252085,-2.080345,6.417976,-3.242653,-0.059033,0.322270,-0.046895,16.582798,188.721922,1485.665281,-878.075612,0
0.097917,-29.805640,196.329663,-109.121591,0.790458,4.559573,-5.748003,0.711022,-4.057899,5.843029,-0.833990,-0.084604,0.316064,-0.017021,-30.116191,188.571129,1487.509393,-878.596576,0
0.098958,-101.229365,196.994113,-50.301515,1.898838,6.164298,-4.644737,-1.807653,-5.825934,4.894576,1.720544,-0.168623,0.304240,-0.024490,-100.351289,188.571129,1488.156075,-879.777596,0
0.100000,-163.919365,147.897319,2.449432,2.928048,6.515776,-2.704099,-3.908414,-6.134697,2.943114,3.748516,-0.197847,0.309074,-0.031958,-164.003968,188.721965,1490.622393,-881.249859,0
0.101042,-203.334555,85.511531,54.437121,3.923328,5.940631,-0.152300,-5.565142,-5.664201,0.412508,5.481188,-0.248989,0.312145,-0.020755,-193.771887,188.721951,1491.686357,-882.609548,0
0.102083,-177.042638,31.135382,134.850000,5.427558,4.577324,2.212976,-6.445745,-4.311525,-1.925049,6.221220,-0.278213,0.326843,-0.050629,-168.403558,188.571100,1493.670193,-884.165995,0
0.103125,-130.629126,-18.758752,191.921970,6.513318,2.748931,3.994870,-6.124848,-2.521435,-3.826151,6.118042,-0.219765,0.325405,-0.058098,-122.292689,188.495694,1495.084185,-884.951525,0
0.104167,-70.298366,-78.631712,200.921023,6.694278,0.036518,5.848199,-5.169617,0.246405,-5.630729,5.047130,-0.234377,0.325536,-0.035692,-62.790780,188.721880,1497.136924,-885.626717,0
0.105208,-17.725876,-154.016553,174.810228,6.241878,-2.338618,6.510952,-3.378559,2.650345,-6.474264,3.460331,-0.219765,0.326320,-0.043161,-11.907091,188.646522,1498.619432,-886.447468,0
0.106250,29.504296,-197.000409,109.059281,5.009088,-4.429732,5.971225,-0.833765,4.664656,-5.895121,0.955607,-0.154011,0.316195,-0.043161,34.859758,188.571120,1500.866310,-887.913682,0
0.107292,101.245611,-196.287636,50.719318,3.912018,-6.048659,4.840179,1.770731,6.447395,-4.841751,-1.485076,-0.091910,0.307049,-0.043161,105.264506,188.495797,1500.994370,-888.612315,0
0.108333,164.173804,-147.553269,-1.945455,2.882808,-6.393036,2.863824,3.834179,6.741455,-2.907076,-3.566417,-0.066339,0.312145,0.001650,169.301725,188.721838,1502.296689,-890.058126,0
0.109375,202.795018,-85.167481,-54.474811,1.830978,-5.839192,0.319962,5.517027,6.248905,-0.384863,-5.213700,0.003068,0.314888,-0.028224,198.323184,188.721902,1503.155880,-891.062340,0
0.110417,176.809350,-30.960465,-134.973864,0.326748,-4.436832,-2.021503,6.319271,4.866823,1.952695,-5.996426,0.028639,0.313451,-0.039427,173.271535,188.571107,1504.804080,-891.699600,0
