1-Time,2-VGERA,3-VGERB,4-VGERC,5-VN,6-IGERAN,7-IGERBN,8-IGERCN,9-IGERAT,10-IGERBT,11-IGERCT,12-IN,13-IFD,14-IFAULT,15-VFAULT,16-Speed (rad/s),17-Active Power,18-Reactive Power,19-FAULT 
0.000000,-97.283956,-109.359197,176.872596,3.692059,4.742956,-0.807310,-3.747116,-4.545974,0.941408,3.830651,-0.178364,0.570512,-0.074856,-19.098908,188.590725,970.345178,1003.463825,0
0.001039,-12.726614,-152.627814,177.844730,3.793393,3.998053,1.002915,-4.617652,-3.780677,-0.893321,4.773115,-0.214826,0.569823,-0.019106,-144.482870,188.587457,971.328376,1002.752093,0
0.002080,64.542275,-168.413108,143.176011,3.061538,2.464213,2.688436,-4.613867,-2.431433,-2.588543,4.879095,-0.225764,0.591802,-0.093440,-235.562716,188.521137,972.018530,1002.232928,0
0.003122,123.369686,-185.995388,60.325913,1.417680,0.471690,4.361888,-4.273223,-0.490988,-4.258400,4.428681,-0.229410,0.592009,-0.097156,-319.684917,188.665210,972.599898,1001.459143,0
0.004164,162.738626,-162.000332,-15.694945,-0.057288,-1.139209,4.965297,-3.228580,1.025098,-4.930570,3.490002,-0.189302,0.594214,-0.071140,-331.269733,188.587658,972.340483,1001.399438,0
0.005205,182.016299,-112.166255,-86.466281,-1.374626,-3.161089,4.929092,-1.222563,2.896630,-4.867158,1.449890,-0.171072,0.580089,-0.100873,-291.347714,188.571357,972.659796,1001.252780,0
0.006247,184.287584,-31.031725,-139.763513,-2.444260,-4.302295,4.301547,0.435240,4.180588,-4.304902,-0.238218,-0.087210,0.577058,-0.052556,-207.923529,188.571065,972.571802,1001.268617,0
0.007289,152.331395,39.215180,-177.227117,-3.153596,-4.966469,2.949913,2.316354,4.717384,-3.045111,-2.066371,-0.036163,0.570926,-0.067423,-107.656890,188.571102,972.452777,1001.222218,0
0.008330,97.119960,109.191951,-176.923325,-3.119818,-4.760979,0.866142,3.883318,4.583185,-0.944051,-3.777188,-0.006994,0.554183,-0.104590,20.203903,188.721708,971.807181,1000.903877,0
0.009376,10.856330,152.895133,-177.980521,-3.086040,-3.975712,-0.980287,4.806843,3.781618,0.899133,-4.723437,-0.010640,0.584499,-0.097156,147.299130,188.573629,971.199283,1000.828518,0
0.010414,-65.632865,168.281096,-142.704218,-2.466778,-2.452880,-2.693967,4.829553,2.428747,2.573218,-4.814277,-0.028871,0.583534,-0.056273,236.408769,188.571442,970.554762,1001.021422,0
0.011456,-123.657981,185.804651,-59.331598,-0.856698,-0.486043,-4.395578,4.428349,0.473794,4.281123,-4.424422,-0.014286,0.588978,-0.063706,312.402460,188.571337,971.305336,1001.608529,0
0.012497,-162.721823,161.880066,15.389031,0.539455,1.077153,-4.966805,3.372352,-1.049546,4.919473,-3.451679,-0.058040,0.599657,-0.082290,318.087914,188.722203,971.664781,1002.290934,0
0.013539,-182.270694,112.398338,86.427704,1.823015,3.135727,-4.898419,1.404184,-2.881181,4.868743,-1.411566,-0.087210,0.579056,-0.086006,293.420925,188.571542,971.971040,1002.603579,0
0.014581,-184.338580,32.168174,140.283913,2.937686,4.295280,-4.270874,-0.238479,-4.125242,4.319170,0.276541,-0.145548,0.584499,-0.093440,209.174882,188.571458,972.664590,1002.527246,0
0.015622,-152.585790,-38.278396,177.540938,3.703318,4.959455,-2.866944,-2.108238,-4.763594,3.025559,2.119834,-0.141902,0.592974,-0.097156,109.054601,188.646989,972.922806,1003.028635,0
0.016664,-97.453455,-109.053827,177.018416,3.680800,4.739286,-0.807310,-3.735762,-4.545974,0.966773,3.811726,-0.174718,0.575335,-0.082290,-20.033349,188.722186,972.638282,1003.187024,0
0.017706,-11.235024,-152.721774,177.978398,3.770874,3.965028,1.031074,-4.647932,-3.824201,-0.893321,4.780685,-0.225764,0.601724,-0.093440,-147.263676,188.571654,972.458797,1004.053520,0
0.018747,66.372863,-168.460088,142.531972,3.072797,2.464213,2.716595,-4.678211,-2.431433,-2.626590,4.852600,-0.236703,0.565620,-0.093440,-237.195173,188.496150,972.215812,1004.225540,0
0.019789,123.991182,-186.335993,58.284432,1.451458,0.438664,4.382002,-4.250513,-0.461972,-4.292220,4.436251,-0.222118,0.584706,-0.071140,-320.833267,188.646820,972.349686,1004.641951,0
0.020831,162.625627,-161.929862,-16.533410,0.044046,-1.106184,4.977365,-3.258859,1.028725,-4.960163,3.497572,-0.207533,0.592285,-0.100873,-331.280992,188.722306,972.468761,1005.059385,0
0.021872,182.095398,-111.990079,-86.697163,-1.284552,-3.153750,4.917024,-1.226348,2.936527,-4.884068,1.453675,-0.160133,0.579607,-0.071140,-292.169572,188.571455,972.969967,1005.316810,0
0.022914,184.185884,-32.135756,-140.079457,-2.376704,-4.342659,4.325684,0.420100,4.191469,-4.372542,-0.234433,-0.112733,0.568583,-0.089723,-209.679828,188.496036,973.493624,1006.052491,0
0.023966,152.534793,39.191690,-177.664577,-3.086040,-5.028850,2.897617,2.331494,4.760908,-2.977472,-2.100436,-0.072625,0.581812,-0.071140,-107.634373,188.722255,974.547501,1005.599369,0
0.025011,97.097360,110.413432,-176.643837,-3.119818,-4.742631,0.769597,3.928738,4.594066,-0.884866,-3.830178,-0.010640,0.591389,-0.071140,23.390009,188.646927,975.463420,1005.493643,0
0.026044,12.065422,152.953858,-177.713184,-3.198633,-3.972042,-1.068787,4.810628,3.774364,0.924498,-4.723437,-0.010640,0.590907,-0.074856,147.648138,188.571482,975.911867,1005.014650,0
0.027083,-65.779764,168.539487,-141.622719,-2.500556,-2.408847,-2.722126,4.821983,2.374342,2.640858,-4.776427,-0.017932,0.596005,-0.100873,238.210101,188.496096,976.264047,1004.029698,0
0.028126,-123.793580,186.697272,-56.889112,-0.890476,-0.416323,-4.383510,4.401855,0.423016,4.319170,-4.363863,-0.028871,0.580916,-0.089723,313.370676,188.646835,976.396096,1003.503748,0
0.029167,-162.767023,161.116640,18.098854,0.629529,1.179898,-4.950714,3.357212,-1.053173,4.885653,-3.364624,-0.032517,0.585533,-0.063706,318.110431,188.646835,975.375267,1002.824342,0
0.030212,-182.654892,110.389942,88.371971,1.969386,3.231133,-4.910487,1.392829,-2.924705,4.872971,-1.358577,-0.101794,0.578505,-0.086006,291.698401,188.572306,975.444095,1003.024546,0
0.031256,-183.434586,29.278902,141.426170,2.948945,4.353992,-4.238692,-0.299038,-4.143377,4.255758,0.352241,-0.127317,0.580572,-0.052556,206.821892,188.495636,975.197813,1002.479348,0
0.032295,-152.608390,-39.910953,177.528787,3.714578,4.981472,-2.850853,-2.153658,-4.734578,2.983284,2.222029,-0.156487,0.579125,-0.074856,108.987051,188.646255,975.887653,1001.797051,0
0.033341,-96.673760,-110.498463,176.605260,3.680800,4.720939,-0.722833,-3.803891,-4.498823,0.873769,3.879856,-0.185656,0.549842,-0.033973,-21.800906,188.571024,976.621904,1000.867120,0
0.034377,-12.511916,-153.215065,177.844730,3.782133,3.932002,1.083369,-4.666856,-3.766169,-0.952506,4.773115,-0.225764,0.589046,-0.086006,-146.272943,188.571228,977.342331,999.663542,0
0.035417,65.355870,-168.401363,141.924389,2.982723,2.398163,2.740731,-4.651717,-2.391536,-2.592770,4.818535,-0.229410,0.588978,-0.078573,-237.082590,188.495665,976.779663,998.719394,0
0.036457,123.753884,-186.958479,58.090005,1.395162,0.409309,4.386024,-4.205094,-0.418448,-4.262627,4.421111,-0.222118,0.588289,-0.037689,-321.474991,188.721886,976.831361,998.151382,0
0.037497,163.122824,-161.142947,-16.873657,-0.046029,-1.157556,4.945183,-3.209655,1.021471,-4.913660,3.440797,-0.243995,0.590424,-0.074856,-331.100859,188.571143,976.069663,997.386381,0
0.038539,182.513495,-111.273634,-87.316898,-1.397145,-3.216131,4.900933,-1.154434,2.951035,-4.905205,1.400685,-0.156487,0.575404,-0.097156,-290.852348,188.571230,976.447380,997.329657,0
0.039580,183.892086,-29.868969,-140.091608,-2.444260,-4.316972,4.269366,0.454165,4.155199,-4.326040,-0.279853,-0.127317,0.568928,-0.056273,-206.899021,188.495736,975.657503,996.660921,0
0.040622,152.320095,40.319211,-177.202814,-3.086040,-4.981147,2.901640,2.301214,4.728265,-3.015519,-2.130716,-0.050748,0.566172,-0.071140,-107.319140,188.646603,975.282012,996.886621,0
0.041664,96.600163,109.732221,-176.680292,-3.086040,-4.753640,0.817870,3.943877,4.597693,-0.939823,-3.784758,-0.032517,0.562796,-0.089723,20.744303,188.571219,974.316523,997.260690,0
0.042705,11.466526,152.742448,-177.907611,-3.221151,-3.968373,-1.032583,4.859832,3.836023,0.894906,-4.731007,-0.036163,0.552392,-0.108307,146.297139,188.571116,974.081284,998.285053,0
0.043747,-65.361667,168.210626,-142.023724,-2.466778,-2.434533,-2.746262,4.837123,2.414239,2.598583,-4.810492,-0.039809,0.574233,-0.089723,236.465061,188.495711,973.854697,998.933104,0
0.044789,-123.793580,186.286197,-58.711863,-0.890476,-0.434670,-4.367419,4.416995,0.462913,4.306487,-4.439562,-0.017932,0.589253,-0.063706,312.976635,188.721958,974.098259,999.792324,0
0.045830,-163.241620,161.222345,16.093828,0.561974,1.113847,-4.954737,3.368567,-1.045919,4.923700,-3.406259,-0.061686,0.593938,-0.041406,318.087914,188.646462,974.836460,1000.246830,0
0.046872,-182.666191,111.493973,87.266169,1.946867,3.161413,-4.846123,1.377689,-2.950094,4.898336,-1.400211,-0.123671,0.580021,-0.052556,292.227542,188.571167,975.539927,1000.526549,0
0.047914,-183.943083,30.441658,140.551250,2.971464,4.306289,-4.242715,-0.257404,-4.114361,4.276895,0.337101,-0.101794,0.578298,-0.086006,207.463616,188.495754,975.543042,1000.390820,0
0.048955,-152.450191,-39.922698,177.455877,3.714578,4.992480,-2.874989,-2.123378,-4.672919,2.953692,2.165254,-0.141902,0.569410,-0.063706,107.422144,188.721924,974.349411,999.782016,0
0.049997,-96.413861,-109.922958,176.872596,3.725837,4.746625,-0.775128,-3.754686,-4.535093,0.928726,3.834436,-0.222118,0.595316,-0.063706,-21.609515,188.571098,973.681184,1000.564407,0
0.051039,-10.229331,-152.909695,178.014853,3.737096,3.954019,1.051188,-4.666856,-3.795185,-0.889093,4.757975,-0.240349,0.595179,-0.056273,-147.522617,188.571134,972.430483,1001.575731,0
0.052080,66.768360,-168.377873,141.815023,3.084057,2.445866,2.760845,-4.655502,-2.424179,-2.635045,4.837460,-0.240349,0.589598,-0.048839,-237.172656,188.495658,972.699559,1002.378402,0
0.053122,124.047682,-186.641364,57.786214,1.496495,0.434995,4.438320,-4.273223,-0.472853,-4.292220,4.428681,-0.229410,0.588220,-0.056273,-321.362408,188.715380,972.472394,1003.099785,0
0.054165,163.235823,-161.166437,-16.338984,-0.012251,-1.117192,4.997478,-3.251290,1.043233,-4.934798,3.448367,-0.149195,0.593318,-0.071140,-331.280992,188.570540,973.026985,1003.115523,0
0.055205,182.592595,-111.661219,-86.806528,-1.374626,-3.201453,4.945183,-1.207423,2.958289,-4.939025,1.408255,-0.163779,0.586635,-0.074856,-291.876856,188.570595,973.478343,1003.363641,0
0.056247,183.745187,-31.759916,-140.541220,-2.444260,-4.342659,4.261320,0.420100,4.158826,-4.355632,-0.276068,-0.120025,0.589804,-0.082290,-208.081145,188.495291,974.029563,1003.537621,0
0.057289,152.579993,38.886320,-177.628122,-3.119818,-5.003164,2.873481,2.331494,4.721011,-3.011291,-2.062586,-0.083563,0.592767,-0.074856,-107.825765,188.721371,973.602077,1003.457323,0
0.058330,97.232959,109.614771,-176.850415,-3.086040,-4.753640,0.805802,3.902243,4.583185,-0.931368,-3.837748,-0.043455,0.582225,-0.112023,21.836360,188.570591,974.435577,1003.206088,0
0.059372,11.229227,152.883388,-177.822549,-3.221151,-3.942686,-1.064764,4.814413,3.825142,0.945636,-4.712082,-0.028871,0.549842,-0.086006,147.974629,188.570531,974.638946,1002.728203,0
0.060414,-66.480359,168.504251,-141.416140,-2.444260,-2.408847,-2.726149,4.814413,2.396104,2.628175,-4.768857,-0.021578,0.576162,-0.078573,238.536592,188.495313,974.407954,1002.463333,0
0.061455,-123.996979,187.002642,-56.475955,-0.789143,-0.375959,-4.411669,4.420779,0.444778,4.293805,-4.333583,-0.043455,0.580710,-0.074856,313.517034,188.721521,973.545841,1001.576282,0
0.062497,-163.004321,161.093150,17.807214,0.652048,1.157881,-4.982896,3.334502,-1.107578,4.957520,-3.349484,-0.010640,0.590218,-0.086006,318.166722,188.570636,974.160951,1001.103157,0
0.063539,-182.666191,110.707057,87.861601,1.980645,3.183430,-4.890373,1.354980,-2.935586,4.843378,-1.351007,-0.105440,0.581330,-0.067423,292.148734,188.494902,973.582829,1000.278464,0
0.064580,-183.524986,30.429913,140.891496,3.005242,4.309958,-4.266851,-0.283898,-4.197782,4.319170,0.314391,-0.120025,0.586359,-0.063706,208.206666,188.495325,974.324570,1001.285350,0
0.065622,-152.687490,-39.159272,177.674607,3.613244,4.985141,-2.879012,-2.187722,-4.741832,2.983284,2.180394,-0.178364,0.596212,-0.056273,109.347317,188.721559,975.296423,1001.963465,0
0.066664,-97.476054,-109.723293,176.811838,3.658281,4.750295,-0.746969,-3.769826,-4.585871,0.894906,3.887426,-0.218472,0.585119,-0.112023,-20.675074,188.570669,976.729383,1002.052750,0
0.067705,-12.082519,-153.226810,177.796123,3.737096,3.965028,1.091415,-4.640362,-3.791558,-0.965188,4.814750,-0.233057,0.588840,-0.097156,-146.993476,188.570667,978.462135,1001.549939,0
0.068747,66.022565,-168.460088,141.462625,2.993982,2.390824,2.756822,-4.629007,-2.373401,-2.626590,4.837460,-0.240349,0.562520,-0.100873,-237.791864,188.495316,978.562924,1000.827570,0
0.069789,123.912083,-187.310829,57.093568,1.338865,0.379953,4.390047,-4.224019,-0.414821,-4.300675,4.402186,-0.222118,0.587393,-0.067423,-322.274332,188.721550,978.989502,1000.193525,0
0.070830,163.201923,-160.555696,-17.955156,-0.034769,-1.142878,4.961274,-3.183161,1.079503,-4.913660,3.418087,-0.222118,0.584430,-0.056273,-331.134634,188.570662,978.671289,999.824437,0
0.071872,182.762094,-110.416248,-87.997392,-1.363367,-3.197783,4.941160,-1.214993,2.987305,-4.862930,1.385545,-0.127317,0.580021,-0.089723,-290.345723,188.495360,978.168645,999.274569,0
0.072914,183.372290,-29.058563,-140.589827,-2.399222,-4.335320,4.269366,0.450380,4.180588,-4.300675,-0.294993,-0.076271,0.548878,-0.082290,-206.257297,188.495280,977.647352,999.000498,0
0.073955,152.410494,40.695052,-177.336482,-3.041003,-5.025181,2.881526,2.331494,4.822567,-2.985927,-2.160995,-0.079917,0.545364,-0.078573,-107.386690,188.721427,979.328151,999.491178,0
0.074997,96.543663,110.155041,-176.449410,-3.164855,-4.819690,0.793733,3.943877,4.579558,-0.918686,-3.818823,-0.028871,0.574715,-0.123173,21.250927,188.570656,978.837336,999.457809,0
0.076039,11.613425,153.130033,-177.786094,-3.232411,-3.990389,-1.076833,4.859832,3.796126,0.962546,-4.753717,-0.028871,0.588220,-0.078573,146.893830,188.495153,979.510033,999.223103,0
0.077080,-65.610265,168.328076,-141.452595,-2.545593,-2.430863,-2.754308,4.833338,2.388850,2.611265,-4.836987,-0.025225,0.591596,-0.082290,237.467052,188.495253,979.989045,999.511256,0
0.078122,-123.883980,186.932172,-57.350876,-0.879217,-0.419992,-4.371442,4.398070,0.459286,4.306487,-4.390357,-0.017932,0.593525,-0.104590,313.573326,188.721514,980.470992,1000.142749,0
0.079164,-163.512818,160.635095,17.175327,0.539455,1.212923,-4.974851,3.349642,-1.089443,4.957520,-3.368409,-0.054394,0.591871,-0.063706,318.110431,188.570769,980.291973,1000.435820,0
0.080205,-183.106889,110.507392,88.177545,1.924349,3.220125,-4.894396,1.358765,-2.982737,4.911018,-1.301802,-0.079917,0.572993,-0.052556,291.349393,188.495224,981.533226,1000.723834,0
0.081247,-183.604085,29.396352,140.915800,2.948945,4.383348,-4.214556,-0.321748,-4.143377,4.285350,0.352241,-0.130964,0.554321,-0.089723,206.135134,188.570754,980.921055,1000.042514,0
0.082289,-152.495391,-41.390824,177.407270,3.647022,5.007158,-2.826717,-2.180152,-4.763594,2.970602,2.218244,-0.182010,0.583259,-0.078573,106.431411,188.721422,981.081675,1000.418931,0
0.083330,-95.362968,-110.733363,176.775383,3.725837,4.739286,-0.730878,-3.837955,-4.560482,0.835721,3.891211,-0.189302,0.575335,-0.086006,-22.724089,188.570656,980.688831,1000.054652,0
0.084372,-9.573935,-153.320770,178.197129,3.782133,3.965028,1.159801,-4.742555,-3.791558,-0.952506,4.803395,-0.211179,0.580916,-0.089723,-147.972950,188.495280,979.976323,1000.605212,0
0.085414,66.960459,-168.507068,141.061620,3.050279,2.405502,2.833254,-4.704706,-2.337131,-2.723822,4.909375,-0.222118,0.554252,-0.056273,-237.589214,188.646062,981.533039,1000.883127,0
0.086455,124.205881,-187.463514,57.190782,1.428940,0.387292,4.518774,-4.265653,-0.403940,-4.338722,4.455176,-0.196595,0.593732,-0.045123,-322.780957,188.646044,982.313400,1001.568781,0
0.087497,163.913818,-160.520461,-16.399742,-0.046029,-1.194251,5.021615,-3.190731,1.101265,-5.002438,3.440797,-0.207533,0.595936,-0.059989,-331.247217,188.570636,983.745766,1002.132773,0
0.088539,183.327090,-111.109204,-87.547780,-1.408404,-3.256495,4.981387,-1.131724,3.063472,-4.909433,1.366620,-0.152841,0.586704,-0.048839,-291.325198,188.492893,985.412851,1002.262897,0
0.089580,183.360990,-30.456219,-140.942225,-2.433000,-4.372015,4.269366,0.556358,4.209604,-4.300675,-0.340413,-0.116379,0.592285,-0.078573,-206.426172,188.646165,986.524174,1001.871899,0
0.090622,152.681693,40.789012,-177.336482,-3.131077,-5.080223,2.845322,2.433687,4.811686,-2.909832,-2.236695,-0.072625,0.581812,-0.082290,-106.204566,188.646170,987.515720,1000.657593,0
0.091664,96.001267,110.542627,-176.826112,-3.164855,-4.775657,0.713279,4.034716,4.633963,-0.812999,-3.913448,-0.043455,0.574577,-0.071140,23.851600,188.570712,989.536439,1000.518276,0
0.092705,9.692437,153.083053,-178.199251,-3.164855,-3.935347,-1.149242,4.946886,3.781618,1.047095,-4.844557,0.000299,0.567963,-0.056273,149.336886,188.495269,990.983939,1000.652085,0
0.093747,-67.350453,168.633447,-140.286035,-2.478038,-2.372152,-2.874989,4.848477,2.283667,2.755000,-4.848342,-0.032517,0.609096,-0.074856,239.178317,188.645995,992.536534,999.801154,0
0.094789,-123.985679,187.930498,-55.297243,-0.755365,-0.361281,-4.524306,4.432134,0.361357,4.391037,-4.390357,-0.003348,0.586359,-0.086006,313.978626,188.570714,993.949510,999.605309,0
0.095830,-163.750116,160.106569,17.795062,0.607011,1.260626,-4.994964,3.323148,-1.194626,4.999795,-3.319204,-0.054394,0.597452,-0.074856,318.110431,188.570635,995.240060,998.905178,0
0.096872,-183.502386,110.472157,88.153241,1.969386,3.337548,-4.914510,1.271711,-3.091547,4.919473,-1.279092,-0.076271,0.579745,-0.071140,292.036151,188.495356,996.773779,998.724072,0
0.097914,-182.846990,30.382933,141.535535,3.027760,4.409034,-4.206511,-0.420156,-4.212290,4.272668,0.439296,-0.087210,0.591458,-0.093440,207.283483,188.646138,998.383996,998.051053,0
0.098955,-153.376785,-40.169343,177.455877,3.725837,5.032844,-2.810626,-2.274776,-4.807118,2.911417,2.312869,-0.167425,0.591734,-0.086006,108.086385,188.646067,1000.467651,997.060827,0
0.099997,-96.346062,-110.533698,176.836141,3.714578,4.717270,-0.658469,-3.860665,-4.538720,0.793446,3.966911,-0.243995,0.586015,-0.067423,-23.106872,188.570790,1001.832704,996.342206,0
0.101039,-10.466629,-153.379495,178.415859,3.759615,3.928333,1.200028,-4.723630,-3.729899,-1.083558,4.860170,-0.229410,0.562933,-0.067423,-148.535867,188.495275,1003.929866,994.928266,0
0.102080,67.050858,-168.589283,140.211003,2.993982,2.295418,2.869458,-4.659286,-2.289980,-2.753415,4.886665,-0.196595,0.586015,-0.048839,-239.064055,188.721393,1003.996718,994.192102,0
0.103122,123.787783,-188.379625,54.942723,1.350125,0.284546,4.522797,-4.216449,-0.320519,-4.410589,4.360551,-0.233057,0.588357,-0.071140,-323.602814,188.646112,1004.731842,992.895235,0
0.104164,163.766919,-159.886231,-18.805773,-0.046029,-1.271310,5.041728,-3.107462,1.210075,-4.934798,3.327247,-0.178364,0.589460,-0.037689,-331.157150,188.570627,1004.625429,991.009483,0
0.105205,183.519189,-109.782018,-88.532065,-1.352108,-3.344562,4.949206,-1.105230,3.070726,-4.879840,1.294705,-0.171072,0.592629,-0.078573,-290.447048,188.495265,1004.430185,990.372599,0
0.106247,182.841193,-28.870643,-141.294624,-2.421741,-4.397701,4.281434,0.590422,4.264009,-4.279537,-0.404758,-0.098148,0.587600,-0.059989,-206.020872,188.721338,1005.033510,990.143348,0
0.107289,152.930291,41.223577,-177.251420,-3.153596,-5.091231,2.829231,2.433687,4.822567,-2.922514,-2.236695,-0.065333,0.584223,-0.071140,-107.274107,188.568785,1005.089370,990.472295,0
0.108330,96.261165,110.589607,-176.631685,-3.131077,-4.790334,0.673052,4.076350,4.612201,-0.808771,-3.939943,-0.032517,0.586979,-0.078573,22.624443,188.570662,1005.336890,990.174679,0
0.109372,11.297027,153.423659,-178.284312,-3.119818,-3.946356,-1.165332,4.931746,3.799753,1.072460,-4.855912,-0.047102,0.588357,-0.030256,148.177279,188.495356,1006.144924,990.096586,0
0.110414,-65.983163,168.504251,-140.395400,-2.478038,-2.331788,-2.883035,4.852262,2.323564,2.738090,-4.814277,-0.017932,0.593249,-0.086006,238.660434,188.721523,1005.746228,989.885313,0
