1-Time,2-VGERA,3-VGERB,4-VGERC,5-VN,6-IGERAN,7-IGERBN,8-IGERCN,9-IGERAT,10-IGERBT,11-IGERCT,12-IN,13-IFD,14-IFAULT,15-VFAULT,16-Speed (rad/s),17-Active Power,18-Reactive Power,19-FAULT 
0.000000,-168.773956,163.469604,26.849053,3.391758,3.767861,-6.537751,2.110286,-3.635187,6.552270,-2.203761,-0.117481,0.594283,-0.035692,-3.130531,188.566196,1614.239370,887.116156,0
0.001042,-180.071086,106.749760,95.369887,4.635858,5.443592,-5.509888,-0.412120,-5.399547,5.675161,0.283174,-0.113828,0.592585,-0.005818,-11.239801,188.722190,1612.968544,887.224339,0
0.002083,-186.853901,20.419620,142.999622,5.551968,6.402167,-3.918486,-2.729301,-6.351567,4.088811,2.592216,-0.197847,0.582982,-0.031958,-23.805211,188.571395,1611.392247,887.293142,0
0.003125,-153.665745,-55.605509,170.292235,6.060918,6.249505,-1.648456,-4.602449,-6.314809,1.864564,4.424507,-0.234377,0.558224,-0.046895,-27.379171,188.495953,1609.588787,887.843721,0
0.004167,-73.326814,-109.450098,196.821592,6.603798,5.383237,1.169239,-6.244251,-5.351763,-0.926237,6.004191,-0.248989,0.568676,-0.050629,-27.865501,188.495922,1607.617638,888.971127,0
0.005208,-3.094051,-155.804527,175.856629,6.185328,3.682654,3.244808,-6.397238,-3.660918,-3.053960,6.203431,-0.267254,0.579324,-0.043161,-17.867461,188.646804,1606.647674,889.841909,0
0.006250,65.051692,-188.314240,125.666288,5.269218,1.130004,5.419592,-5.856189,-1.212868,-5.194273,5.716006,-0.223418,0.598921,-0.087972,-9.441511,188.571351,1605.982718,890.666119,0
0.007292,119.064680,-193.327815,45.154924,3.787608,-1.241582,6.399832,-4.337521,1.264588,-6.277020,4.364024,-0.234377,0.600489,-0.024490,0.941068,188.496167,1605.285982,891.034421,0
0.008333,168.801544,-163.330930,-27.046780,2.373858,-3.581215,6.637947,-2.341239,3.477389,-6.587575,2.350282,-0.168623,0.595263,-0.031958,8.269948,188.496065,1604.193726,891.413103,0
0.009375,179.713030,-105.982879,-95.530682,1.095828,-5.285349,5.669613,0.229675,5.326291,-5.672696,-0.069053,-0.080951,0.590364,-0.061832,14.999398,188.571323,1603.743367,891.961904,0
0.010417,186.439132,-19.036613,-143.037311,0.247578,-6.233273,4.078210,2.591632,6.237877,-4.094740,-2.378096,-0.069992,0.563319,-0.050629,28.797598,188.571415,1601.979414,892.440183,0
0.011458,152.956071,56.408633,-170.342235,-0.351852,-6.144516,1.800243,4.524482,6.215823,-1.899869,-4.238850,-0.059033,0.582786,-0.039427,30.957808,188.495834,1600.557997,892.971687,0
0.012500,73.195607,109.975361,-196.563826,-0.849492,-5.281799,-1.013483,6.151359,5.289534,0.920308,-5.864786,-0.022503,0.602318,-0.050629,31.794748,188.496154,1599.928631,892.937093,0
0.013542,3.337147,156.269385,-175.451137,-0.408402,-3.527961,-3.077146,6.289420,3.635446,2.997671,-6.085372,0.010374,0.592585,-0.035692,25.155778,188.571306,1600.267877,893.393764,0
0.014583,-65.194241,188.307943,-125.593182,0.462468,-1.010814,-5.263836,5.740909,1.110206,5.234508,-5.580158,-0.029809,0.599770,-0.039427,12.070108,188.571228,1600.620534,894.420041,0
0.015625,-119.411393,193.381923,-44.884849,1.978008,1.421127,-6.236139,4.218510,-1.312113,6.325649,-4.160577,-0.059033,0.597353,-0.054364,4.356688,188.495879,1600.200417,895.150035,0
0.016667,-168.785298,163.445442,28.006250,3.391758,3.735908,-6.450442,2.125211,-3.635187,6.522893,-2.168183,-0.110175,0.594740,-0.065566,-4.250221,188.571342,1599.790402,894.939152,0
0.017708,-179.878264,105.155081,96.083902,4.658478,5.447142,-5.505919,-0.389732,-5.381169,5.633194,0.265384,-0.121134,0.586901,-0.031958,-10.470721,188.495895,1598.577762,895.254005,0
0.018750,-186.819874,18.945750,143.171970,5.585898,6.412818,-3.914517,-2.733032,-6.311133,4.080418,2.560195,-0.150358,0.554043,-0.054364,-22.414081,188.571384,1597.451695,895.766482,0
0.019792,-153.212045,-55.835046,170.636932,6.106158,6.281458,-1.624645,-4.613643,-6.322161,1.826794,4.392487,-0.227071,0.593630,-0.031958,-28.148251,188.495839,1597.149977,895.705251,0
0.020833,-73.973336,-109.462179,196.809281,6.626418,5.358385,1.181144,-6.236789,-5.373817,-0.938827,6.021980,-0.241683,0.594283,-0.013287,-28.080391,188.496063,1597.775633,895.699098,0
0.021875,-4.148903,-156.130711,175.364205,6.185328,3.632950,3.264651,-6.397238,-3.712378,-3.024583,6.214104,-0.241683,0.604409,-0.031958,-20.219941,188.496080,1597.726035,896.319283,0
0.022917,64.813500,-188.362563,125.666288,5.303148,1.115803,5.407686,-5.830069,-1.183462,-5.173290,5.694658,-0.267254,0.600293,-0.058098,-8.378371,188.496051,1597.464089,895.749356,0
0.023958,119.495695,-193.074116,44.354735,3.708438,-1.262884,6.419675,-4.307671,1.209451,-6.264430,4.335561,-0.227071,0.593434,-0.031958,1.201198,188.495758,1596.508372,896.235416,0
0.025000,168.381872,-163.198040,-28.585606,2.339928,-3.531511,6.586355,-2.296462,3.459010,-6.533018,2.353840,-0.179582,0.590429,-0.043161,7.975888,188.496054,1595.412668,896.400548,0
0.026042,179.304700,-104.702303,-96.343182,1.095828,-5.260497,5.649770,0.199824,5.223370,-5.664303,-0.029917,-0.110175,0.588796,-0.024490,16.062538,188.495895,1593.334590,897.268835,0
0.027089,186.348392,-18.299677,-143.775947,0.191028,-6.226173,4.090116,2.606558,6.215823,-4.115723,-2.353191,-0.080951,0.585138,-0.039427,28.718428,188.495902,1592.785859,898.109955,0
0.028138,152.094041,57.157649,-170.896213,-0.351852,-6.133865,1.776432,4.535676,6.212147,-1.874689,-4.192598,-0.033462,0.597419,-0.017021,34.237708,188.495924,1592.027056,898.447765,0
0.029168,73.966898,110.337788,-196.416099,-0.826872,-5.246296,-0.981734,6.110314,5.296885,0.886735,-5.797187,-0.029809,0.610745,-0.058098,32.959678,188.495968,1591.240672,898.716186,0
0.030208,3.779504,156.281466,-175.303410,-0.487572,-3.535062,-3.045398,6.222255,3.668528,2.938918,-6.035562,0.010374,0.606760,-0.061832,24.296218,188.495919,1590.176326,899.041801,0
0.031250,-65.568544,188.102568,-125.063826,0.473778,-1.053417,-5.180496,5.725983,1.183721,5.117001,-5.541022,-0.015197,0.587293,-0.017021,12.228448,188.496145,1587.910611,899.881581,0
0.032291,-119.558846,193.490651,-43.752273,2.023248,1.303967,-6.220265,4.237167,-1.282707,6.250108,-4.210387,-0.040768,0.596374,-0.020755,4.107868,188.495955,1586.707405,900.876681,0
0.033333,-168.410996,162.817235,28.732576,3.436998,3.661352,-6.474254,2.214764,-3.550645,6.527090,-2.214435,-0.088257,0.592977,-0.054364,-3.130531,188.496071,1585.347391,902.052980,0
0.034375,-179.651414,105.348375,96.514773,4.703718,5.376137,-5.521794,-0.281522,-5.362790,5.696145,0.197785,-0.110175,0.592781,-0.028224,-11.228491,188.496020,1585.127415,903.501090,0
0.035416,-186.434229,19.972626,143.565910,5.563278,6.316960,-3.962140,-2.594972,-6.292755,4.126582,2.478365,-0.183235,0.589710,-0.046895,-23.669491,188.572074,1584.409623,904.370674,0
0.036458,-153.983335,-55.206839,170.587690,6.094848,6.281458,-1.719891,-4.535284,-6.325836,1.944301,4.342677,-0.208806,0.599183,-0.028224,-27.073801,188.495788,1583.888008,905.624757,0
0.037500,-74.733284,-110.017901,196.304546,6.626418,5.393888,1.097804,-6.236789,-5.428953,-0.859089,5.965055,-0.230724,0.603167,-0.035692,-27.797641,188.495716,1583.019576,906.894765,0
0.038541,-3.627148,-156.142792,175.511932,6.207948,3.682654,3.189248,-6.348730,-3.719730,-2.957436,6.157179,-0.259948,0.599509,-0.043161,-17.776981,188.495712,1581.676055,907.246448,0
0.039583,66.015805,-188.036379,124.681440,5.269218,1.154856,5.348157,-5.833801,-1.238598,-5.169093,5.694658,-0.248989,0.579716,-0.024490,-8.989111,188.495723,1580.863762,908.405016,0
0.040625,119.575092,-193.400300,43.345265,3.764988,-1.188328,6.356178,-4.386029,1.146964,-6.239250,4.342677,-0.227071,0.592650,-0.050629,1.269058,188.495732,1579.963362,909.309447,0
0.041666,168.517982,-162.581914,-28.474811,2.407788,-3.510210,6.614136,-2.400940,3.422253,-6.549805,2.410766,-0.201500,0.593173,-0.035692,8.428288,188.495788,1579.452809,910.326394,0
0.042708,179.508865,-105.523804,-96.367803,1.084518,-5.189491,5.661675,0.155048,5.208667,-5.727253,0.062587,-0.110175,0.592585,-0.024490,15.101188,188.495667,1579.496355,911.848540,0
0.043750,185.985432,-19.870195,-143.775947,0.191028,-6.243924,4.153614,2.479691,6.208471,-4.161887,-2.210877,-0.051727,0.595394,-0.020755,28.537468,188.495779,1578.425506,912.898383,0
0.044791,153.613936,55.550889,-170.650001,-0.283992,-6.119664,1.895489,4.408810,6.197444,-1.962820,-4.135672,-0.069992,0.604147,-0.035692,30.754228,188.495946,1578.103942,913.194729,0
0.045833,73.932870,110.603568,-196.169887,-0.872112,-5.214343,-0.942048,6.061807,5.289534,0.865751,-5.740261,0.003068,0.601273,-0.017021,31.726888,188.420374,1577.152971,913.322272,0
0.046875,2.168869,156.547246,-175.032576,-0.453642,-3.542162,-3.021586,6.222255,3.653825,2.943114,-5.999984,0.006721,0.573053,0.001650,24.782548,188.495819,1576.401657,913.544125,0
0.047916,-66.850246,188.066325,-124.411364,0.485088,-1.056968,-5.136841,5.744640,1.161667,5.146378,-5.519675,-0.011544,0.586901,-0.031958,11.606398,188.495575,1576.336134,913.633884,0
0.048958,-119.989861,193.381923,-43.358333,2.034558,1.343021,-6.220265,4.315525,-1.268004,6.250108,-4.203271,-0.048074,0.597745,-0.017021,4.096558,188.495754,1576.081017,913.945115,0
0.050000,-168.876038,162.998449,28.412500,3.436998,3.629400,-6.482191,2.233421,-3.535942,6.527090,-2.235782,-0.084604,0.598007,-0.031958,-4.465111,188.420377,1576.116467,914.307635,0
0.051041,-179.640071,105.722883,96.736364,4.692408,5.369036,-5.545605,-0.303911,-5.326032,5.704538,0.176438,-0.146705,0.593238,-0.005818,-10.549891,188.495696,1575.742760,914.649790,0
0.052083,-186.456914,20.480024,143.972160,5.585898,6.366664,-3.974046,-2.628554,-6.278052,4.134975,2.485481,-0.205153,0.592781,-0.046895,-22.267051,188.495770,1575.861154,914.623775,0
0.053125,-153.348155,-55.859208,170.575379,6.072228,6.231754,-1.652425,-4.524090,-6.285403,1.914924,4.324887,-0.234377,0.583701,-0.073035,-28.148251,188.495725,1575.057433,914.316985,0
0.054166,-73.338156,-110.356166,196.575379,6.637728,5.308681,1.125584,-6.162161,-5.425278,-0.905253,5.943708,-0.234377,0.614338,-0.039427,-28.170871,188.344990,1574.761176,914.279307,0
0.055208,-1.880403,-156.215278,175.007198,6.185328,3.650701,3.177342,-6.333804,-3.738108,-2.957436,6.146505,-0.270907,0.600358,-0.028224,-19.880641,188.495698,1574.090480,915.036928,0
0.056250,66.662327,-188.048460,124.669129,5.269218,1.176157,5.356094,-5.867383,-1.231247,-5.106143,5.669754,-0.278213,0.600489,-0.065566,-8.163481,188.420291,1573.128671,915.094659,0
0.057291,120.051477,-192.784174,43.973106,3.787608,-1.188328,6.344272,-4.427074,1.139612,-6.310593,4.396044,-0.223418,0.598007,-0.017021,1.348228,188.495698,1574.045432,915.922808,0
0.058333,168.846914,-162.847694,-27.994697,2.373858,-3.471157,6.602230,-2.348701,3.447983,-6.554002,2.460576,-0.179582,0.596178,-0.061832,8.213398,188.420312,1574.540960,916.341772,0
0.059375,179.282015,-105.813746,-96.946402,1.050588,-5.175290,5.681518,0.173705,5.238073,-5.718860,0.055471,-0.132093,0.592193,-0.046895,16.164328,188.495606,1574.906869,916.276595,0
0.060416,186.019460,-19.447363,-143.874432,0.191028,-6.169368,4.113928,2.479691,6.123929,-4.132510,-2.257129,-0.055380,0.594153,-0.031958,28.413058,188.420271,1574.265051,915.420272,0
0.061458,152.819961,57.157649,-170.256061,-0.329232,-6.041558,1.871678,4.337914,6.223174,-1.983803,-4.124999,-0.029809,0.571485,-0.080503,34.396048,188.495808,1573.702289,916.488716,0
0.062500,72.378947,111.280099,-196.169887,-0.815562,-5.228544,-0.902362,6.028224,5.201316,0.815391,-5.754492,-0.040768,0.616363,-0.035692,33.106708,188.420661,1572.574211,916.674688,0
0.063541,1.476977,156.511004,-174.823296,-0.431022,-3.588316,-2.985869,6.207330,3.686907,2.892754,-5.999984,0.014027,0.592911,-0.050629,24.307528,188.495674,1571.829377,917.595237,0
0.064583,-66.770849,187.909273,-124.386743,0.507708,-1.113772,-5.128904,5.740909,1.224154,5.091821,-5.519675,-0.015197,0.594283,-0.028224,12.386788,188.420332,1570.875866,918.320757,0
0.065625,-120.500273,192.838282,-44.121591,2.034558,1.250713,-6.144861,4.296869,-1.209192,6.233321,-4.196156,-0.044421,0.604735,-0.058098,4.051318,188.495759,1570.219844,918.633195,0
0.066666,-169.284368,162.611860,28.190909,3.369138,3.576146,-6.438537,2.255809,-3.502860,6.501910,-2.296265,-0.080951,0.596570,-0.035692,-3.379351,188.495778,1569.501401,919.410557,0
0.067708,-179.503961,105.589993,97.314962,4.692408,5.319332,-5.529731,-0.244209,-5.296626,5.712931,0.123070,-0.102869,0.592911,-0.058098,-11.273731,188.495801,1568.804773,920.287649,0
0.068750,-186.014556,18.547080,143.824432,5.585898,6.324061,-3.978015,-2.561389,-6.244970,4.134975,2.400092,-0.179582,0.587097,-0.058098,-23.805211,188.495671,1566.944444,921.311881,0
0.069792,-152.758345,-57.357240,170.206061,6.083538,6.228203,-1.735765,-4.475582,-6.255997,1.948498,4.278635,-0.208806,0.590298,-0.020755,-27.220831,188.495801,1565.551672,922.153219,0
0.070833,-72.623579,-110.972292,196.181440,6.615108,5.404539,1.050181,-6.121116,-5.381169,-0.812926,5.929476,-0.259948,0.590625,-0.043161,-27.842881,188.420300,1564.143703,922.909551,0
0.071875,-2.504241,-156.336087,174.884091,6.185328,3.735908,3.133687,-6.337536,-3.778542,-2.928059,6.153621,-0.248989,0.605519,-0.046895,-17.935321,188.495617,1564.052250,923.449206,0
0.072916,66.378765,-187.855165,124.681440,5.246598,1.232962,5.324346,-5.830069,-1.323141,-5.114536,5.723121,-0.263601,0.599575,-0.020755,-9.351031,188.495662,1564.149097,924.792224,0
0.073958,120.323697,-192.735850,44.243940,3.708438,-1.138624,6.340303,-4.408417,1.091827,-6.251840,4.396044,-0.212459,0.603102,-0.009553,1.269058,188.495839,1563.154390,925.064673,0
0.075000,169.096449,-162.521509,-28.745644,2.339928,-3.453405,6.606198,-2.356164,3.381820,-6.503641,2.460576,-0.172276,0.598399,-0.009553,8.484838,188.420291,1561.770658,925.396874,0
0.076041,179.372755,-104.581494,-97.401894,1.050588,-5.171740,5.653738,0.143854,5.208667,-5.651713,0.062587,-0.128440,0.588535,-0.065566,15.112498,188.495669,1560.552208,925.222505,0
0.077083,185.758582,-17.635228,-143.849811,0.213648,-6.169368,4.133771,2.479691,6.105550,-4.132510,-2.271360,-0.062686,0.610157,-0.050629,28.752358,188.495770,1559.909548,925.584353,0
0.078125,152.309548,57.737532,-170.576137,-0.306612,-6.080611,1.891521,4.390153,6.201120,-1.958623,-4.171251,-0.069992,0.586314,-0.050629,30.810778,188.495727,1560.142185,925.312906,0
0.079166,72.367605,111.473393,-196.305304,-0.849492,-5.256947,-0.918237,6.073001,5.274831,0.819588,-5.782955,-0.000585,0.615448,-0.024490,31.806058,188.420242,1560.932217,926.196269,0
0.080208,2.441089,157.199615,-174.380114,-0.464952,-3.588316,-2.973963,6.233450,3.697934,2.934721,-6.014215,0.014027,0.601796,-0.065566,25.133158,188.495667,1561.703992,926.080965,0
0.081250,-66.691451,188.150891,-124.374432,0.473778,-1.060518,-5.192401,5.740909,1.180045,5.087624,-5.558811,-0.022503,0.597941,-0.046895,11.809978,188.495627,1562.196788,925.998723,0
0.082291,-120.919946,192.657068,-43.161364,2.011938,1.332370,-6.200422,4.248361,-1.227571,6.199748,-4.189040,-0.029809,0.596178,-0.005818,4.006078,188.495803,1561.624518,926.060080,0
0.083333,-169.068861,162.829316,30.062121,3.425688,3.675553,-6.458380,2.237152,-3.524915,6.518696,-2.235782,-0.084604,0.595851,-0.054364,-4.465111,188.626356,1561.876366,925.935453,0
0.084375,-179.311139,103.777858,97.733523,4.726338,5.347734,-5.470202,-0.300179,-5.326032,5.654178,0.194227,-0.117481,0.588469,-0.046895,-10.482031,188.476424,1561.563260,925.032807,0
0.085416,-186.082611,17.834306,144.033713,5.597208,6.373765,-3.950235,-2.643480,-6.270700,4.118188,2.481923,-0.175929,0.586575,-0.020755,-22.470631,188.495750,1562.462657,924.634523,0
0.086458,-152.225247,-56.982732,170.735417,6.083538,6.267256,-1.688142,-4.572598,-6.289079,1.902334,4.332003,-0.230724,0.587881,-0.054364,-28.012531,188.446481,1563.482444,924.218567,0
0.087500,-72.861771,-110.730674,196.723107,6.626418,5.369036,1.121615,-6.199475,-5.399547,-0.917843,6.025538,-0.245336,0.603690,-0.043161,-28.103011,188.353946,1565.736309,923.463630,0
0.088541,-3.150763,-156.952213,174.194697,6.207948,3.661352,3.213059,-6.356193,-3.749136,-2.986813,6.221220,-0.274560,0.608132,-0.069301,-20.129461,188.495629,1567.034609,923.160030,0
0.089583,66.696355,-188.326320,124.102841,5.303148,1.186808,5.356094,-5.822607,-1.227571,-5.156503,5.698216,-0.252642,0.598399,-0.084238,-7.971211,188.495772,1567.650636,922.122993,0
0.090625,120.709342,-192.204291,42.582008,3.697128,-1.213180,6.344272,-4.341253,1.146964,-6.230856,4.324887,-0.223418,0.593695,-0.050629,1.416088,188.495586,1566.984997,921.305020,0
0.091666,168.699462,-162.714804,-30.530682,2.317308,-3.503109,6.641916,-2.333776,3.492092,-6.528821,2.375187,-0.186888,0.591931,-0.050629,8.179468,188.420289,1568.263250,920.414783,0
0.092708,178.907712,-103.566698,-97.943561,1.095828,-5.239195,5.657707,0.199824,5.230722,-5.681089,-0.022801,-0.150358,0.583962,-0.039427,16.186948,188.495723,1568.693280,920.121181,0
0.093750,185.906035,-18.118464,-144.120644,0.168408,-6.236823,4.109959,2.550587,6.204796,-4.132510,-2.292708,-0.044421,0.591736,-0.050629,28.695808,188.495693,1570.217842,920.313026,0
0.094791,152.275521,57.085164,-170.748485,-0.295302,-6.109013,1.820086,4.423735,6.212147,-1.950230,-4.178366,-0.037115,0.598072,-0.043161,34.158538,188.495591,1570.530408,920.073320,0
0.095833,72.741907,111.316342,-196.662311,-0.872112,-5.253396,-0.942048,6.084195,5.300561,0.869948,-5.768724,-0.007891,0.603363,-0.061832,33.050158,188.495693,1571.101494,919.743879,0
0.096875,2.236924,157.356667,-173.924622,-0.442332,-3.517310,-3.033492,6.222255,3.657501,2.959901,-6.007100,-0.000585,0.602906,-0.046895,24.058708,188.495645,1571.075614,919.195753,0
0.097916,-67.542139,188.646208,-123.340341,0.507708,-1.064068,-5.184464,5.699864,1.157991,5.112804,-5.530348,0.003068,0.572138,-0.024490,11.719498,188.495642,1570.978757,919.254610,0
0.098958,-120.919946,192.572502,-41.807197,2.068488,1.321719,-6.192484,4.255823,-1.268004,6.233321,-4.167693,-0.000585,0.592585,-0.061832,3.881668,188.495607,1571.229045,919.117979,0
0.100000,-169.068861,162.636022,30.763826,3.482238,3.650701,-6.478223,2.240884,-3.546969,6.510303,-2.253571,-0.077298,0.595590,-0.043161,-3.356731,188.495656,1571.177940,919.415307,0
0.101041,-179.277111,104.043637,98.115152,4.748958,5.386787,-5.537668,-0.307642,-5.370141,5.712931,0.165765,-0.143052,0.592127,-0.024490,-11.443381,188.495546,1571.978235,920.383265,0
0.102083,-186.218721,18.752455,144.587690,5.597208,6.391516,-3.966109,-2.665868,-6.340539,4.122385,2.510386,-0.212459,0.592193,-0.031958,-23.771281,188.495454,1573.401319,920.417618,0
0.103125,-152.554180,-56.511577,170.760038,6.083538,6.267256,-1.620676,-4.594986,-6.300106,1.902334,4.371139,-0.227071,0.602122,-0.043161,-27.051181,188.510405,1574.138833,920.178760,0
0.104166,-72.237934,-110.911888,197.240152,6.615108,5.390338,1.121615,-6.255446,-5.403223,-0.913646,5.997075,-0.296478,0.605323,-0.061832,-27.933361,188.500877,1573.773247,920.500868,0
0.105208,-1.880403,-157.073022,173.985417,6.207948,3.643601,3.236871,-6.344998,-3.741784,-2.999403,6.185641,-0.252642,0.611398,-0.046895,-17.584711,188.495584,1573.188685,920.591168,0
0.106250,67.694495,-188.724990,123.105682,5.223978,1.115803,5.415623,-5.826338,-1.128326,-5.198470,5.687543,-0.285519,0.565083,-0.076769,-8.638501,188.495589,1573.704495,919.960320,0
0.107291,120.754712,-192.337181,41.954167,3.753678,-1.245132,6.376020,-4.337521,1.216803,-6.243446,4.314214,-0.259948,0.598137,-0.061832,1.382158,188.495544,1574.260402,919.471146,0
0.108333,169.141819,-162.883937,-30.542993,2.362548,-3.591866,6.657790,-2.247954,3.492092,-6.512035,2.385861,-0.175929,0.595916,-0.076769,8.428288,188.571046,1574.246239,919.620638,0
0.109375,179.213960,-103.856640,-97.980493,1.073208,-5.256947,5.669613,0.308034,5.278507,-5.672696,-0.058380,-0.143052,0.596308,-0.017021,15.372628,188.495674,1575.173824,919.163834,0
0.110416,186.200940,-18.662105,-144.588447,0.089238,-6.261675,4.070273,2.625215,6.267283,-4.124116,-2.349633,-0.102869,0.598072,-0.046895,29.102968,188.495544,1576.716208,918.912186,0
