1-Time,2-VGERA,3-VGERB,4-VGERC,5-VN,6-IGERAN,7-IGERBN,8-IGERCN,9-IGERAT,10-IGERBT,11-IGERCT,12-IN,13-IFD,14-IFAULT,15-VFAULT,16-Speed (rad/s),17-Active Power,18-Reactive Power,19-FAULT 
0.000000,-166.292600,150.663581,32.607950,0.832197,5.454834,-4.379488,-1.290692,-5.075516,4.547454,1.230360,-0.112733,0.473294,-0.082290,318.268047,188.269523,1664.455573,-34.693655,0
0.001042,-199.536980,77.550893,84.738622,1.879312,6.188728,-2.464672,-3.675203,-5.739257,2.594355,3.720887,-0.182010,0.468471,-0.056273,273.313557,188.194190,1664.347181,-35.554108,0
0.002083,-177.468226,13.986899,147.988073,3.140353,5.667663,-0.545833,-4.795544,-5.278628,0.763854,4.898020,-0.178364,0.483561,-0.056273,184.327759,188.269516,1664.737863,-36.112199,0
0.003125,-131.782628,-45.701243,191.454602,3.962282,4.508110,1.847687,-5.737994,-4.165139,-1.590856,5.946464,-0.222118,0.480667,-0.052556,80.706139,188.420430,1664.326166,-35.872311,0
0.004167,-60.084601,-102.547091,195.731991,4.086135,2.376146,3.955593,-5.605521,-2.141273,-3.759557,5.813989,-0.203887,0.470745,-0.082290,-50.025526,188.269279,1663.982209,-36.443854,0
0.005208,5.353266,-163.550674,169.703110,3.601985,0.178132,5.391705,-4.795544,-0.041240,-5.272997,5.019140,-0.196595,0.452142,-0.067423,-173.540606,188.193848,1663.032573,-37.557608,0
0.006250,62.960285,-185.854448,111.824698,2.453536,-2.218034,5.806045,-2.834946,2.251024,-5.678835,3.073652,-0.141902,0.424858,-0.030256,-251.087946,188.269518,1662.965202,-37.666515,0
0.007292,124.488379,-193.159844,32.437827,0.967308,-4.294956,5.701455,-0.772155,4.260382,-5.628106,1.010830,-0.120025,0.463166,-0.086006,-330.605492,188.344860,1662.391114,-37.277802,0
0.008333,165.484508,-151.100963,-32.828802,-0.237437,-5.414145,4.458433,1.404184,5.337601,-4.482457,-1.192037,-0.068979,0.469023,-0.041406,-317.557094,188.269543,1661.794059,-37.622678,0
0.009375,198.977487,-77.718140,-83.683548,-1.307070,-6.159048,2.555686,3.803835,6.004969,-2.622363,-3.671208,0.007591,0.474397,-0.067423,-274.122478,188.194038,1661.003598,-37.163157,0
0.010417,178.061325,-14.659181,-146.945151,-2.590631,-5.634313,0.632824,4.969595,5.558848,-0.728449,-4.882407,0.000299,0.487074,-0.045123,-186.149929,188.194036,1661.314883,-38.483561,0
0.011458,132.533926,44.688355,-191.104326,-3.423819,-4.507785,-1.708400,5.942325,4.463494,1.592441,-5.934635,0.033114,0.483423,-0.108307,-82.168043,188.420283,1661.405416,-39.526037,0
0.012500,62.191890,101.722124,-195.758416,-3.525153,-2.361143,-3.824352,5.775787,2.494033,3.740004,-5.824871,0.022176,0.487281,-0.071140,47.775540,188.269537,1661.123061,-39.630755,0
0.013542,-3.178178,163.277722,-169.632322,-3.052262,-0.177807,-5.320805,5.011230,0.397627,5.253444,-5.033807,0.029468,0.479358,-0.059989,172.472743,188.194186,1660.789886,-40.131299,0
0.014583,-61.756990,185.604986,-113.455144,-1.960110,2.233037,-5.706986,2.974933,-1.887383,5.676193,-3.099674,-0.021578,0.479495,-0.056273,249.986308,188.194087,1660.057309,-41.499538,0
0.015625,-123.691881,192.922127,-33.181201,-0.440104,4.398025,-5.606418,0.934852,-3.933011,5.625463,-0.946012,-0.068979,0.459859,-0.067423,318.110431,188.420392,1659.360002,-42.131454,0
0.016667,-165.027008,152.061237,33.106168,0.865975,5.465842,-4.399601,-1.196068,-5.028365,4.513634,1.188725,-0.112733,0.465853,-0.074856,318.403147,188.194128,1658.485441,-41.996676,0
0.017708,-198.723385,77.539148,83.778639,1.868052,6.170381,-2.508922,-3.538945,-5.648582,2.653540,3.603552,-0.167425,0.461375,-0.067423,273.504949,188.194116,1656.541801,-40.482276,0
0.018750,-178.869417,13.787234,145.946592,3.095316,5.627299,-0.622265,-4.689566,-5.285882,0.818811,4.837460,-0.167425,0.477222,-0.041406,186.759557,188.194119,1655.938992,-39.898741,0
0.019792,-132.155525,-44.726407,190.883474,3.939764,4.482423,1.714937,-5.737994,-4.190528,-1.544354,5.878334,-0.182010,0.474121,-0.071140,83.745887,188.344900,1655.001566,-39.440061,0
0.020833,-61.790890,-100.938025,196.193754,4.018579,2.427519,3.846980,-5.632016,-2.199305,-3.696144,5.813989,-0.222118,0.451729,-0.056273,-45.251996,188.194285,1654.864519,-39.293644,0
0.021875,1.974588,-163.174833,169.678807,3.613244,0.280877,5.347455,-4.840964,-0.168185,-5.154627,5.068345,-0.196595,0.476671,-0.063706,-170.253175,188.269559,1654.095497,-38.120992,0
0.022917,61.061898,-185.490353,115.105649,2.509832,-2.111619,5.773864,-2.831161,2.058793,-5.670380,3.168277,-0.152841,0.476877,-0.071140,-248.521048,188.194083,1654.124903,-36.818902,0
0.023958,123.234087,-192.936689,34.965374,0.944790,-4.221566,5.673296,-0.832714,4.155199,-5.615423,1.022185,-0.134610,0.466542,-0.074856,-330.155159,188.345030,1652.937612,-37.092731,0
0.025000,165.009911,-153.250300,-31.783758,-0.282474,-5.373781,4.498661,1.347410,5.304958,-4.520504,-1.142832,-0.079917,0.465784,-0.071140,-319.290876,188.194072,1653.221086,-37.030405,0
0.026042,197.847494,-79.233246,-82.638504,-1.340848,-6.137031,2.579822,3.735706,5.979580,-2.630818,-3.610649,-0.025225,0.438087,-0.041406,-274.291353,188.269487,1652.235658,-37.136657,0
0.027083,179.880613,-14.436026,-145.377585,-2.568112,-5.579271,0.701211,4.901467,5.547967,-0.762269,-4.806707,0.011237,0.472330,-0.078573,-186.769137,188.193989,1651.559272,-36.711115,0
0.028125,132.545226,44.958490,-190.205102,-3.390041,-4.482099,-1.648059,5.851486,4.456240,1.541711,-5.866505,0.044053,0.464475,-0.063706,-82.404468,188.194076,1650.253212,-35.964346,0
0.029167,61.423496,100.265743,-196.864218,-3.558930,-2.452880,-3.743897,5.756863,2.541184,3.710412,-5.798376,0.007591,0.449524,-0.063706,45.568908,188.194020,1649.898844,-35.480077,0
0.030208,-2.274184,162.385101,-169.802446,-3.052262,-0.251197,-5.244373,5.007445,0.401254,5.160440,-5.045162,0.036760,0.471848,-0.056273,169.759487,188.269624,1648.855597,-35.350954,0
0.031250,-60.751297,185.640221,-115.290046,-1.937591,2.133961,-5.658713,3.069557,-1.753184,5.718468,-3.167804,-0.025225,0.462822,-0.067423,248.218752,188.194043,1649.513624,-34.226761,0
0.032292,-122.448889,192.569777,-35.599383,-0.473882,4.232899,-5.606418,1.037045,-3.806066,5.646601,-1.036852,-0.032517,0.464613,-0.082290,317.288573,188.194089,1648.729521,-33.233303,0
0.033333,-165.060908,154.069634,31.016081,0.798419,5.399792,-4.427760,-1.112800,-4.999349,4.589729,1.086530,-0.090856,0.468265,-0.063706,318.301822,188.194083,1649.369731,-32.555438,0
0.034375,-197.175296,81.227082,82.672837,1.811756,6.096991,-2.520990,-3.485956,-5.608685,2.661995,3.558132,-0.171072,0.466542,-0.100873,275.441380,188.269545,1648.536131,-33.531735,0
0.035417,-180.541805,16.206706,145.108126,3.084057,5.645646,-0.654447,-4.644147,-5.278628,0.869541,4.788255,-0.174718,0.480460,-0.086006,189.225130,188.194056,1648.469017,-33.867924,0
0.036458,-133.681015,-44.127411,189.680458,3.917245,4.493432,1.735050,-5.677435,-4.154258,-1.506306,5.813989,-0.218472,0.466267,-0.119457,84.263770,188.193995,1647.212770,-34.199104,0
0.037500,-62.423686,-99.657819,197.068675,4.063616,2.445866,3.851002,-5.563887,-2.235575,-3.670779,5.810204,-0.222118,0.456896,-0.078573,-44.317555,188.194175,1647.280761,-34.220928,0
0.038542,1.680790,-161.976842,169.933992,3.613244,0.313902,5.250910,-4.791759,-0.160931,-5.065850,4.996430,-0.189302,0.456001,-0.112023,-169.161117,188.194056,1645.342204,-34.591591,0
0.039583,60.553401,-185.537333,115.786143,2.554870,-2.060247,5.697432,-2.895505,2.080555,-5.594286,3.160707,-0.163779,0.433057,-0.082290,-247.440248,188.194121,1644.591995,-35.165080,0
0.040625,121.121001,-192.948434,35.293469,1.046123,-4.162855,5.592841,-0.885703,4.111675,-5.560466,1.086530,-0.112733,0.460341,-0.063706,-328.421377,188.194137,1643.328878,-34.905737,0
0.041667,164.501414,-154.824131,-30.884535,-0.214918,-5.267366,4.530842,1.165733,5.232418,-4.537414,-1.010357,-0.068979,0.470814,-0.100873,-322.296849,188.269404,1642.710051,-33.636493,0
0.042708,196.129905,-82.063794,-81.970162,-1.284552,-5.993922,2.591890,3.584308,5.816365,-2.647728,-3.455464,-0.036163,0.470401,-0.071140,-276.351626,188.194175,1639.721443,-32.955804,0
0.043750,181.541702,-17.278318,-144.320390,-2.534334,-5.597619,0.785688,4.734929,5.511697,-0.867956,-4.712082,0.003945,0.481425,-0.115740,-191.362533,188.194132,1638.948317,-32.637946,0
0.044792,135.268508,43.008819,-188.649688,-3.378782,-4.460082,-1.563582,5.787142,4.452613,1.414887,-5.749171,0.047699,0.481631,-0.086006,-86.085940,188.194052,1637.152926,-32.319378,0
0.045833,64.700474,98.797617,-197.010038,-3.513893,-2.471228,-3.671488,5.703873,2.617351,3.566677,-5.768096,0.033114,0.482803,-0.115740,42.045053,188.194071,1636.362355,-31.707888,0
0.046875,0.449098,161.175365,-169.680929,-2.995965,-0.309908,-5.115646,4.984735,0.517318,5.037843,-5.011097,-0.014286,0.483285,-0.082290,167.778022,188.194141,1634.437269,-31.002633,0
0.047917,-59.734304,185.604986,-116.906219,-2.016406,2.045893,-5.546077,3.092266,-1.669763,5.600098,-3.190514,-0.025225,0.470263,-0.056273,247.194244,188.194164,1633.075932,-30.532955,0
0.048958,-119.861206,192.405347,-35.927478,-0.485141,4.133823,-5.501827,1.052185,-3.711764,5.502866,-1.067132,-0.076271,0.455105,-0.071140,315.363400,188.194208,1630.134472,-30.603733,0
0.050000,-163.919615,155.937091,31.101143,0.854715,5.271360,-4.419715,-0.991682,-4.865150,4.534772,1.014615,-0.138256,0.463373,-0.093440,318.290564,188.194128,1628.247982,-30.062064,0
0.051042,-194.678012,81.837822,82.004495,1.901830,5.983238,-2.520990,-3.391332,-5.470859,2.678905,3.406732,-0.152841,0.461099,-0.063706,275.182439,188.194137,1624.922408,-28.728942,0
0.052083,-182.406293,16.312411,143.552713,3.050279,5.594274,-0.779151,-4.492749,-5.238731,0.975228,4.648210,-0.214826,0.472881,-0.067423,192.771503,188.194103,1623.488370,-27.229932,0
0.053125,-135.545503,-43.375731,187.517461,3.905986,4.486093,1.485642,-5.529822,-4.183274,-1.269567,5.632309,-0.225764,0.477842,-0.041406,88.069084,188.194145,1620.591861,-24.617637,0
0.054167,-65.124368,-98.048753,197.664107,4.074875,2.566959,3.641821,-5.476833,-2.275472,-3.476315,5.738289,-0.218472,0.442634,-0.071140,-39.048660,188.118734,1618.845262,-23.855541,0
0.055208,-1.901286,-160.403011,169.618048,3.601985,0.409309,5.057819,-4.784189,-0.316892,-4.900978,4.992645,-0.200241,0.476671,-0.086006,-165.231962,188.194089,1616.696308,-22.577049,0
0.056250,58.937512,-185.901428,118.471662,2.577388,-1.880443,5.584796,-2.933355,1.852054,-5.475916,3.259117,-0.167425,0.472330,-0.078573,-246.032958,188.194183,1615.591934,-20.305007,0
0.057292,119.064415,-191.762188,37.480770,1.034864,-3.972042,5.568705,-0.953832,3.897682,-5.446324,1.135735,-0.112733,0.460410,-0.078573,-323.411423,188.194080,1612.026089,-19.480267,0
0.058333,164.331916,-156.985213,-29.973159,-0.259955,-5.168290,4.514752,1.040830,5.145370,-4.528959,-0.927087,-0.079917,0.461306,-0.059989,-324.469705,188.118737,1611.389643,-18.951523,0
0.059375,193.191925,-83.755075,-81.095242,-1.295811,-5.898515,2.616027,3.493470,5.747452,-2.685775,-3.334344,0.000299,0.446837,-0.071140,-275.180760,188.194105,1609.186821,-18.142680,0
0.060417,183.462689,-16.785028,-142.497639,-2.433000,-5.535237,0.894301,4.651661,5.504443,-0.948278,-4.583392,-0.003348,0.467025,-0.048839,-192.769824,188.118696,1608.096429,-16.721315,0
0.061458,135.957803,43.936674,-186.122141,-3.311226,-4.427057,-1.382559,5.669809,4.459867,1.288062,-5.563706,0.062284,0.445597,-0.052556,-86.795214,188.194143,1605.024344,-14.678508,0
0.062500,64.282377,97.376470,-198.237357,-3.525153,-2.551956,-3.526670,5.700089,2.653621,3.503265,-5.737816,0.029468,0.455863,-0.082290,38.836430,188.194063,1604.465864,-14.099196,0
0.063542,2.076288,159.366634,-169.595867,-3.029743,-0.405314,-4.994964,4.943101,0.629755,4.881426,-4.912687,0.033114,0.452762,-0.074856,163.556150,188.194052,1601.387903,-13.327250,0
0.064583,-58.344413,185.910356,-119.397311,-2.072703,1.913792,-5.517918,3.202029,-1.571834,5.528231,-3.262429,-0.021578,0.479909,-0.100873,245.618079,188.194029,1601.145734,-12.659876,0
0.065625,-118.200117,191.172121,-39.038306,-0.563957,3.987045,-5.445509,1.158163,-3.566684,5.439454,-1.184467,-0.032517,0.466473,-0.086006,313.415709,188.194058,1599.084662,-11.699512,0
0.066667,-164.394212,157.898507,28.986752,0.764641,5.153937,-4.431783,-0.859209,-4.781729,4.623549,0.901065,-0.112733,0.464820,-0.093440,318.279306,188.194134,1599.430838,-10.421216,0
0.067708,-192.440627,85.690185,81.153878,1.834274,5.887831,-2.565240,-3.266429,-5.362049,2.716953,3.266687,-0.152841,0.461375,-0.086006,276.071847,188.118699,1597.318430,-10.022197,0
0.068750,-184.270781,18.191612,142.167422,2.982723,5.553909,-0.803287,-4.360276,-5.198834,1.021731,4.572510,-0.163779,0.474121,-0.067423,195.090718,188.194199,1596.560457,-10.231756,0
0.069792,-137.274391,-43.293515,185.318008,3.894726,4.464076,1.441392,-5.431414,-4.139750,-1.176562,5.552824,-0.225764,0.466611,-0.100873,88.429350,188.194128,1594.692332,-9.858566,0
0.070833,-65.056569,-96.874251,198.575482,4.074875,2.555950,3.593548,-5.473048,-2.337131,-3.417130,5.715579,-0.200241,0.449042,-0.108307,-38.474485,188.194208,1594.377174,-9.053508,0
0.071875,-2.172484,-158.594280,169.970447,3.579466,0.475359,5.005524,-4.750125,-0.364043,-4.757243,4.928300,-0.192949,0.456896,-0.059989,-162.845197,188.118705,1591.861479,-8.509935,0
0.072917,58.395116,-186.077603,119.468099,2.656203,-1.781367,5.564682,-3.039333,1.808530,-5.497053,3.327247,-0.134610,0.486799,-0.052556,-245.143550,188.194242,1592.638562,-7.899653,0
0.073958,116.928729,-191.304133,38.926819,1.124939,-3.869297,5.536523,-1.029531,3.799753,-5.442096,1.196295,-0.156487,0.465302,-0.067423,-319.414718,188.194155,1591.485286,-7.422751,0
0.075000,164.218916,-158.653005,-28.478504,-0.181140,-5.120587,4.563024,0.953776,5.054695,-4.621964,-0.741622,-0.076271,0.471021,-0.086006,-327.847203,188.194074,1591.485514,-5.035798,0
0.076042,191.316137,-87.959789,-80.524114,-1.284552,-5.817787,2.704527,3.319363,5.642269,-2.795690,-3.118599,-0.014286,0.444701,-0.045123,-277.691367,188.118708,1589.679326,-3.134350,0
0.077083,185.270677,-19.815240,-141.598416,-2.478038,-5.494873,0.982801,4.530543,5.475427,-1.032828,-4.484982,-0.003348,0.475430,-0.089723,-197.453287,188.194110,1589.095035,-2.978658,0
0.078125,139.178282,42.539018,-183.898385,-3.333744,-4.452743,-1.261878,5.560046,4.445359,1.093598,-5.480436,0.025822,0.485352,-0.100873,-89.925029,188.194114,1587.445035,-1.994705,0
0.079167,67.220357,96.354655,-198.869244,-3.547671,-2.621676,-3.430125,5.609250,2.722534,3.401805,-5.737816,0.033114,0.482872,-0.071140,36.798673,188.194164,1587.564155,-1.548789,0
0.080208,3.985975,157.428707,-169.948266,-3.074780,-0.515399,-4.789805,4.882542,0.698668,4.703871,-4.908902,0.011237,0.484112,-0.071140,161.394552,188.118642,1585.374623,-0.777936,0
0.081250,-57.383919,186.462372,-120.089957,-2.083962,1.737658,-5.453554,3.258804,-1.452143,5.485956,-3.288924,-0.039809,0.454829,-0.100873,245.460462,188.194195,1584.840991,0.363936,0
0.082292,-115.714134,190.643596,-38.941093,-0.541438,3.851274,-5.369077,1.252786,-3.436112,5.409861,-1.233672,-0.058040,0.461650,-0.089723,310.646162,188.194018,1582.899628,1.377950,0
0.083333,-164.156914,159.249184,28.828780,0.843456,5.054861,-4.484078,-0.734306,-4.734578,4.653141,0.779946,-0.116379,0.461237,-0.082290,318.391889,188.194152,1582.817437,2.878228,0
0.084375,-189.649545,87.510662,80.886542,1.868052,5.781417,-2.633626,-3.069613,-5.249612,2.822640,3.054728,-0.149195,0.463648,-0.086006,276.353305,188.118665,1580.252785,5.487916,0
0.085417,-185.999669,19.248663,141.243895,3.050279,5.546570,-0.984310,-4.265653,-5.162564,1.161238,4.458961,-0.178364,0.457241,-0.097156,199.751664,188.194033,1579.420171,7.059412,0
0.086458,-140.144572,-42.671030,182.413759,3.815911,4.493432,1.260369,-5.314081,-4.183274,-1.003235,5.412779,-0.225764,0.455312,-0.097156,92.527380,188.118737,1577.431982,8.735482,0
0.087500,-68.299647,-95.770221,199.426099,4.074875,2.724746,3.480912,-5.457908,-2.427806,-3.311443,5.723149,-0.211179,0.474604,-0.059989,-33.881089,188.194067,1577.847029,9.341663,0
0.088542,-5.867560,-156.679843,170.262087,3.568207,0.636816,4.824501,-4.776620,-0.516377,-4.592371,4.943440,-0.196595,0.481425,-0.063706,-158.375642,188.194061,1576.100878,10.517717,0
0.089583,56.530628,-187.064184,121.375912,2.667463,-1.663944,5.476182,-3.099892,1.663450,-5.433641,3.406732,-0.156487,0.476119,-0.089723,-244.839575,188.194213,1575.944835,11.859731,0
0.090625,115.109441,-190.258827,40.664508,1.079901,-3.718848,5.435955,-1.112800,3.651046,-5.370229,1.359050,-0.105440,0.462753,-0.067423,-314.472313,188.118692,1573.902113,13.802013,0
0.091667,164.603114,-160.215091,-27.737252,-0.226178,-5.025181,4.579115,0.878078,4.996663,-4.592371,-0.677277,-0.087210,0.461995,-0.059989,-329.637276,188.194123,1573.450289,14.144133,0
0.092708,188.491156,-88.676234,-80.208170,-1.284552,-5.715042,2.752799,3.224739,5.555221,-2.808372,-3.016404,-0.032517,0.457999,-0.056273,-275.383410,188.194143,1571.037435,14.983752,0
0.093750,186.649268,-18.617249,-140.200973,-2.421741,-5.535237,1.071301,4.485123,5.500816,-1.113150,-4.424422,0.011237,0.456276,-0.082290,-198.691703,188.118744,1570.884733,16.435027,0
0.094792,140.285674,43.478619,-181.297927,-3.198633,-4.482099,-1.173378,5.499487,4.503391,1.055550,-5.419876,0.014883,0.449179,-0.089723,-91.377352,188.194052,1570.062813,17.368959,0
0.095833,67.581955,95.097938,-199.744165,-3.547671,-2.709743,-3.357716,5.681164,2.769685,3.346848,-5.696181,0.011237,0.468678,-0.067423,33.162235,188.194204,1569.550086,17.814401,0
0.096875,6.155561,155.866621,-170.300664,-3.052262,-0.640161,-4.769692,4.927961,0.825613,4.593957,-4.958107,0.044053,0.482320,-0.074856,156.711089,188.194150,1568.783922,19.138320,0
0.097917,-55.790630,186.849957,-122.289409,-2.140259,1.664268,-5.441486,3.308008,-1.350587,5.481729,-3.421399,-0.017932,0.472054,-0.097156,244.222046,188.194105,1569.775512,20.359280,0
0.098958,-114.369443,189.727485,-42.380016,-0.586475,3.744859,-5.373100,1.252786,-3.334556,5.388724,-1.301802,-0.036163,0.466198,-0.086006,308.574630,188.194134,1568.681981,20.480700,0
0.100000,-164.575011,160.717310,26.447052,0.730863,5.106234,-4.484078,-0.696457,-4.694681,4.636231,0.711816,-0.116379,0.466060,-0.071140,318.380631,188.194128,1568.443962,20.316705,0
0.101042,-188.191855,90.223759,79.902256,1.777978,5.711697,-2.633626,-2.974989,-5.216969,2.831095,2.967673,-0.152841,0.459239,-0.093440,276.297013,188.194123,1567.455932,20.187575,0
0.102083,-187.186162,19.894639,139.822149,2.960204,5.542901,-0.952128,-4.295932,-5.166191,1.140100,4.409756,-0.141902,0.453245,-0.078573,200.415905,188.194061,1567.031289,19.688381,0
0.103125,-141.251965,-42.835460,180.651766,3.782133,4.530127,1.248301,-5.268661,-4.150631,-0.960961,5.356004,-0.207533,0.466887,-0.074856,92.414797,188.194101,1565.694261,19.769679,0
0.104167,-67.768551,-94.536994,200.118744,4.164950,2.717407,3.448730,-5.469263,-2.482211,-3.286078,5.742074,-0.236703,0.485903,-0.100873,-32.867839,188.193998,1565.933242,20.377375,0
0.105208,-5.573762,-155.094267,170.930429,3.647022,0.640485,4.776229,-4.772835,-0.523631,-4.528959,4.852600,-0.185656,0.467231,-0.086006,-155.921327,188.194058,1564.093860,20.019867,0
0.106250,55.784833,-187.240359,122.335894,2.712500,-1.601563,5.508364,-3.137741,1.677958,-5.420959,3.387807,-0.163779,0.453865,-0.078573,-243.488576,188.194085,1564.054675,19.203485,0
0.107292,113.324053,-190.000436,42.669534,1.192494,-3.678484,5.435955,-1.120370,3.614776,-5.357546,1.347695,-0.149195,0.467231,-0.097156,-311.342499,188.194020,1563.300704,18.206172,0
0.108333,164.817812,-161.319122,-25.051732,-0.147362,-4.988486,4.607274,0.836443,4.960393,-4.689604,-0.639428,-0.061686,0.466473,-0.078573,-330.650526,188.194376,1564.047698,18.379102,0
0.109375,187.383763,-92.927928,-78.883638,-1.284552,-5.648991,2.784981,3.133901,5.504443,-2.842192,-2.929349,-0.032517,0.464475,-0.082290,-278.040375,188.194360,1563.367026,17.983423,0
0.110417,187.993959,-22.011557,-139.459721,-2.433000,-5.494873,1.083369,4.409425,5.460919,-1.138515,-4.390357,0.000299,0.474810,-0.112023,-202.823508,188.194074,1563.118193,16.942759,0
