1-Time,2-VGERA,3-VGERB,4-VGERC,5-VN,6-IGERAN,7-IGERBN,8-IGERCN,9-IGERAT,10-IGERBT,11-IGERCT,12-IN,13-IFD,14-IFAULT,15-VFAULT,16-Speed (rad/s),17-Active Power,18-Reactive Power,19-FAULT 
0.000000,163.323116,-157.145507,-22.935038,2.419098,-1.813177,5.225131,-2.830048,1.749787,-5.190076,2.869728,-0.208806,0.553847,-0.073035,24.906958,188.570975,1075.138762,943.218367,0
0.001042,179.701687,-106.490277,-94.595076,1.129758,-3.673523,5.018765,-0.856153,3.701610,-5.030602,0.916470,-0.146705,0.541043,-0.054364,25.653418,188.495694,1075.877334,942.395828,0
0.002083,177.909572,-22.697126,-142.840341,0.247578,-4.607246,4.086148,0.908785,4.627899,-4.111526,-0.769949,-0.143052,0.557767,-0.065566,21.400858,188.646547,1076.826964,941.588346,0
0.003125,151.889876,52.325287,-170.970076,-0.295302,-5.036829,2.470934,2.718499,5.080016,-2.592324,-2.545315,-0.084604,0.544244,-0.061832,12.488578,188.571013,1076.770869,940.940426,0
0.004167,85.264028,115.979571,-179.722917,-0.464952,-4.674701,0.335836,4.326719,4.763902,-0.498174,-4.050284,-0.088257,0.540651,-0.054364,1.302988,188.571075,1077.692916,941.512636,0
0.005208,4.516767,154.251875,-176.842235,-0.487572,-3.641570,-1.501618,4.864037,3.694258,1.444895,-4.715601,-0.051727,0.559073,-0.087972,-6.184231,188.495635,1077.974450,941.230199,0
0.006250,-68.336114,172.771900,-130.369697,0.383298,-1.781224,-3.390664,4.748364,1.915195,3.165539,-4.555498,-0.066339,0.553259,-0.039427,-15.718561,188.721847,1076.879587,940.889120,0
0.007292,-121.453044,192.065104,-46.768371,2.000628,0.150127,-4.759826,4.058061,-0.121170,4.751889,-4.000474,-0.055380,0.552345,-0.046895,-17.121001,188.571027,1077.219636,940.504707,0
0.008333,-163.556405,157.018402,23.611364,3.357828,1.882663,-5.152716,2.729693,-1.789961,5.087624,-2.730323,-0.095563,0.554500,-0.050629,-20.434831,188.571071,1076.838794,939.941409,0
0.009375,-180.286594,106.447737,94.951326,4.658478,3.735908,-4.982066,0.789381,-3.701351,4.999494,-0.801970,-0.110175,0.548425,-0.046895,-20.559241,188.495586,1076.498186,940.234208,0
0.010417,-178.052121,23.077419,143.061175,5.597208,4.669631,-4.017701,-1.053916,-4.572504,4.080418,0.866660,-0.179582,0.532028,-0.035692,-14.870311,188.721933,1076.620093,940.954460,0
0.011458,-152.452097,-51.630892,171.289394,6.140088,5.053061,-2.382644,-2.844973,-5.109163,2.561215,2.670489,-0.212459,0.557701,-0.050629,-9.746881,188.571085,1076.022097,941.519662,0
0.012500,-85.701482,-115.889220,179.328220,6.332358,4.726436,-0.227703,-4.438268,-4.715858,0.420902,4.182574,-0.227071,0.555284,-0.050629,3.587608,188.571029,1075.808311,941.508542,0
0.013542,-4.716028,-154.330657,176.915341,6.241878,3.693305,1.581971,-5.042750,-3.701351,-1.471807,4.862122,-0.216112,0.554827,-0.065566,10.848628,188.495720,1075.681102,941.514333,0
0.014583,68.545182,-172.367446,130.208902,5.337078,1.886213,3.463080,-4.897227,-1.951694,-3.288975,4.730482,-0.256295,0.554762,-0.058098,21.106798,188.721844,1074.894715,942.151671,0
0.015625,121.208412,-192.023077,46.742993,3.787608,-0.034487,4.860021,-4.229312,0.073645,-4.787194,4.171900,-0.205153,0.555219,-0.080503,22.837228,188.570950,1074.394251,942.072519,0
0.016667,163.209691,-156.879727,-23.796780,2.486958,-1.777674,5.241006,-2.859899,1.716705,-5.194273,2.891075,-0.219765,0.550907,-0.054364,24.431938,188.571180,1073.814375,942.695536,0
0.017708,179.713030,-105.994960,-95.050568,1.174998,-3.698375,5.086231,-0.953169,3.686907,-5.068372,0.991185,-0.168623,0.548229,-0.080503,26.037958,188.495698,1073.277738,944.044744,0
0.018750,177.694065,-22.878340,-143.283523,0.224958,-4.589494,4.129802,0.893859,4.587466,-4.136707,-0.748602,-0.132093,0.566781,-0.024490,21.830638,188.721732,1072.689397,944.412261,0
0.019792,152.139411,51.987022,-171.228599,-0.272682,-5.061681,2.518557,2.692379,5.098395,-2.634291,-2.538199,-0.110175,0.557962,-0.043161,13.382068,188.571029,1072.829648,945.028192,0
0.020833,85.524906,116.172865,-179.538258,-0.510192,-4.664050,0.272339,4.281943,4.705090,-0.556928,-4.053842,-0.066339,0.559334,-0.073035,1.642288,188.570995,1072.182929,944.974783,0
0.021875,4.244547,154.433088,-176.632955,-0.408402,-3.630919,-1.481775,4.867768,3.708961,1.402928,-4.722717,-0.033462,0.560249,-0.073035,-6.466981,188.495595,1071.737977,945.548934,0
0.022917,-68.869211,173.122247,-129.581819,0.451158,-1.749272,-3.386696,4.725976,1.915195,3.215899,-4.594634,-0.037115,0.553978,-0.084238,-14.666731,188.721940,1072.387568,946.103409,0
0.023958,-121.475729,192.173832,-46.017424,2.000628,0.146577,-4.739983,4.080449,-0.058682,4.722512,-4.004032,-0.062686,0.549928,-0.013287,-17.301961,188.495660,1071.419446,946.759893,0
0.025000,-163.669830,156.982159,24.066856,3.357828,1.879113,-5.144778,2.692379,-1.786285,5.125394,-2.733881,-0.073645,0.550254,-0.050629,-20.502691,188.571098,1071.660222,947.229511,0
0.026042,-179.696784,106.616870,95.271402,4.726338,3.732358,-4.934443,0.729679,-3.705027,5.016280,-0.794854,-0.154011,0.548033,-0.031958,-20.683651,188.495694,1071.748005,947.268302,0
0.027083,-177.972723,23.536493,143.652084,5.608518,4.680282,-4.025638,-1.072573,-4.631316,4.059435,0.898681,-0.157664,0.551299,-0.069301,-16.487641,188.721929,1072.780577,947.080233,0
0.028125,-152.905797,-51.473840,170.957008,6.128778,5.085014,-2.418361,-2.844973,-5.123866,2.544428,2.706067,-0.201500,0.555807,-0.043161,-10.335001,188.571064,1073.470825,946.752560,0
0.029167,-85.520002,-115.804654,179.882198,6.298428,4.705134,-0.215797,-4.442000,-4.715858,0.395722,4.196805,-0.248989,0.560314,-0.043161,4.119178,188.571085,1073.900932,946.618268,0
0.030208,-4.148903,-154.173605,176.718372,6.219258,3.675553,1.593877,-5.009168,-3.738108,-1.467610,4.855007,-0.256295,0.559792,-0.076769,10.848628,188.495705,1073.610465,947.098651,0
0.031250,69.100965,-172.886925,129.445644,5.359698,1.872012,3.482923,-4.886033,-1.925964,-3.276385,4.709135,-0.248989,0.553194,-0.043161,20.416888,188.721934,1073.213177,946.981388,0
0.032292,121.299152,-191.902268,46.041288,3.832848,-0.027387,4.816367,-4.281551,0.047914,-4.770407,4.150553,-0.208806,0.556068,-0.050629,22.328278,188.571065,1072.536136,947.047038,0
0.033333,163.413856,-156.879727,-23.870644,2.520888,-1.767023,5.248943,-2.893481,1.679947,-5.164896,2.898191,-0.190541,0.554892,-0.069301,25.008748,188.556116,1071.872549,947.193995,0
0.034375,179.565577,-106.393629,-95.112122,1.163688,-3.662872,5.086231,-0.983020,3.631771,-5.064176,1.016090,-0.186888,0.551299,-0.050629,25.653418,188.495604,1071.152417,947.397582,0
0.035417,177.807490,-23.808570,-143.357387,0.202338,-4.568193,4.105991,0.856545,4.576438,-4.170280,-0.720139,-0.110175,0.554762,-0.050629,21.423478,188.721663,1071.108033,947.802718,0
0.036458,152.082698,51.540029,-171.154735,-0.317922,-5.040380,2.542369,2.681185,5.076340,-2.659471,-2.531083,-0.077298,0.560837,-0.065566,12.511198,188.571071,1070.804992,947.796946,0
0.037500,85.626988,116.317836,-179.365910,-0.487572,-4.671151,0.399333,4.252092,4.738171,-0.594698,-4.007590,-0.062686,0.563123,-0.061832,1.167268,188.571152,1070.154187,948.455520,0
0.038542,3.416544,154.421007,-176.485228,-0.419712,-3.669972,-1.394467,4.841649,3.756746,1.310601,-4.658676,-0.029809,0.559204,-0.073035,-6.421741,188.495656,1068.364256,949.396520,0
0.039583,-69.821981,172.445716,-129.606440,0.462468,-1.859330,-3.327167,4.729707,1.996062,3.123572,-4.580403,-0.037115,0.552345,-0.043161,-15.763801,188.721849,1066.623958,950.435897,0
0.040625,-121.918086,192.077185,-45.808144,2.034558,0.040068,-4.688391,4.155076,-0.036628,4.646971,-4.068073,-0.099216,0.554958,-0.058098,-17.109691,188.571073,1065.718357,951.301929,0
0.041667,-163.511035,156.716379,23.771402,3.369138,1.772604,-5.113030,2.819246,-1.635579,5.100214,-2.805037,-0.059033,0.559269,-0.046895,-20.333041,188.570988,1063.751568,952.602220,0
0.042708,-180.309279,106.773922,95.135985,4.715028,3.640051,-4.990004,0.864008,-3.576375,5.049854,-0.951399,-0.121134,0.551887,-0.061832,-20.525311,188.495647,1061.773238,954.736254,0
0.043750,-177.745873,24.466723,143.541288,5.563278,4.619927,-4.101041,-0.904661,-4.572504,4.185335,0.759925,-0.183235,0.556591,-0.046895,-14.994721,188.721846,1060.256885,956.756488,0
0.044792,-152.384042,-50.881876,171.584849,6.140088,5.088564,-2.501702,-2.718107,-5.076081,2.678723,2.570869,-0.201500,0.555088,-0.087972,-9.645091,188.570957,1057.978111,958.368673,0
0.045833,-86.041757,-116.493265,178.552652,6.253188,4.744187,-0.354698,-4.333790,-4.723209,0.538409,4.079396,-0.238030,0.548229,-0.076769,3.734638,188.571111,1055.452275,959.600438,0
0.046875,-3.218818,-154.415223,176.632198,6.241878,3.739458,1.458945,-4.949466,-3.756487,-1.350103,4.769618,-0.248989,0.555807,-0.039427,10.973038,188.493071,1053.184241,960.338559,0
0.047917,70.121790,-171.461378,129.925758,5.371008,1.982071,3.332117,-4.900958,-2.054615,-3.142090,4.719808,-0.248989,0.533008,-0.046895,21.265138,188.706431,1050.932122,962.009642,0
0.048958,121.911647,-191.757297,46.312121,3.844158,0.121725,4.721121,-4.359910,-0.110143,-4.694867,4.271520,-0.256295,0.555154,-0.039427,22.950328,188.553091,1049.266688,964.675629,0
0.050000,163.221034,-156.456896,-23.365909,2.532198,-1.614361,5.169571,-3.020348,1.492484,-5.152306,3.040505,-0.201500,0.558354,-0.073035,24.318838,188.547996,1046.929792,967.012150,0
0.051042,179.996592,-106.659409,-94.964394,1.174998,-3.520861,5.086231,-1.117349,3.499444,-5.114536,1.147730,-0.128440,0.552475,-0.039427,26.004028,188.565810,1045.145733,969.004836,0
0.052090,177.115597,-23.409900,-144.120644,0.202338,-4.507838,4.113928,0.722216,4.480869,-4.220640,-0.613404,-0.124787,0.555676,-0.013287,21.774088,188.714981,1042.942499,970.234883,0
0.053135,151.424833,53.352164,-170.896213,-0.363162,-4.948072,2.617772,2.543125,5.039583,-2.718224,-2.406559,-0.113828,0.560380,-0.054364,13.178488,188.570126,1040.511222,971.483762,0
0.054168,85.411481,117.308470,-178.504167,-0.464952,-4.678251,0.558077,4.121494,4.741847,-0.661845,-3.904412,-0.062686,0.543264,-0.087972,1.393468,188.560556,1038.541401,972.232210,0
0.055208,2.554514,154.517654,-176.386743,-0.453642,-3.698375,-1.299221,4.800603,3.852316,1.218273,-4.605308,-0.037115,0.492246,-0.035692,-6.670561,188.562326,1036.906750,973.828380,0
0.056250,-70.695354,171.732943,-129.791099,0.428538,-1.951638,-3.156518,4.722245,2.084280,3.022851,-4.594634,-0.037115,0.547184,-0.031958,-14.904241,188.718936,1035.297807,975.173395,0
0.057291,-122.383129,191.618111,-46.472917,2.057178,-0.116144,-4.597114,4.218510,0.139808,4.588218,-4.121441,-0.033462,0.555937,-0.035692,-17.369821,188.564699,1033.465321,977.120872,0
0.058333,-163.692515,156.559327,23.082008,3.323898,1.634143,-5.077312,2.867754,-1.525307,5.066641,-2.893984,-0.073645,0.558158,-0.065566,-20.287801,188.567268,1031.968424,978.367866,0
0.059375,-180.127799,107.148430,95.135985,4.669788,3.544193,-5.021752,0.983412,-3.517563,5.083428,-1.011883,-0.117481,0.553586,-0.058098,-20.706271,188.563915,1031.230214,979.297517,0
0.060416,-177.439626,24.635855,143.910606,5.631138,4.509869,-4.116915,-0.830034,-4.491637,4.227302,0.656747,-0.161317,0.554696,-0.020755,-16.759081,188.715282,1029.446749,980.276598,0
0.061458,-152.021082,-51.304707,171.449432,6.151398,5.021109,-2.596948,-2.609897,-5.043000,2.699706,2.481923,-0.205153,0.556787,-0.065566,-10.052251,188.567063,1027.893541,980.638373,0
0.062500,-85.406577,-117.169796,178.343372,6.275808,4.729986,-0.453912,-4.251700,-4.748940,0.622343,3.961987,-0.208806,0.539802,-0.054364,4.198348,188.568359,1025.800452,981.819479,0
0.063541,-2.436186,-154.318576,176.287501,6.298428,3.789162,1.316076,-4.889764,-3.796920,-1.211612,4.719808,-0.238030,0.566063,-0.043161,10.973038,188.492247,1023.627302,982.974633,0
0.064583,70.518777,-171.219760,130.159659,5.393628,2.049526,3.197185,-4.871107,-2.135481,-3.028780,4.694903,-0.227071,0.558354,-0.050629,20.733568,188.718849,1021.778908,983.887664,0
0.065625,122.217895,-191.104928,47.149243,3.844158,0.214032,4.637781,-4.344984,-0.231443,-4.585753,4.235941,-0.234377,0.560837,-0.043161,22.531858,188.493148,1019.490746,984.102187,0
0.066666,163.311774,-156.481057,-22.651894,2.509578,-1.497202,5.161634,-3.109901,1.396915,-5.089356,3.136567,-0.172276,0.562927,-0.050629,24.680758,188.567733,1017.915638,985.128679,0
0.067708,179.826455,-106.925189,-94.939773,1.141068,-3.389500,5.070356,-1.180783,3.363441,-5.122929,1.233119,-0.164970,0.555872,-0.031958,25.630798,188.492110,1015.952676,986.117701,0
0.068750,177.126940,-24.352210,-143.406629,0.191028,-4.390679,4.248860,0.606544,4.400002,-4.283591,-0.442627,-0.157664,0.559857,-0.069301,21.751468,188.718215,1013.842278,987.412080,0
0.069791,150.812338,51.672919,-171.573296,-0.295302,-4.909019,2.736829,2.408795,5.013853,-2.806355,-2.242898,-0.095563,0.549340,-0.020755,12.307618,188.491860,1011.728497,988.469757,0
0.070833,85.490878,117.888353,-177.654735,-0.453642,-4.685352,0.681103,4.058061,4.771253,-0.821319,-3.783445,-0.044421,0.516742,-0.080503,1.065478,188.566743,1009.151983,990.182321,0
0.071875,2.055444,154.831758,-176.017425,-0.442332,-3.794232,-1.184132,4.759558,3.808207,1.050406,-4.598192,-0.059033,0.536471,-0.069301,-6.557461,188.491547,1007.161388,990.835320,0
0.072917,-70.910861,170.645661,-130.603599,0.405918,-2.100749,-3.033492,4.744633,2.183525,2.867574,-4.576845,-0.055380,0.545616,-0.073035,-16.148341,188.716521,1004.840798,991.796765,0
0.073958,-122.814144,191.074470,-47.420833,2.000628,-0.204901,-4.533616,4.255823,0.283162,4.504284,-4.174808,-0.033462,0.559008,-0.054364,-17.268031,188.492336,1003.028224,993.315844,0
0.075001,-163.556405,156.426437,22.651136,3.335208,1.449529,-5.097155,2.979695,-1.378277,5.003690,-2.993603,-0.088257,0.561686,-0.061832,-19.993741,188.491831,1000.783706,994.639250,0
0.076042,-180.445389,106.798084,95.000568,4.692408,3.384431,-5.009847,1.084159,-3.337452,4.999494,-1.125734,-0.110175,0.556133,-0.065566,-20.672341,188.491733,997.496226,995.152429,0
0.077083,-177.076666,24.370076,143.492046,5.631138,4.414011,-4.156601,-0.628540,-4.374013,4.218909,0.489529,-0.154011,0.552802,-0.054364,-15.130441,188.717282,994.476515,995.717480,0
0.078125,-150.807435,-51.195979,172.089584,6.140088,4.978505,-2.696162,-2.471837,-4.906997,2.796230,2.339609,-0.179582,0.503547,-0.058098,-9.249241,188.495229,991.161139,996.354565,0
0.079167,-85.951017,-117.991297,176.841478,6.275808,4.758388,-0.644404,-4.091251,-4.767318,0.815391,3.819673,-0.238030,0.555023,-0.035692,3.723328,188.495617,988.017601,998.152024,0
0.080208,-2.379473,-154.825974,176.004357,6.253188,3.906321,1.181144,-4.867376,-3.899841,-1.085711,4.680672,-0.248989,0.568023,-0.050629,11.176618,188.495758,986.355240,1000.060119,0
0.081250,70.722942,-169.987508,131.144508,5.416248,2.212839,3.034473,-4.897227,-2.300890,-2.865109,4.702019,-0.259948,0.554892,-0.054364,21.627058,188.646446,983.895692,1001.945747,0
0.082292,123.125295,-190.645854,47.912500,3.866778,0.380895,4.582221,-4.453194,-0.415230,-4.526999,4.342677,-0.208806,0.566063,-0.095440,23.267008,188.495725,982.202344,1004.675379,0
0.083333,163.107609,-156.348168,-22.528788,2.498268,-1.294836,5.110042,-3.210648,1.220479,-5.064176,3.239744,-0.205153,0.559988,-0.061832,23.968228,188.495812,979.943046,1006.501879,0
0.084375,180.178072,-106.224497,-95.124432,1.107138,-3.265241,5.082262,-1.322575,3.264196,-5.114536,1.325623,-0.179582,0.550123,-0.054364,25.981408,188.495607,978.053185,1007.624128,0
0.085417,176.729952,-23.820651,-143.443561,0.202338,-4.245117,4.260765,0.386393,4.297081,-4.363328,-0.293198,-0.135746,0.539737,-0.020755,22.316968,188.646487,975.456437,1009.315959,0
0.086458,149.859568,51.902456,-171.905682,-0.306612,-4.884167,2.804295,2.263272,4.885201,-2.894485,-2.111257,-0.102869,0.563384,-0.065566,12.805258,188.495729,972.325778,1009.890412,0
0.087500,85.649673,118.516560,-176.534470,-0.442332,-4.688902,0.816035,3.890149,4.712441,-0.943023,-3.690941,-0.069992,0.538365,-0.058098,1.597048,188.495497,969.854118,1010.293554,0
0.088542,2.645254,155.097538,-175.488069,-0.397092,-3.833285,-1.021420,4.677468,3.841288,0.937095,-4.480783,-0.066339,0.536928,-0.039427,-6.783661,188.493456,967.528728,1010.646158,0
0.089583,-70.695354,170.162425,-130.886743,0.462468,-2.203707,-2.942214,4.655080,2.286446,2.729083,-4.551940,-0.037115,0.548817,-0.084238,-15.345331,188.566125,965.359906,1011.610158,0
0.090625,-123.506036,190.410020,-47.950190,2.000628,-0.322060,-4.470119,4.270749,0.400786,4.386777,-4.199713,-0.062686,0.555480,-0.035692,-17.539471,188.555040,963.121606,1012.608835,0
0.091667,-163.567748,156.281466,22.958902,3.312588,1.353671,-4.926506,3.035666,-1.286383,4.902970,-3.075434,-0.069992,0.560118,-0.039427,-20.050291,188.469380,960.998134,1013.394916,0
0.092708,-180.059744,106.218200,95.566856,4.681098,3.288573,-4.982066,1.166249,-3.234531,4.978510,-1.207564,-0.088257,0.549666,-0.031958,-20.694961,188.624441,958.906550,1014.203171,0
0.093750,-176.770418,23.427765,143.664394,5.619828,4.318154,-4.176444,-0.516599,-4.193901,4.298646,0.418372,-0.172276,0.520793,-0.087972,-16.894801,188.511095,956.086653,1015.136709,0
0.094792,-150.387762,-51.594649,171.917235,6.128778,4.911050,-2.771565,-2.371090,-4.833482,2.850787,2.207969,-0.219765,0.502828,-0.028224,-9.724261,188.446209,953.593346,1015.681835,0
0.095833,-85.973702,-118.232915,176.373675,6.241878,4.715785,-0.711870,-4.020355,-4.668073,0.890931,3.773421,-0.216112,0.535033,-0.039427,3.904288,188.495953,951.911387,1015.283105,0
0.096875,-3.139421,-154.934702,175.314963,6.219258,3.885020,1.081930,-4.766629,-3.848381,-0.972400,4.613073,-0.238030,0.545028,-0.058098,10.961728,188.495206,950.032054,1014.825159,0
0.097917,70.484750,-169.806295,131.132197,5.416248,2.269643,2.959070,-4.830062,-2.304566,-2.789568,4.648651,-0.205153,0.546400,-0.065566,20.982388,188.570736,948.741659,1014.404505,0
0.098958,123.567652,-189.945162,48.183333,3.798918,0.416398,4.455226,-4.408417,-0.459339,-4.438868,4.335561,-0.238030,0.562862,-0.084238,22.712818,188.495218,947.236677,1014.434379,0
0.100000,163.016869,-156.118630,-23.095076,2.475648,-1.188328,5.010828,-3.244230,1.139612,-4.959258,3.232628,-0.227071,0.556199,-0.043161,24.341458,188.495367,945.209517,1014.119032,0
0.101042,179.815112,-105.668775,-95.653788,1.118448,-3.151632,5.018765,-1.419590,3.142896,-5.047389,1.418127,-0.183235,0.548817,-0.091706,25.698658,188.495233,942.579641,1014.575589,0
0.102083,176.412362,-22.950825,-143.591288,0.224958,-4.156360,4.244891,0.315497,4.190485,-4.346541,-0.165115,-0.113828,0.531245,-0.061832,22.022908,188.495351,939.898599,1015.070017,0
0.103125,149.326471,51.648757,-172.275001,-0.363162,-4.809612,2.887635,2.166256,4.852120,-2.982616,-1.997406,-0.099216,0.537646,-0.061832,12.273688,188.495305,938.019573,1016.215614,0
0.104167,86.545731,118.661531,-175.882008,-0.442332,-4.667600,0.895406,3.785671,4.697738,-1.056334,-3.616227,-0.059033,0.562601,-0.087972,1.404778,188.486616,936.390277,1016.889815,0
0.105208,3.563997,155.399560,-175.032576,-0.431022,-3.872338,-0.898394,4.580453,3.885397,0.836374,-4.452321,-0.062686,0.560967,-0.039427,-6.659251,188.491715,935.219959,1017.738259,0
0.106250,-70.774751,169.389247,-131.526894,0.417228,-2.278263,-2.791408,4.666274,2.400394,2.624166,-4.544825,-0.033462,0.556525,-0.020755,-16.544191,188.566909,933.549000,1018.916032,0
0.107292,-124.073161,189.987189,-47.974811,1.989318,-0.449870,-4.351062,4.308063,0.518410,4.294449,-4.210387,-0.055380,0.559857,-0.054364,-17.460301,188.492406,931.490114,1019.893993,0
0.108333,-163.057335,156.366033,23.426705,3.301278,1.222311,-4.922538,3.155069,-1.124650,4.898773,-3.118128,-0.080951,0.557571,-0.069301,-19.654441,188.492327,929.589661,1021.143293,0
0.109375,-180.297936,105.457103,95.739205,4.669788,3.157213,-4.982066,1.300578,-3.120582,4.932347,-1.314300,-0.106522,0.551561,-0.054364,-20.706271,188.485853,927.176924,1022.005772,0
0.110417,-176.634308,23.125742,143.775190,5.608518,4.218746,-4.232004,-0.367344,-4.171847,4.340613,0.244037,-0.132093,0.538496,-0.087972,-15.288781,188.488722,925.311317,1023.766317,0
