1-Time,2-VGERA,3-VGERB,4-VGERC,5-VN,6-IGERAN,7-IGERBN,8-IGERCN,9-IGERAT,10-IGERBT,11-IGERCT,12-IN,13-IFD,14-IFAULT,15-VFAULT,16-Speed (rad/s),17-Active Power,18-Reactive Power,19-FAULT 
0.000000,-149.591310,172.873395,-4.527559,0.122861,0.545135,-4.912972,3.799116,-0.531512,4.934434,-4.093168,-0.061180,0.572579,0.003860,-147.578909,188.269536,990.782480,992.695642,0
0.001042,-165.445105,134.690367,72.234551,1.586570,2.328499,-5.066948,2.144414,-2.321156,4.991756,-2.368216,-0.032010,0.569892,-0.029590,-162.237248,188.269537,990.180377,992.971519,0
0.002083,-185.502473,54.953494,125.118627,2.633685,4.020126,-4.709057,0.118563,-4.010758,4.652234,-0.372907,0.015390,0.568928,-0.011006,-182.153224,188.420354,989.626782,993.243240,0
0.003125,-159.964641,-16.244757,162.582230,3.433095,4.739342,-3.618736,-1.512942,-4.688822,3.505794,1.226387,0.019036,0.569961,0.011294,-151.845814,188.495636,989.342259,994.046638,0
0.004167,-110.448369,-85.176221,179.254324,3.737096,4.930155,-1.600394,-3.565855,-4.874085,1.459840,3.221696,0.099252,0.572786,0.003860,-103.378726,188.269478,988.284378,994.239157,0
0.005208,-33.913974,-134.939829,179.230021,3.748356,4.317353,0.222355,-4.536253,-4.255305,-0.361236,4.143193,0.088314,0.565414,0.007577,-27.711527,188.341810,987.890090,995.466730,0
0.006250,40.066637,-170.985265,148.790083,3.185390,3.069732,2.178274,-5.054314,-3.051094,-2.380733,4.661060,0.088314,0.578711,0.011294,46.323216,188.420046,987.831619,995.986386,0
0.007292,109.346479,-170.750365,89.101072,1.980645,1.330402,3.859532,-4.806882,-1.320734,-3.910789,4.352625,0.128422,0.577471,-0.018440,110.968516,188.495519,987.126078,997.445363,0
0.008333,149.212615,-173.322522,3.589758,0.359306,-0.552037,4.845815,-3.824886,0.591183,-4.977860,3.347354,0.073729,0.572786,-0.011006,147.771979,188.269270,986.655465,998.067388,0
0.009375,165.281109,-134.399559,-72.674134,-1.126922,-2.309715,5.016437,-2.208845,2.351185,-5.070457,1.671904,0.073729,0.565000,-0.014723,162.464093,188.269178,986.345792,998.577715,0
0.010417,185.541875,-54.016710,-124.804805,-2.151518,-4.019689,4.687676,-0.152066,4.085250,-4.682431,-0.296750,-0.013779,0.562313,0.011294,182.447619,188.420215,986.257119,998.937293,0
0.011458,160.037944,16.911406,-162.317016,-2.883372,-4.698542,3.576548,1.436912,4.696619,-3.606542,-1.976008,-0.017425,0.559282,-0.011006,152.320342,188.420074,985.383580,1000.022561,0
0.012500,110.193973,85.514010,-178.916199,-3.243670,-4.966413,1.591499,3.501424,4.978219,-1.498857,-4.020819,-0.061180,0.575818,-0.003573,104.326105,188.269315,985.423679,1000.957855,0
0.013542,34.235875,134.666877,-179.074171,-3.232411,-4.316917,-0.293674,4.498885,4.322387,0.379541,-4.911854,-0.104934,0.582983,-0.037023,29.368179,188.269377,985.248240,1001.289641,0
0.014583,-39.541337,170.806273,-148.682840,-2.669446,-3.113329,-2.241270,5.090402,3.099649,2.306442,-5.444952,-0.104934,0.576507,-0.014723,-44.824180,188.420097,984.867007,1001.649556,0
0.015625,-108.843779,170.700568,-89.528502,-1.509738,-1.340974,-3.876751,4.754049,1.365584,3.973189,-5.083207,-0.086703,0.581467,-0.022156,-110.133721,188.420074,984.627549,1001.965028,0
0.016667,-149.387911,173.037825,-4.758441,0.122861,0.552474,-4.925456,3.772053,-0.561155,4.943253,-4.089361,-0.072118,0.577747,-0.007290,-147.466326,188.344663,985.094776,1001.676979,0
0.017708,-165.603304,134.584662,72.052276,1.609088,2.291804,-5.104402,2.179209,-2.284104,5.027031,-2.372024,-0.032010,0.571546,0.022444,-162.552481,188.269044,984.943191,1002.101137,0
0.018750,-185.581572,55.388059,124.936351,2.633685,4.020126,-4.729864,0.122429,-4.010758,4.639005,-0.399562,0.022683,0.571753,-0.011006,-182.085674,188.344686,984.832203,1002.085463,0
0.019792,-159.975941,-15.786702,162.764505,3.410576,4.698978,-3.660351,-1.505210,-4.707348,3.492566,1.230194,0.048206,0.572373,0.011294,-151.857072,188.420113,985.180682,1001.973979,0
0.020833,-110.911666,-84.847361,179.072049,3.725837,4.897130,-1.583748,-3.561989,-4.911138,1.464249,3.252158,0.062790,0.570857,-0.003573,-103.862834,188.344733,985.891767,1002.192463,0
0.021875,-34.207772,-135.033789,179.047746,3.737096,4.269650,0.239002,-4.505324,-4.233074,-0.409739,4.147001,0.102898,0.579607,0.003860,-27.824110,188.269140,986.327388,1001.549534,0
0.022917,39.558140,-170.914795,148.850841,3.185390,3.128444,2.186597,-5.108440,-3.077031,-2.354277,4.649636,0.102898,0.561900,-0.011006,46.233149,188.344748,985.990892,1001.709712,0
0.023958,109.267379,-170.597680,89.307650,2.003164,1.304716,3.838724,-4.772087,-1.272566,-3.954883,4.291699,0.081021,0.578229,-0.018440,110.709575,188.420110,986.519192,1000.552778,0
0.025000,149.291715,-173.252052,3.747730,0.370565,-0.599741,4.841653,-3.809421,0.572657,-4.951404,3.309276,0.091960,0.571890,-0.018440,147.648138,188.344806,986.061325,1000.077010,0
0.026042,165.303709,-134.434794,-72.807802,-1.104403,-2.273020,5.049730,-2.224309,2.354890,-5.052820,1.679520,0.055498,0.563209,0.007577,162.576676,188.269261,985.937235,1000.045135,0
0.027083,185.598375,-54.204630,-124.683289,-2.117740,-4.023359,4.675192,-0.206191,4.040787,-4.700069,-0.346252,-0.002841,0.555974,-0.014723,182.470136,188.344612,985.955410,999.651484,0
0.028125,160.026644,17.146306,-162.098286,-2.917150,-4.705881,3.626486,1.421448,4.722556,-3.584495,-1.930314,0.026329,0.565207,-0.022156,152.421667,188.420070,985.660014,999.789316,0
0.029167,110.092274,85.478775,-178.904048,-3.221151,-4.885685,1.591499,3.470495,4.959693,-1.573816,-3.959894,-0.046595,0.552874,-0.033307,104.179746,188.344759,984.419947,1000.416837,0
0.030208,33.987277,134.725602,-178.904048,-3.209892,-4.327925,-0.306159,4.518215,4.296450,0.361903,-4.911854,-0.083057,0.569203,-0.014723,29.120496,188.269250,984.093530,1000.292916,0
0.031250,-39.394438,170.794528,-148.609930,-2.658186,-3.153694,-2.212139,5.032410,3.140407,2.302032,-5.418297,-0.097641,0.580021,0.018727,-44.677822,188.344672,983.727662,1000.523207,0
0.032292,-109.092378,170.336473,-89.625716,-1.487219,-1.385008,-3.914205,4.769514,1.369289,3.924685,-5.106054,-0.046595,0.579332,0.011294,-110.235046,188.420093,983.183998,1000.753067,0
0.033333,-149.489611,172.814670,-4.588317,0.100342,0.541465,-4.950425,3.814580,-0.538923,4.956481,-4.100784,-0.079410,0.576162,0.003860,-147.590167,188.344684,983.012141,1001.142537,0
0.034375,-165.456405,135.077953,72.234551,1.597829,2.306482,-5.129371,2.241067,-2.298925,5.009394,-2.436757,-0.057533,0.576231,-0.040740,-162.180956,188.269187,982.909205,1001.674849,0
0.035417,-185.186075,55.728665,125.215840,2.611166,4.012787,-4.754834,0.164957,-4.032989,4.705146,-0.418601,-0.006487,0.573268,-0.011006,-182.108191,188.269353,983.260146,1002.568671,0
0.036458,-160.371439,-15.516567,162.521472,3.399317,4.739342,-3.718613,-1.458816,-4.666590,3.585163,1.199732,0.051852,0.578780,-0.011006,-152.239855,188.420213,982.630655,1003.421403,0
0.037500,-111.058565,-84.682931,179.205717,3.782133,4.933824,-1.666979,-3.515596,-4.896317,1.495115,3.248351,0.088314,0.573131,0.011294,-103.964159,188.344382,982.426264,1003.575604,0
0.038542,-35.032667,-134.693184,179.217869,3.782133,4.339370,0.197386,-4.574914,-4.255305,-0.330370,4.127962,0.106545,0.576162,0.015011,-28.600934,188.269328,981.850855,1004.144441,0
0.039583,38.902744,-171.055735,148.656415,3.162872,3.146791,2.149144,-5.100707,-3.095557,-2.327821,4.634405,0.084667,0.582156,0.011294,45.523875,188.269340,981.476087,1004.214703,0
0.040625,108.996181,-170.585935,89.818020,1.991905,1.367097,3.817917,-4.818480,-1.342966,-3.906380,4.367856,0.110191,0.577540,-0.011006,110.810899,188.420077,981.035278,1005.525670,0
0.041667,149.359514,-172.970172,4.173038,0.370565,-0.541029,4.845815,-3.848082,0.554131,-4.960223,3.343547,0.102898,0.568376,-0.018440,147.749463,188.344639,980.986270,1005.991685,0
0.042708,165.529708,-134.787144,-72.540465,-1.115662,-2.273020,4.991468,-2.251372,2.295606,-5.039592,1.694751,0.044560,0.566103,0.018727,162.261443,188.269243,980.340404,1006.163315,0
0.043750,185.214178,-54.322080,-124.865564,-2.117740,-3.968317,4.683515,-0.213924,4.029671,-4.691250,-0.300558,0.033621,0.530275,0.003860,182.335036,188.269270,979.764007,1006.410908,0
0.044792,160.218743,17.169796,-162.025376,-2.883372,-4.727897,3.605679,1.444645,4.700324,-3.602132,-1.953161,-0.013779,0.574922,-0.018440,152.421667,188.420121,979.823136,1006.356119,0
0.045833,110.092274,85.713675,-178.818986,-3.232411,-4.911371,1.603983,3.455031,4.985630,-1.569407,-3.975125,-0.083057,0.574509,-0.014723,104.145971,188.344650,980.149345,1006.600104,0
0.046875,33.795178,134.455467,-179.353659,-3.254929,-4.294900,-0.264543,4.498885,4.285334,0.308991,-4.896623,-0.101287,0.555630,0.018727,29.086721,188.269369,979.572069,1006.818583,0
0.047917,-39.597837,170.712313,-148.609930,-2.691964,-3.091313,-2.249593,5.040142,3.103354,2.306442,-5.460184,-0.079410,0.574922,-0.003573,-44.722855,188.193698,980.015811,1006.734555,0
0.048958,-109.069778,170.724058,-89.492047,-1.475960,-1.348313,-3.939174,4.757915,1.361879,3.937913,-5.125094,-0.061180,0.579676,-0.003573,-110.201271,188.420151,980.368520,1006.964234,0
0.050000,-149.286212,172.885140,-4.527559,0.134120,0.515779,-4.896326,3.802982,-0.531512,4.925615,-4.127439,-0.072118,0.574715,-0.022156,-147.376259,188.420052,979.998166,1007.128257,0
0.051042,-165.479005,134.831308,72.125186,1.597829,2.310151,-5.100241,2.202406,-2.287809,5.040259,-2.421526,-0.035656,0.569892,-0.011006,-162.372347,188.269313,980.104291,1007.229971,0
0.052083,-185.253874,55.470274,125.009262,2.667463,4.016456,-4.713218,0.141760,-4.025579,4.705146,-0.399562,0.008098,0.569341,0.003860,-181.894282,188.193978,980.112310,1007.032136,0
0.053125,-160.134140,-15.657507,162.667292,3.433095,4.695309,-3.693644,-1.520674,-4.677706,3.563116,1.154038,0.033621,0.575680,0.003860,-152.059722,188.420016,979.667157,1007.141037,0
0.054167,-111.194164,-84.588971,179.072049,3.748356,4.919147,-1.621202,-3.542658,-4.907432,1.459840,3.255966,0.073729,0.576851,-0.025873,-104.425751,188.344726,980.027748,1006.813558,0
0.055208,-35.032667,-134.810634,179.072049,3.759615,4.313684,0.243163,-4.536253,-4.255305,-0.414148,4.135578,0.088314,0.578367,-0.014723,-28.916167,188.269364,980.791028,1006.224178,0
0.056250,38.586346,-170.997010,148.887296,3.174131,3.091749,2.136659,-5.085243,-3.110378,-2.336639,4.664868,0.139360,0.581950,-0.014723,45.152350,188.193969,981.247112,1006.505611,0
0.057292,108.815382,-170.527210,89.988144,1.991905,1.315724,3.867855,-4.806882,-1.283682,-3.972521,4.333585,0.091960,0.579469,0.033594,110.484408,188.420075,982.254491,1005.531709,0
0.058333,149.235215,-173.205072,4.671257,0.393084,-0.563046,4.829168,-3.809421,0.602299,-4.964632,3.297853,0.066437,0.570512,-0.033307,147.558071,188.420182,982.910248,1004.584275,0
0.059375,165.405408,-134.834124,-72.248825,-1.115662,-2.306045,5.037245,-2.232042,2.351185,-5.079276,1.656673,0.048206,0.565414,-0.040740,162.385285,188.269398,984.020486,1004.253050,0
0.060417,185.327177,-54.815370,-124.561772,-2.128999,-3.927952,4.700161,-0.210057,4.025966,-4.704478,-0.315789,0.037267,0.533031,-0.014723,182.380069,188.269277,984.321040,1004.109063,0
0.061458,160.162243,16.911406,-161.940314,-2.883372,-4.669186,3.597356,1.440779,4.737377,-3.588904,-1.968393,-0.010133,0.535580,-0.025873,152.387892,188.420155,984.876858,1004.020296,0
0.062500,110.193973,85.537500,-178.916199,-3.232411,-4.970083,1.599822,3.439566,4.952282,-1.547360,-3.978933,-0.024718,0.575198,-0.025873,103.830738,188.420113,984.885638,1003.436896,0
0.063542,33.693479,134.549427,-179.219991,-3.254929,-4.280222,-0.277028,4.491152,4.292745,0.326628,-4.885200,-0.050241,0.546053,-0.025873,28.760230,188.269277,984.863826,1003.370688,0
0.064583,-39.812535,170.806273,-148.585627,-2.669446,-3.116999,-2.220462,4.997615,3.107060,2.310851,-5.410682,-0.112226,0.570375,0.003860,-45.004313,188.269286,984.434208,1003.089342,0
0.065625,-109.081078,170.512648,-89.516351,-1.487219,-1.373999,-3.914205,4.777246,1.343353,3.955551,-5.090823,-0.079410,0.577954,-0.022156,-110.223788,188.420061,984.531811,1002.516323,0
0.066667,-149.184513,173.026080,-4.381739,0.122861,0.552474,-4.883841,3.818446,-0.498165,4.934434,-4.138863,-0.042949,0.572855,-0.018440,-147.466326,188.420084,984.319479,1002.925288,0
0.067708,-165.185207,135.207148,72.356068,1.597829,2.284465,-5.108564,2.183075,-2.295219,5.040259,-2.402487,-0.006487,0.571270,-0.048173,-162.045856,188.268988,984.524188,1002.674807,0
0.068750,-185.140875,55.528999,124.984958,2.667463,4.042143,-4.721541,0.164957,-3.995937,4.700737,-0.426217,0.011744,0.569892,0.015011,-181.984349,188.193987,983.954063,1002.759359,0
0.069792,-160.405339,-15.634017,162.375652,3.444354,4.713656,-3.681159,-1.427887,-4.725874,3.532250,1.184500,0.037267,0.575198,0.007577,-152.296147,188.420041,984.813963,1002.485511,0
0.070833,-111.002065,-84.518501,179.120656,3.748356,4.922816,-1.646171,-3.565855,-4.925959,1.486296,3.221696,0.128422,0.572097,-0.011006,-104.380717,188.420119,984.359076,1002.954890,0
0.071875,-35.077867,-134.587479,179.072049,3.737096,4.365056,0.189063,-4.582646,-4.292358,-0.383282,4.154617,0.117483,0.582156,-0.018440,-29.276434,188.269093,984.399864,1003.602170,0
0.072917,38.349048,-171.114460,148.765780,3.174131,3.106427,2.153305,-5.120038,-3.077031,-2.332230,4.676291,0.121129,0.584706,-0.003573,44.735792,188.269301,984.548310,1003.305597,0
0.073958,108.657183,-170.562445,90.425604,2.048201,1.323063,3.834563,-4.822346,-1.335555,-3.963702,4.360240,0.088314,0.583328,-0.014723,110.551958,188.420084,984.407252,1003.992910,0
0.075000,149.449914,-173.064132,4.950745,0.370565,-0.577724,4.870784,-3.821020,0.565247,-4.955813,3.343547,0.073729,0.576369,-0.018440,147.715688,188.420146,984.023424,1004.716023,0
0.076042,165.461908,-135.127749,-72.054398,-1.093144,-2.295037,5.028922,-2.216577,2.366006,-5.088095,1.622402,0.055498,0.564794,-0.018440,162.340251,188.269246,984.518504,1004.329401,0
0.077083,185.281977,-55.238191,-124.646833,-2.117740,-4.041706,4.654384,-0.186861,4.051903,-4.669203,-0.365291,0.026329,0.578505,-0.022156,182.402586,188.269373,985.176178,1003.525078,0
0.078125,160.433441,16.429861,-161.940314,-2.917150,-4.694872,3.609840,1.413716,4.700324,-3.535992,-1.968393,-0.035656,0.538612,-0.011006,152.511734,188.420197,985.037162,1002.590079,0
0.079167,110.544271,85.326090,-178.928351,-3.232411,-4.863668,1.570691,3.489826,4.955988,-1.476810,-3.997972,-0.042949,0.535373,-0.037023,104.055905,188.419996,985.768338,1001.808831,0
0.080208,33.953377,134.431977,-179.572390,-3.198633,-4.327925,-0.289513,4.514349,4.303861,0.339856,-4.896623,-0.083057,0.581605,0.026161,28.580096,188.269293,986.203336,1001.845615,0
0.081250,-39.835135,170.665333,-148.816508,-2.680705,-3.072965,-2.253754,5.028544,3.136702,2.337307,-5.433529,-0.053887,0.566516,-0.022156,-45.263255,188.269270,986.674771,1002.226406,0
0.082292,-108.911579,170.864999,-89.127497,-1.487219,-1.318957,-3.914205,4.746317,1.321121,3.959960,-5.079400,-0.079410,0.575404,-0.018440,-110.144980,188.420151,986.793510,1001.961842,0
0.083333,-149.026314,173.096550,-3.956430,0.145379,0.578160,-4.954587,3.733392,-0.546333,4.930025,-4.085553,-0.072118,0.571890,-0.029590,-147.184868,188.420021,987.088242,1001.052566,0
0.084375,-165.399906,134.690367,72.489736,1.609088,2.346846,-5.121048,2.167610,-2.332272,5.057897,-2.394871,-0.032010,0.568997,-0.003573,-162.361089,188.344764,987.518035,1001.140759,0
0.085417,-185.434673,54.976984,124.875593,2.656203,4.005448,-4.738187,0.126296,-4.044105,4.661052,-0.422409,-0.035656,0.569272,-0.014723,-182.063157,188.269299,987.856354,1000.883434,0
0.086458,-160.190640,-15.962877,162.618685,3.388058,4.732003,-3.656190,-1.536139,-4.733285,3.510203,1.249234,0.040913,0.573888,-0.040740,-152.161047,188.420148,988.519885,1000.480563,0
0.087500,-111.103764,-84.659441,179.096352,3.770874,4.933824,-1.596233,-3.596784,-4.933369,1.455431,3.301660,0.066437,0.571890,0.003860,-104.594626,188.420139,989.671267,1000.211613,0
0.088542,-34.817968,-134.716674,179.144959,3.737096,4.295336,0.268132,-4.555584,-4.255305,-0.418558,4.158425,0.146652,0.579125,-0.018440,-29.310209,188.344663,989.882100,999.629774,0
0.089583,38.552447,-170.879560,148.972358,3.162872,3.102758,2.186597,-5.150967,-3.054799,-2.407190,4.714370,0.110191,0.582708,-0.033307,44.713276,188.269236,991.067338,999.376073,0
0.090625,108.600684,-170.444995,90.340542,2.014423,1.308385,3.892824,-4.857141,-1.287387,-3.959293,4.310738,0.077375,0.584775,0.011294,110.180433,188.344502,991.018023,998.353540,0
0.091667,149.280415,-173.299032,5.266689,0.381825,-0.599741,4.870784,-3.813287,0.602299,-4.982270,3.286429,0.095606,0.577678,-0.007290,147.648138,188.420081,991.742828,997.478225,0
0.092708,165.654007,-135.069024,-71.714152,-1.093144,-2.357418,5.058053,-2.204979,2.380827,-5.074867,1.610979,0.055498,0.570306,0.015011,162.711776,188.420072,991.906791,997.158604,0
0.093750,185.541875,-55.508326,-124.367345,-2.140259,-4.049045,4.679353,-0.190727,4.070429,-4.673613,-0.376715,0.008098,0.568583,-0.025873,182.470136,188.269342,992.366028,997.067572,0
0.094792,160.275242,16.335901,-162.159044,-2.939669,-4.738906,3.584871,1.483306,4.748493,-3.562448,-1.972201,-0.006487,0.559006,-0.029590,152.522992,188.420173,992.850765,997.682923,0
0.095833,110.758970,85.091190,-179.086323,-3.243670,-4.966413,1.558206,3.509156,4.963398,-1.485628,-3.997972,-0.061180,0.560660,-0.037023,103.999613,188.419873,992.979072,997.799930,0
0.096875,34.292375,134.443722,-179.353659,-3.243670,-4.302239,-0.301997,4.502751,4.311271,0.366313,-4.923278,-0.072118,0.551151,0.018727,28.523805,188.495510,993.547791,997.708392,0
0.097917,-39.710836,170.724058,-148.913722,-2.646927,-3.120668,-2.237108,5.047875,3.095944,2.332898,-5.437337,-0.079410,0.573406,-0.011006,-45.387096,188.268795,993.683682,997.280151,0
0.098958,-108.934179,170.712313,-89.285469,-1.487219,-1.315288,-3.939174,4.738585,1.313710,3.951142,-5.064168,-0.090349,0.577816,-0.003573,-110.088688,188.420352,993.558235,996.998483,0
0.100000,-149.015014,173.331451,-3.847065,0.122861,0.611185,-4.921295,3.756588,-0.561155,4.974119,-4.089361,-0.032010,0.572442,0.003860,-147.184868,188.420329,994.204418,997.210789,0
0.101042,-165.196507,134.948758,72.744922,1.620348,2.306482,-5.137694,2.167610,-2.350798,5.057897,-2.387255,-0.050241,0.568928,-0.022156,-162.113406,188.420318,994.462886,997.094535,0
0.102083,-185.434673,54.777319,124.814835,2.656203,4.071498,-4.738187,0.126296,-4.062632,4.674281,-0.403370,0.026329,0.564794,-0.011006,-182.096932,188.269541,994.813702,997.120559,0
0.103125,-160.337539,-16.350462,162.375652,3.399317,4.739342,-3.635382,-1.540005,-4.722169,3.527841,1.211155,0.051852,0.572786,-0.007290,-152.239855,188.420381,994.226979,997.484196,0
0.104167,-110.753467,-84.835616,179.339386,3.759615,4.959511,-1.592071,-3.592918,-4.925959,1.424565,3.278813,0.066437,0.579607,0.007577,-104.256876,188.420254,993.992392,997.234180,0
0.105208,-34.546770,-134.599224,179.278627,3.770874,4.343039,0.247325,-4.590379,-4.255305,-0.361236,4.211735,0.081021,0.581605,-0.011006,-29.310209,188.495673,994.055129,997.896612,0
0.106250,38.721946,-171.067480,149.020965,3.196650,3.102758,2.199082,-5.158699,-3.121494,-2.363096,4.721985,0.121129,0.584499,-0.014723,44.521884,188.269395,993.512197,998.973943,0
0.107292,108.566784,-170.691640,90.656486,2.014423,1.312055,3.909470,-4.822346,-1.276271,-3.998977,4.341201,0.077375,0.583397,0.007577,110.236725,188.420338,994.349795,999.220980,0
0.108333,149.370814,-173.439972,5.448964,0.381825,-0.596071,4.874945,-3.828752,0.643057,-5.017545,3.374009,0.062790,0.582019,0.011294,147.884562,188.420227,995.252203,1000.161633,0
0.109375,165.642707,-135.503590,-71.398208,-1.093144,-2.394113,5.107991,-2.197246,2.377122,-5.105732,1.618594,0.015390,0.576438,-0.037023,162.655484,188.423405,995.596554,1000.414046,0
0.110417,185.462776,-55.825441,-124.452407,-2.140259,-4.100418,4.725130,-0.132735,4.122303,-4.722116,-0.342444,0.037267,0.571546,-0.037023,182.571461,188.269678,996.172151,1001.316773,0
