1-Time,2-VGERA,3-VGERB,4-VGERC,5-VN,6-IGERAN,7-IGERBN,8-IGERCN,9-IGERAT,10-IGERBT,11-IGERCT,12-IN,13-IFD,14-IFAULT,15-VFAULT,16-Speed (rad/s),17-Active Power,18-Reactive Power,19-FAULT 
0.000000,-81.204162,-55.155976,198.065112,4.131172,-1.792375,5.616978,-3.205870,2.120452,-5.585831,3.473239,-0.214826,0.177024,-0.097156,139.519627,188.344829,926.301189,-1252.542300,0
0.001042,-32.433684,-135.386140,172.400781,3.647022,-3.887644,5.802023,-1.370175,4.126183,-5.750703,1.561816,-0.167425,0.189495,-0.108307,132.685824,188.495729,925.532855,-1252.779797,0
0.002083,11.285727,-182.460140,116.819035,2.543610,-5.153612,4.514752,1.059755,5.395633,-4.579689,-0.784881,-0.141902,0.183708,-0.112023,95.184345,188.420291,925.757455,-1253.083179,0
0.003125,78.734981,-191.480308,59.997818,1.530273,-6.228768,3.006231,3.417771,6.389431,-3.036656,-3.298117,-0.076271,0.166414,-0.108307,51.648404,188.495694,925.442658,-1253.553388,0
0.004167,147.890524,-153.309025,13.614887,0.573233,-5.843473,0.842006,4.859832,6.088390,-0.982098,-4.842395,-0.050748,0.183088,-0.093440,16.409848,188.420220,924.659810,-1253.925937,0
0.005208,196.175105,-91.471547,-35.234833,-0.372548,-4.617869,-1.535423,5.885550,4.866091,1.372612,-5.773504,-0.058040,0.189771,-0.112023,-13.998887,188.495682,924.804388,-1253.462675,0
0.006250,181.598201,-43.610631,-111.194933,-1.847517,-2.882209,-3.446216,5.798497,3.277465,3.313028,-5.887054,-0.021578,0.195076,-0.086006,-67.678579,188.420218,924.004427,-1253.327756,0
0.007292,136.206401,0.961683,-180.277187,-3.108558,-0.889685,-4.817964,5.162627,1.297123,4.678506,-5.194400,-0.036163,0.206100,-0.123173,-122.720528,188.495691,923.644359,-1252.777196,0
0.008333,82.181458,55.211884,-198.006476,-3.513893,1.700963,-5.618486,3.342072,-1.107578,5.566278,-3.419237,-0.068979,0.193423,-0.093440,-139.484174,188.420294,923.657419,-1252.330570,0
0.009375,33.139782,135.254128,-172.329993,-3.052262,3.788893,-5.835713,1.570721,-3.149579,5.777653,-1.575944,-0.109087,0.199968,-0.082290,-133.945078,188.495669,923.315557,-1252.061382,0
0.010418,-11.178525,182.480813,-116.626730,-1.971369,5.091556,-4.516260,-0.878134,-4.422656,4.632004,0.819957,-0.138256,0.185361,-0.100873,-97.265456,188.420303,923.706690,-1252.151151,0
0.011458,-78.514780,191.324806,-59.331598,-0.856698,6.243770,-3.023830,-3.258859,-5.423708,3.093199,3.291559,-0.218472,0.170272,-0.097156,-50.430826,188.495807,924.249955,-1251.035367,0
0.012500,-147.964121,153.353188,-12.571965,0.044046,5.799764,-0.835469,-4.757695,-5.148056,1.030186,4.858547,-0.273164,0.182054,-0.104590,-15.158495,188.344858,924.419720,-1250.598434,0
0.013542,-196.124402,90.482149,35.536503,0.989827,4.621863,1.525869,-5.806123,-3.936638,-1.383709,5.869141,-0.287749,0.190115,-0.104590,14.293283,188.495671,924.758844,-1250.415396,0
0.014583,-181.490999,42.515528,111.338631,2.476055,2.882533,3.420571,-5.730424,-2.442314,-3.290306,5.952410,-0.302334,0.206720,-0.100873,68.592182,188.420368,926.403028,-1249.524217,0
0.015625,-135.703702,-1.410809,180.481643,3.782133,0.934043,4.844615,-5.075630,-0.407567,-4.676921,5.267326,-0.284103,0.157526,-0.089723,123.082473,188.495644,926.096289,-1248.863421,0
0.016667,-82.006457,-55.367386,198.283842,4.119912,-1.726325,5.677318,-3.289139,2.029777,-5.577376,3.545154,-0.218472,0.188600,-0.067423,141.748776,188.344939,927.482035,-1248.337066,0
0.017708,-33.473277,-135.679765,172.583056,3.624503,-3.839941,5.906614,-1.445874,4.064524,-5.809887,1.675366,-0.182010,0.190322,-0.086006,134.194440,188.495725,929.217039,-1248.051994,0
0.018750,11.048428,-182.706785,117.487377,2.611166,-5.131595,4.587161,0.984056,5.341228,-4.634646,-0.694041,-0.156487,0.189495,-0.100873,95.443286,188.420278,930.407688,-1247.303305,0
0.019792,79.017479,-191.503798,60.155790,1.496495,-6.276471,3.054503,3.376137,6.422074,-3.116979,-3.279192,-0.101794,0.176335,-0.093440,51.884828,188.495636,931.645917,-1247.389609,0
0.020833,148.173022,-153.543925,13.371854,0.584492,-5.883837,0.894301,4.924176,6.189946,-1.121605,-4.834825,-0.050748,0.185775,-0.108307,15.959515,188.344950,934.116455,-1247.305626,0
0.021875,196.502803,-90.966511,-35.307743,-0.406326,-4.709606,-1.499218,5.923400,4.989409,1.309200,-5.822709,-0.039809,0.192596,-0.108307,-13.706171,188.495776,936.239876,-1247.482887,0
0.022917,181.609501,-42.929420,-111.267843,-1.813739,-2.981284,-3.418057,5.870411,3.408037,3.296118,-5.921119,-0.025225,0.201622,-0.108307,-67.408379,188.420218,938.139722,-1247.148482,0
0.023958,135.528406,1.267053,-180.945528,-3.119818,-0.966744,-4.821987,5.295100,1.387798,4.754601,-5.311734,-0.054394,0.214644,-0.104590,-123.407286,188.495647,940.522589,-1247.836649,0
0.025000,81.605162,55.446784,-198.322419,-3.468856,1.689955,-5.715031,3.455620,-1.064054,5.625463,-3.555497,-0.079917,0.192871,-0.123173,-138.887482,188.344876,942.839048,-1247.977271,0
0.026042,32.800785,136.041044,-172.439358,-2.995965,3.792562,-5.928236,1.676700,-3.116936,5.912932,-1.670569,-0.105440,0.189633,-0.082290,-133.764945,188.495569,945.414780,-1248.231560,0
0.027083,-11.110725,182.703969,-116.468758,-1.971369,5.109903,-4.661078,-0.772155,-4.390013,4.750374,0.770752,-0.149195,0.148913,-0.093440,-95.238958,188.420311,947.052843,-1247.902906,0
0.028125,-79.384874,191.653666,-59.538177,-0.890476,6.346516,-3.132444,-3.190731,-5.510756,3.220023,3.276419,-0.225764,0.186946,-0.078573,-50.824867,188.495553,949.367849,-1248.569632,0
0.029167,-147.998021,153.083053,-13.361824,0.066564,5.942874,-1.000401,-4.810684,-5.311271,1.165465,4.877472,-0.262226,0.186739,-0.119457,-16.633335,188.344851,951.907382,-1249.223261,0
0.030208,-197.209195,91.222085,35.500048,1.012346,4.728278,1.473573,-5.843972,-4.074464,-1.286477,5.967550,-0.254934,0.196454,-0.063706,14.135666,188.495656,954.702311,-1250.290377,0
0.031250,-181.197201,43.760499,111.873304,2.476055,2.999956,3.416548,-5.859112,-2.551124,-3.235348,6.100025,-0.295042,0.204516,-0.097156,67.849133,188.495700,957.081159,-1251.051309,0
0.032292,-135.839301,-0.659129,181.599597,3.827171,0.992755,4.860706,-5.249737,-0.592544,-4.757243,5.445221,-0.265872,0.211474,-0.082290,123.712940,188.495609,960.832830,-1252.108582,0
0.033333,-82.492353,-55.508326,198.028657,4.097394,-1.685960,5.749727,-3.406472,1.975372,-5.649243,3.647348,-0.203887,0.207065,-0.082290,139.598436,188.344923,962.635334,-1252.463290,0
0.034375,-33.202079,-136.830776,172.777483,3.669540,-3.839941,5.995113,-1.616196,4.035508,-5.936712,1.804056,-0.182010,0.191218,-0.126890,133.091124,188.495682,965.621821,-1252.644046,0
0.035417,11.127528,-182.648060,116.685366,2.611166,-5.171960,4.639456,0.953776,5.362990,-4.740333,-0.667546,-0.098148,0.196179,-0.089723,94.925403,188.420245,967.038157,-1252.705619,0
0.036458,79.729375,-192.208498,59.827695,1.485236,-6.401233,3.183230,3.387491,6.505495,-3.248031,-3.165642,-0.079917,0.184948,-0.100873,51.186812,188.495655,969.981837,-1252.274157,0
0.037500,147.947024,-152.815735,13.578432,0.561974,-6.034286,1.063256,4.939316,6.298756,-1.142742,-4.846180,-0.065333,0.189358,-0.123173,16.184681,188.344901,970.972661,-1252.749448,0
0.038542,197.723195,-90.391006,-35.234833,-0.361289,-4.896749,-1.406696,6.021808,5.105473,1.271152,-5.947614,-0.036163,0.196868,-0.112023,-13.886304,188.495718,973.343970,-1254.106536,0
0.039583,180.818507,-42.823715,-111.425815,-1.858776,-3.080360,-3.446216,6.006668,3.524101,3.270753,-6.030883,-0.061686,0.168825,-0.097156,-67.915004,188.646504,975.454335,-1254.261651,0
0.040625,135.065109,0.867722,-181.954117,-3.187373,-1.109853,-4.838078,5.370799,1.536505,4.775738,-5.429069,-0.025225,0.208305,-0.097156,-123.857619,188.646382,978.242364,-1254.281667,0
0.041667,81.819861,55.435039,-197.872807,-3.480115,1.605557,-5.771350,3.648652,-1.024157,5.705785,-3.684187,-0.050748,0.214093,-0.086006,-139.630532,188.495665,980.219555,-1254.718929,0
0.042708,33.230182,136.886684,-172.645937,-3.007225,3.763207,-6.077076,1.778893,-3.091547,6.018619,-1.818184,-0.138256,0.187842,-0.123173,-134.474219,188.646529,982.965348,-1254.903150,0
0.043750,-10.692628,182.774439,-116.614578,-1.937591,5.113573,-4.717396,-0.760800,-4.466180,4.839151,0.649633,-0.171072,0.190942,-0.082290,-96.938965,188.646471,984.939023,-1255.260557,0
0.044792,-80.051570,192.064742,-60.255125,-0.901736,6.397888,-3.249103,-3.236150,-5.579669,3.283436,3.238569,-0.236703,0.174475,-0.089723,-50.993742,188.646551,986.417950,-1255.787516,0
0.045833,-148.280519,152.683723,-13.835739,-0.012251,5.972229,-1.040628,-4.829609,-5.391065,1.237332,4.896397,-0.265872,0.190598,-0.112023,-16.194261,188.571122,987.761406,-1256.139164,0
0.046875,-198.248788,90.376444,35.366379,0.989827,4.831023,1.473573,-5.957520,-4.157885,-1.290704,6.058390,-0.287749,0.193285,-0.093440,13.921758,188.646498,989.297050,-1257.278047,0
0.047917,-180.767804,43.502109,111.970518,2.498573,3.029312,3.444707,-5.908316,-2.605529,-3.281851,6.130305,-0.276811,0.205273,-0.126890,68.884899,188.646505,989.968093,-1257.701566,0
0.048958,-134.844907,-0.177583,182.802612,3.815911,1.047797,4.892887,-5.329220,-0.646949,-4.782608,5.536061,-0.236703,0.212370,-0.097156,124.433472,188.646523,991.627085,-1258.058019,0
0.050000,-81.769158,-55.426111,197.955747,4.153690,-1.696969,5.773864,-3.432967,1.935475,-5.704200,3.681413,-0.251287,0.199968,-0.100873,141.985200,188.570989,992.554640,-1257.975694,0
0.051042,-32.806582,-137.605946,172.704573,3.692059,-3.858288,6.055454,-1.619981,4.028254,-6.046627,1.853261,-0.171072,0.191976,-0.119457,134.509673,188.651975,994.374637,-1258.402859,0
0.052083,10.686831,-183.164841,116.138541,2.566129,-5.212324,4.748069,0.904572,5.424649,-4.867158,-0.656191,-0.134610,0.184190,-0.097156,94.475070,188.646384,995.960251,-1259.393955,0
0.053125,80.407370,-192.572594,59.815543,1.485236,-6.463614,3.255639,3.338287,6.592543,-3.307215,-3.211062,-0.105440,0.182881,-0.108307,51.614629,188.646485,997.233739,-1260.682479,0
0.054167,148.274722,-152.087544,13.918679,0.618270,-6.096667,1.083369,4.950671,6.396685,-1.201927,-4.910525,-0.006994,0.189633,-0.126890,16.691306,188.571073,998.624917,-1261.575830,0
0.055208,198.920987,-90.003421,-35.186226,-0.338771,-4.937113,-1.414741,6.067227,5.199775,1.288062,-6.057378,-0.039809,0.199141,-0.074856,-13.019413,188.646495,1000.309726,-1263.237268,0
0.056250,180.355210,-43.481436,-112.106308,-1.847517,-3.117055,-3.430125,6.116432,3.542236,3.287663,-6.186068,-0.028871,0.193767,-0.112023,-68.207720,188.646415,1001.666986,-1264.768178,0
0.057292,134.726111,-0.424229,-183.278649,-3.232411,-1.135540,-4.946691,5.457852,1.543759,4.813786,-5.546404,-0.050748,0.201415,-0.104590,-124.420535,188.646536,1003.003956,-1266.105766,0
0.058333,82.520456,55.493764,-197.678380,-3.468856,1.664268,-5.924213,3.660007,-1.053173,5.803018,-3.737177,-0.061686,0.212715,-0.100873,-138.932516,188.495727,1003.819976,-1267.540427,0
0.059375,34.213275,138.096420,-172.536572,-3.097299,3.807240,-6.177645,1.828097,-3.142325,6.103169,-1.890099,-0.141902,0.192458,-0.112023,-134.350377,188.646460,1005.387322,-1268.759205,0
0.060417,-10.059832,183.220749,-115.666748,-1.915073,5.253013,-4.854169,-0.757016,-4.542347,4.961748,0.713977,-0.156487,0.197488,-0.078573,-94.146900,188.646437,1006.257688,-1270.336498,0
0.061458,-80.831264,192.546287,-60.170063,-0.845439,6.478617,-3.305421,-3.308064,-5.702987,3.473673,3.314269,-0.192949,0.184190,-0.108307,-50.588442,188.646518,1009.117652,-1272.164113,0
0.062500,-148.517817,151.192107,-14.224593,-0.000992,6.144695,-1.048673,-4.912877,-5.518010,1.207740,4.964527,-0.240349,0.190667,-0.093440,-17.094927,188.571199,1009.795688,-1273.452967,0
0.063542,-199.695179,90.141544,35.305621,0.944790,4.977802,1.437369,-6.021864,-4.317473,-1.278022,6.187080,-0.302334,0.197694,-0.097156,13.629041,188.646464,1012.533576,-1275.336725,0
0.064583,-179.536112,43.032309,112.298613,2.464795,3.135727,3.476889,-6.105133,-2.688950,-3.353718,6.262780,-0.273164,0.199417,-0.089723,68.276949,188.646464,1014.187572,-1276.508853,0
0.065625,-133.940913,0.174767,183.799049,3.827171,1.154212,4.949206,-5.389779,-0.741251,-4.871385,5.657181,-0.236703,0.229044,-0.123173,124.793739,188.646552,1016.562705,-1277.434000,0
0.066667,-81.384961,-55.555306,197.749168,4.063616,-1.671283,5.962932,-3.588149,1.953610,-5.809887,3.825243,-0.243995,0.212163,-0.071140,139.879894,188.571093,1018.637164,-1278.495850,0
0.067708,-32.817882,-138.569037,172.923303,3.725837,-3.854619,6.212340,-1.718390,4.115302,-6.152314,1.966811,-0.174718,0.196868,-0.097156,133.372582,188.646353,1020.906106,-1279.908560,0
0.068750,9.974936,-183.434976,115.591716,2.554870,-5.340755,4.876797,0.885648,5.482681,-4.939025,-0.603201,-0.138256,0.195834,-0.078573,94.171096,188.646600,1022.096382,-1280.358717,0
0.069792,81.040166,-192.948434,60.957800,1.496495,-6.573698,3.344139,3.364782,6.712234,-3.488997,-3.275407,-0.079917,0.188117,-0.108307,51.851053,188.646433,1024.587403,-1282.441434,0
0.070833,148.704119,-151.230158,15.158149,0.629529,-6.221429,1.123597,5.075574,6.447463,-1.269567,-4.955945,-0.036163,0.197212,-0.052556,17.389322,188.571131,1025.391251,-1282.962376,0
0.071875,200.163979,-90.884296,-35.003951,-0.361289,-5.069214,-1.434855,6.135356,5.301331,1.237332,-6.106583,-0.014286,0.203895,-0.100873,-13.210805,188.646473,1027.287170,-1283.924338,0
0.072917,179.428616,-43.974726,-112.349342,-1.802480,-3.201453,-3.522648,6.226195,3.603895,3.338393,-6.239058,-0.017932,0.209201,-0.104590,-68.410370,188.646509,1027.998050,-1284.645164,0
0.073958,134.330614,-0.952754,-184.153570,-3.243670,-1.201590,-4.994964,5.575186,1.605418,4.936383,-5.671309,-0.021578,0.208029,-0.089723,-125.096035,188.646473,1030.074247,-1286.360211,0
0.075000,81.876360,55.540744,-197.556864,-3.468856,1.623904,-5.956395,3.709211,-1.049546,5.832610,-3.797736,-0.065333,0.211474,-0.093440,-140.137156,188.721931,1030.975347,-1286.370456,0
0.076042,33.738679,138.530986,-172.730998,-2.984706,3.832927,-6.258099,1.865946,-3.203984,6.251131,-1.927949,-0.109087,0.202862,-0.104590,-135.070910,188.646440,1032.764953,-1287.903881,0
0.077083,-9.449636,183.291219,-114.840434,-1.971369,5.282368,-4.898419,-0.722951,-4.571363,4.978658,0.683697,-0.189302,0.204309,-0.126890,-95.475383,188.646563,1033.115115,-1287.854722,0
0.078125,-80.865164,192.875147,-59.878423,-0.890476,6.507972,-3.389898,-3.255075,-5.771900,3.422943,3.333194,-0.233057,0.185637,-0.082290,-50.678509,188.646449,1033.018154,-1288.732009,0
0.079167,-148.506517,150.581366,-14.504081,0.032786,6.170381,-1.121082,-4.924232,-5.532518,1.254242,4.979667,-0.251287,0.191907,-0.089723,-16.734660,188.722009,1033.458064,-1288.602944,0
0.080208,-200.271475,89.800939,34.928919,0.978568,5.018166,1.441392,-6.044574,-4.346489,-1.256885,6.153015,-0.313272,0.200726,-0.119457,13.448908,188.646473,1033.849988,-1288.173571,0
0.081250,-179.276214,43.208484,112.128490,2.453536,3.165083,3.537230,-6.116488,-2.746982,-3.336808,6.300630,-0.251287,0.221052,-0.093440,69.121323,188.646529,1034.668668,-1288.163521,0
0.082292,-133.635815,1.102623,184.601059,3.872208,1.139534,4.973342,-5.435199,-0.686846,-4.854476,5.710171,-0.284103,0.208098,-0.097156,125.469238,188.646496,1034.663219,-1288.798544,0
0.083333,-82.085556,-55.414366,197.579045,3.996060,-1.678622,5.975000,-3.573009,1.968118,-5.873300,3.821458,-0.243995,0.188462,-0.100873,142.165334,188.721891,1034.690117,-1289.767603,0
0.084375,-34.252972,-138.956623,172.826090,3.669540,-3.872966,6.244522,-1.718390,4.111675,-6.194589,1.951671,-0.178364,0.206100,-0.112023,134.532189,188.646638,1034.702428,-1290.522964,0
0.085417,9.319540,-183.517191,115.227166,2.588648,-5.344425,4.868751,0.919712,5.489935,-4.913660,-0.671331,-0.171072,0.195765,-0.119457,93.619438,188.646569,1033.707284,-1291.038577,0
0.086458,81.503463,-192.877964,60.921345,1.451458,-6.584707,3.344139,3.451835,6.748504,-3.404448,-3.267837,-0.068979,0.192182,-0.115740,51.941120,188.646516,1033.200843,-1291.309697,0
0.087500,148.884918,-150.701633,15.255363,0.539455,-6.210420,1.075324,5.117208,6.447463,-1.197700,-4.967300,-0.047102,0.192803,-0.134323,17.333030,188.721916,1032.487656,-1291.642486,0
0.088542,200.514276,-90.109126,-34.554340,-0.350030,-5.025181,-1.467037,6.203485,5.297704,1.330337,-6.155788,0.007591,0.199348,-0.097156,-12.287622,188.646451,1031.965835,-1292.777900,0
0.089583,179.180017,-43.293515,-112.239977,-1.813739,-3.205122,-3.578966,6.245120,3.578506,3.410260,-6.261768,-0.014286,0.210648,-0.086006,-68.432887,188.646484,1031.670218,-1293.468900,0
0.090625,133.550919,-0.976244,-184.639637,-3.209892,-1.150217,-4.994964,5.514627,1.590910,4.915245,-5.637244,-0.028871,0.215815,-0.104590,-124.949676,188.646500,1031.283058,-1292.962994,0
0.091667,81.356564,55.388059,-197.751290,-3.423819,1.660599,-6.004667,3.743276,-1.045919,5.841065,-3.797736,-0.058040,0.191562,-0.104590,-139.506690,188.721902,1031.386149,-1292.891404,0
0.092708,33.456180,138.671926,-172.670240,-3.041003,3.891638,-6.294303,1.865946,-3.236627,6.221539,-1.905239,-0.101794,0.187704,-0.100873,-134.665611,188.646583,1030.928859,-1293.018779,0
0.093750,-9.314037,183.737530,-114.099182,-1.937591,5.322733,-4.874282,-0.775940,-4.607633,4.965975,0.698837,-0.163779,0.186119,-0.089723,-93.201201,188.646442,1030.871179,-1293.311442,0
0.094792,-81.136362,192.734207,-60.133608,-0.834180,6.592370,-3.357716,-3.255075,-5.808170,3.452535,3.382399,-0.203887,0.183983,-0.074856,-50.689767,188.646507,1031.196626,-1294.154047,0
0.095833,-148.913314,150.158546,-15.403305,0.066564,6.232762,-1.080855,-4.981006,-5.550653,1.279607,5.032657,-0.265872,0.193147,-0.100873,-18.040626,188.721994,1031.416803,-1294.843003,0
0.096875,-200.610473,90.576110,34.965374,0.989827,5.054861,1.441392,-6.063498,-4.346489,-1.278022,6.258995,-0.316919,0.199761,-0.086006,13.066125,188.646578,1031.733129,-1296.513019,0
0.097917,-178.903316,44.148085,112.796831,2.476055,3.172422,3.553321,-6.150552,-2.681696,-3.353718,6.368760,-0.258580,0.207340,-0.100873,68.704765,188.646543,1031.480092,-1297.598110,0
0.098958,-134.166912,1.407993,184.819790,3.793393,1.161550,4.989433,-5.457908,-0.675965,-4.871385,5.672321,-0.273164,0.214506,-0.074856,125.345397,188.646547,1031.018245,-1297.973660,0
0.100000,-82.029056,-55.426111,197.506135,4.108653,-1.671283,6.019250,-3.584364,1.949983,-5.856390,3.791178,-0.247641,0.211130,-0.089723,140.026252,188.721940,1030.695836,-1297.581575,0
0.101042,-33.767075,-138.933133,172.826090,3.703318,-3.957364,6.252568,-1.718390,4.169707,-6.224181,1.944101,-0.218472,0.204791,-0.112023,133.406357,188.646527,1030.828569,-1298.294945,0
0.102083,9.319540,-183.810816,114.607431,2.532351,-5.399467,4.872774,0.946207,5.537086,-4.934798,-0.701611,-0.163779,0.205273,-0.100873,93.326721,188.721847,1031.010804,-1298.923577,0
0.103125,81.164465,-192.971924,60.410975,1.496495,-6.595715,3.340117,3.485900,6.763012,-3.421358,-3.294332,-0.050748,0.185775,-0.089723,51.310654,188.646536,1031.146012,-1299.185848,0
0.104167,148.726719,-150.114382,15.559155,0.595751,-6.225098,1.031074,5.155057,6.512749,-1.176562,-5.039215,-0.068979,0.188531,-0.097156,17.479388,188.646581,1031.291996,-1300.358659,0
0.105208,200.559476,-89.627580,-34.396368,-0.361289,-5.010503,-1.467037,6.165636,5.308585,1.347247,-6.170928,-0.003348,0.196316,-0.112023,-12.805505,188.646447,1031.334801,-1300.535127,0
0.106250,178.908819,-43.082105,-112.094157,-1.847517,-3.179436,-3.582989,6.260259,3.574879,3.418715,-6.303403,-0.014286,0.206996,-0.097156,-68.106395,188.721987,1031.515614,-1300.817465,0
0.107292,133.573519,-1.164164,-184.554575,-3.198633,-1.124531,-4.990941,5.522196,1.587283,4.915245,-5.588039,-0.028871,0.197143,-0.104590,-125.309943,188.646482,1030.890160,-1300.632067,0
0.108333,81.446963,55.247119,-197.398892,-3.525153,1.686285,-5.940304,3.712996,-1.053173,5.836838,-3.710682,-0.079917,0.192320,-0.086006,-140.069606,188.721893,1029.690046,-1300.540562,0
0.109375,33.851678,138.601456,-172.621633,-3.086040,3.880630,-6.233963,1.820527,-3.218492,6.196174,-1.852249,-0.098148,0.185913,-0.086006,-135.048394,188.646495,1028.833268,-1300.465512,0
