1-Time,2-VGERA,3-VGERB,4-VGERC,5-VN,6-IGERAN,7-IGERBN,8-IGERCN,9-IGERAT,10-IGERBT,11-IGERCT,12-IN,13-IFD,14-IFAULT,15-VFAULT,16-Speed (rad/s),17-Active Power,18-Reactive Power,19-FAULT 
0.000000,147.228108,-172.137909,7.078220,3.120318,-4.667600,5.110042,0.106540,4.708765,-5.127126,0.059029,-0.154011,0.440443,-0.065566,-60.709740,188.420231,1609.307504,-8.978643,0
0.001042,185.928720,-123.174005,-54.351705,1.921458,-5.583572,3.649603,2.211033,5.771057,-3.754807,-2.050774,-0.102869,0.438287,-0.035692,-64.374180,188.495754,1610.265123,-9.710211,0
0.002083,189.524293,-44.756857,-114.021212,0.801768,-5.675880,1.689123,4.121494,5.818842,-1.811739,-3.854602,-0.037115,0.444428,-0.043161,-60.257340,188.420233,1610.876850,-9.659391,0
0.003125,163.980981,20.866613,-165.073296,-0.170892,-5.072332,-0.307075,5.214786,5.245425,0.223657,-5.053597,-0.033462,0.462719,-0.061832,-38.960611,188.495617,1611.277678,-10.082471,0
0.004167,99.249331,75.158196,-193.166099,-0.713772,-3.403701,-2.704099,5.737177,3.561931,2.515052,-5.466307,-0.029809,0.453442,-0.017021,-12.382111,188.495689,1611.766833,-10.552884,0
0.005208,29.492953,133.521043,-191.639584,-0.725082,-1.493652,-4.315344,5.285682,1.639514,4.294449,-5.163890,-0.048074,0.451287,-0.065566,7.500868,188.495664,1611.978739,-10.681101,0
0.006250,-33.151677,177.580100,-142.864963,0.213648,0.863733,-5.406705,3.964777,-0.621072,5.331032,-3.826139,-0.055380,0.431820,-0.031958,26.852278,188.420249,1611.231599,-10.958287,0
0.007292,-85.338522,202.780866,-67.548674,1.616088,3.153662,-5.712286,1.912523,-3.002958,5.742308,-1.947596,-0.110175,0.439790,-0.046895,44.778627,188.495720,1610.467435,-10.847254,0
0.008333,-147.257232,171.986642,-5.441667,2.803638,4.712235,-4.997941,-0.218089,-4.491637,4.970117,0.112397,-0.157664,0.435282,-0.046895,65.736057,188.420265,1608.862941,-10.510930,0
0.009375,-186.456914,122.563663,54.954167,3.991188,5.656609,-3.577188,-2.333776,-5.528199,3.719502,2.183064,-0.212459,0.438287,-0.031958,70.983897,188.495560,1608.219837,-9.783022,0
0.010417,-189.553416,43.868655,113.786553,5.099568,5.766667,-1.573053,-4.262894,-5.612741,1.713483,4.050933,-0.194194,0.444689,-0.039427,64.277067,188.420112,1607.506029,-9.375264,0
0.011458,-163.749228,-21.138690,165.220266,6.049608,5.156019,0.407270,-5.412156,-5.079757,-0.288339,5.246370,-0.241683,0.459191,-0.039427,46.203687,188.495671,1607.024695,-8.949046,0
0.012500,-98.858783,-75.055764,193.042235,6.660348,3.501590,2.784452,-5.919622,-3.436697,-2.579734,5.669754,-0.274560,0.468010,-0.043161,18.754318,188.420394,1606.705931,-8.163201,0
0.013542,-29.181802,-133.599825,191.540341,6.569868,1.563138,4.419509,-5.408425,-1.462819,-4.342344,5.388684,-0.267254,0.438940,-0.039427,-2.440621,188.495712,1606.863659,-8.281130,0
0.014583,33.020471,-177.525992,143.184281,5.698998,-0.769395,5.554524,-4.139759,0.816146,-5.391518,4.097185,-0.245336,0.447498,-0.046895,-21.656311,188.421280,1606.710001,-8.126498,0
0.015625,84.946438,-202.400574,68.360417,4.285248,-3.162283,5.832324,-2.094968,3.234790,-5.886727,2.175948,-0.190541,0.445930,-0.043161,-41.075581,188.495848,1607.085370,-7.684780,0
0.016667,147.228108,-171.932534,6.918182,3.120318,-4.685352,5.137822,0.114003,4.771253,-5.110339,0.037682,-0.146705,0.440182,-0.050629,-60.110310,188.420444,1607.419419,-8.353544,0
0.017708,186.110200,-123.089439,-54.290152,1.944078,-5.658128,3.689289,2.229690,5.811490,-3.796774,-2.047216,-0.084604,0.442795,-0.020755,-66.274260,188.495892,1608.221056,-8.020232,0
0.018750,189.229388,-44.889747,-114.476705,0.767838,-5.814340,1.716903,4.162539,5.866627,-1.824329,-3.893739,-0.077298,0.446453,-0.035692,-60.562710,188.420540,1609.137269,-8.047884,0
0.019791,164.241859,20.383377,-165.467235,-0.204822,-5.129137,-0.315012,5.304338,5.307913,0.223657,-5.103406,-0.051727,0.456317,-0.017021,-41.426191,188.495980,1610.473966,-8.086805,0
0.020833,99.589606,74.952821,-193.572349,-0.770322,-3.425003,-2.747754,5.811805,3.606040,2.494068,-5.487654,-0.011544,0.462588,-0.054364,-14.010751,188.419889,1611.092635,-7.629897,0
0.021875,30.695258,133.690176,-191.294887,-0.657222,-1.483001,-4.390747,5.300607,1.654217,4.378383,-5.224373,-0.022503,0.461869,-0.039427,5.725198,188.495278,1612.603572,-8.218789,0
0.022917,-32.244277,178.655301,-142.704925,0.224958,0.902786,-5.529731,3.979702,-0.646803,5.423360,-3.907970,-0.040768,0.452855,-0.065566,26.332018,188.419952,1614.694033,-8.382286,0
0.023958,-85.247782,202.539248,-68.447349,1.627398,3.260171,-5.748003,1.938643,-3.069122,5.834636,-1.958270,-0.102869,0.446845,-0.073035,44.360157,188.495351,1616.263155,-9.148055,0
0.025000,-148.414167,172.155774,-6.512689,2.792328,4.829394,-5.065407,-0.296448,-4.605585,5.091821,0.172880,-0.179582,0.440639,-0.050629,65.408067,188.344545,1618.969616,-10.114428,0
0.026042,-186.105296,123.071061,54.781818,3.934638,5.759567,-3.585125,-2.427060,-5.620092,3.711109,2.229316,-0.212459,0.440508,-0.043161,69.739797,188.495314,1620.091236,-11.165680,0
0.027083,-189.927719,44.665994,114.537500,5.099568,5.805720,-1.561147,-4.389761,-5.682580,1.721877,4.157669,-0.212459,0.445081,-0.031958,64.853877,188.419867,1622.165104,-11.982887,0
0.028125,-164.316353,-20.848748,164.974054,6.049608,5.163120,0.466799,-5.408425,-5.145921,-0.347093,5.328200,-0.234377,0.451483,0.001650,45.151857,188.495209,1623.825720,-12.933622,0
0.029167,-98.257630,-74.596690,194.334849,5.212668,3.466087,2.883667,-6.027832,-3.421994,-2.655274,5.751584,-0.274560,0.457035,-0.046895,18.098338,188.419817,1625.341494,-13.904526,0
0.030209,-29.079719,-133.623987,191.146402,6.558558,1.527635,4.490943,-5.479321,-1.422386,-4.392705,5.395799,-0.227071,0.427574,-0.050629,-3.673411,188.495307,1625.637851,-14.625857,0
0.031250,33.020471,-178.987782,142.137879,5.676378,-0.847501,5.614052,-4.169610,0.830849,-5.504828,4.093627,-0.234377,0.465005,-0.054364,-21.294391,188.420486,1627.146871,-14.806534,0
0.032292,84.742273,-202.352250,67.609470,4.228698,-3.183584,5.883916,-2.076311,3.297277,-5.861547,2.147485,-0.175929,0.440508,-0.050629,-39.763621,188.496118,1626.933718,-15.561105,0
0.033334,147.568383,-172.089585,5.859470,3.063768,-4.806061,5.117979,0.143854,4.822714,-5.118733,-0.005012,-0.161317,0.436719,-0.024490,-61.049040,188.421555,1627.631422,-15.936900,0
0.034375,185.531732,-122.026319,-54.868750,1.898838,-5.668779,3.673415,2.263272,5.826193,-3.738021,-2.107700,-0.084604,0.436197,-0.065566,-64.125360,188.495942,1627.196925,-16.751541,0
0.035417,189.785170,-43.246744,-114.255114,0.779148,-5.803690,1.657374,4.229704,5.877654,-1.765575,-3.918644,-0.066339,0.445799,-0.024490,-60.268650,188.421345,1627.263469,-17.131494,0
0.036458,163.708761,21.760600,-164.888637,-0.170892,-5.093634,-0.382478,5.304338,5.271155,0.274018,-5.082059,-0.026156,0.461869,-0.028224,-38.836201,188.495803,1626.400388,-17.322886,0
0.037500,97.763464,74.964902,-194.224811,-0.759012,-3.425003,-2.747754,5.800611,3.595013,2.578002,-5.533906,-0.029809,0.463437,-0.020755,-12.472591,188.495725,1627.146372,-17.801877,0
0.038541,29.129993,133.810985,-191.073296,-0.679842,-1.454599,-4.398685,5.308070,1.639514,4.382580,-5.199468,-0.040768,0.452659,-0.031958,7.263358,188.495776,1626.685114,-17.473970,0
0.039583,-32.732005,178.896919,-142.397160,0.247578,0.895686,-5.490045,3.983433,-0.694587,5.452737,-3.879507,-0.059033,0.441227,-0.031958,26.750488,188.420300,1626.891074,-18.063605,0
0.040625,-85.293152,202.454681,-68.127273,1.650018,3.263721,-5.787689,1.964762,-3.094852,5.847226,-1.979617,-0.124787,0.444493,-0.035692,44.948277,188.495691,1627.245763,-17.956174,0
0.041666,-148.391482,172.022884,-6.414205,2.814948,4.815193,-5.029689,-0.274060,-4.587207,5.100214,0.130186,-0.164970,0.442664,-0.009553,66.346797,188.495671,1627.142308,-17.235883,0
0.042708,-186.502284,123.143547,54.707955,3.945948,5.713413,-3.616874,-2.386015,-5.620092,3.753076,2.272010,-0.197847,0.443448,-0.028224,70.701147,188.495653,1627.775483,-17.341402,0
0.043750,-190.075172,45.294201,114.562122,5.122188,5.798620,-1.573053,-4.352447,-5.682580,1.713483,4.093627,-0.205153,0.446845,-0.058098,64.356237,188.420392,1627.378438,-17.087058,0
0.044791,-164.497833,-19.833952,165.441857,6.049608,5.187972,0.490611,-5.468127,-5.149596,-0.309323,5.331758,-0.278213,0.462588,-0.035692,46.350717,188.495754,1627.600855,-16.975597,0
0.045833,-99.267113,-74.403396,193.977841,6.649038,3.466087,2.859855,-5.960667,-3.421994,-2.646881,5.755142,-0.270907,0.461412,-0.046895,18.709078,188.420392,1627.664822,-17.250776,0
0.046875,-30.588272,-133.986414,191.158713,6.558558,1.552487,4.534598,-5.471858,-1.492225,-4.485032,5.402915,-0.256295,0.460694,-0.035692,-2.384071,188.495785,1628.993055,-17.598963,0
0.047916,32.135756,-178.818649,142.556440,5.687688,-0.868803,5.641832,-4.162147,0.849228,-5.479648,4.129206,-0.227071,0.458342,-0.065566,-21.645001,188.420296,1629.061053,-17.890136,0
0.048958,84.969123,-202.291845,68.237311,4.251318,-3.211986,5.883916,-2.087505,3.289926,-5.911908,2.111907,-0.157664,0.443905,-0.020755,-40.939861,188.495745,1629.528177,-18.278860,0
0.050000,148.135508,-171.920453,6.327273,3.063768,-4.784760,5.106074,0.184899,4.844768,-5.152306,0.037682,-0.143052,0.439071,-0.028224,-60.528780,188.420549,1630.235255,-17.755892,0
0.051041,185.985432,-122.473313,-54.622538,1.910148,-5.704282,3.681352,2.308048,5.870302,-3.767398,-2.093468,-0.095563,0.439659,-0.035692,-66.104610,188.495718,1631.141162,-17.606409,0
0.052083,189.637718,-43.826628,-114.550569,0.813078,-5.828541,1.645469,4.270749,5.936466,-1.748788,-3.947106,-0.084604,0.448021,-0.054364,-60.370440,188.420265,1632.059788,-18.048256,0
0.053125,163.867556,21.712277,-165.171781,-0.159582,-5.150438,-0.422164,5.349115,5.348346,0.295001,-5.153216,-0.048074,0.452071,-0.061832,-40.951171,188.495510,1633.730635,-18.195358,0
0.054166,97.536614,75.037387,-194.581819,-0.792942,-3.414352,-2.803314,5.875238,3.613392,2.628362,-5.601505,-0.018850,0.424830,-0.084238,-13.128571,188.420256,1635.005502,-18.512166,0
0.055208,29.266103,133.871389,-191.110228,-0.713772,-1.429747,-4.442339,5.360309,1.606432,4.395170,-5.227931,-0.037115,0.448674,-0.050629,6.087118,188.495703,1635.393232,-18.915319,0
0.056250,-32.788717,179.633854,-141.572349,0.213648,0.998644,-5.621008,3.983433,-0.771778,5.511490,-3.907970,-0.044421,0.460106,-0.028224,26.151058,188.420341,1636.509728,-19.478777,0
0.057291,-84.941534,202.503005,-66.982387,1.672638,3.306324,-5.823406,1.919986,-3.157340,5.868209,-1.915576,-0.099216,0.441684,-0.065566,44.269677,188.495774,1636.610608,-20.486299,0
0.058333,-148.538935,172.083289,-5.195455,2.860188,4.939452,-5.077312,-0.330030,-4.660722,5.104411,0.212017,-0.135746,0.433714,-0.054364,65.645577,188.420390,1637.359346,-21.460734,0
0.059375,-185.889789,122.140832,55.064962,3.979878,5.766667,-3.561313,-2.430791,-5.660526,3.690126,2.318262,-0.208806,0.436327,-0.050629,69.615387,188.495758,1637.101853,-22.307684,0
0.060416,-190.154569,43.530389,114.709849,5.122188,5.898028,-1.557179,-4.427074,-5.748744,1.688303,4.179016,-0.245336,0.446845,-0.061832,64.842567,188.420291,1638.300206,-22.572212,0
0.061458,-164.032790,-21.428632,164.875569,6.060918,5.184422,0.498548,-5.527828,-5.127542,-0.389060,5.349547,-0.256295,0.436066,-0.043161,45.151857,188.495837,1638.056589,-23.148974,0
0.062500,-97.406942,-74.439638,195.024243,6.615108,3.498039,2.943195,-6.072608,-3.451400,-2.722421,5.783605,-0.292825,0.461804,-0.065566,18.426328,188.495702,1638.956282,-23.120229,0
0.063541,-29.419994,-133.708553,190.863258,6.592488,1.534736,4.546503,-5.468127,-1.429737,-4.493425,5.417146,-0.248989,0.456186,-0.046895,-3.345421,188.495731,1638.751603,-23.437558,0
0.064583,32.226496,-179.736798,142.162500,5.653758,-0.875903,5.641832,-4.188267,0.911716,-5.542599,4.111417,-0.227071,0.453442,-0.061832,-21.079501,188.420423,1639.652059,-24.281269,0
0.065625,84.696903,-201.977742,68.458902,4.296558,-3.229738,5.879948,-2.080043,3.348738,-5.937088,2.136812,-0.164970,0.443709,-0.043161,-39.944581,188.495669,1640.306343,-24.720407,0
0.066666,148.373701,-172.258718,6.832008,3.109008,-4.820262,5.161634,0.143854,4.833741,-5.185880,-0.019243,-0.121134,0.443056,-0.058098,-61.444890,188.495745,1640.691807,-25.317621,0
0.067708,185.531732,-122.871983,-54.376326,1.944078,-5.686530,3.653572,2.308048,5.873978,-3.779988,-2.089910,-0.095563,0.440835,-0.043161,-63.978330,188.495741,1640.710948,-25.406327,0
0.068750,189.989335,-44.768938,-114.673675,0.801768,-5.807240,1.665311,4.240898,5.940142,-1.786559,-3.979127,-0.055380,0.449131,-0.054364,-60.302580,188.420461,1641.406406,-25.572042,0
0.069791,164.060379,20.709562,-165.221023,-0.182202,-5.136237,-0.414226,5.356578,5.359373,0.303394,-5.131869,-0.040768,0.460628,-0.061832,-38.824891,188.495727,1641.345585,-25.886438,0
0.070833,98.648179,74.602474,-194.717235,-0.770322,-3.410802,-2.803314,5.856581,3.569283,2.624166,-5.548137,-0.011544,0.460171,-0.050629,-12.540451,188.495682,1640.625917,-26.697242,0
0.071875,30.354983,133.919713,-190.925569,-0.668532,-1.447498,-4.370905,5.330458,1.595405,4.403563,-5.213700,-0.022503,0.458277,-0.013287,7.240738,188.495700,1640.566836,-27.298542,0
0.072916,-32.096825,179.464721,-142.077084,0.213648,0.959591,-5.565448,3.983433,-0.716642,5.490507,-3.883065,-0.080951,0.451417,-0.043161,26.637388,188.495783,1640.030181,-27.189504,0
0.073958,-85.281809,202.370115,-67.844129,1.616088,3.292123,-5.736097,1.905060,-3.098528,5.859816,-1.919134,-0.091910,0.438679,-0.061832,44.812557,188.495700,1639.715208,-26.754931,0
0.075000,-148.561620,172.047046,-5.872538,2.769708,4.850695,-5.037627,-0.318836,-4.623964,5.070837,0.165765,-0.117481,0.437111,-0.050629,66.448587,188.495653,1639.039785,-26.375753,0
0.076041,-186.320804,122.636149,54.831061,3.957258,5.731164,-3.565282,-2.427060,-5.631120,3.744683,2.296915,-0.179582,0.438810,-0.039427,70.633287,188.495776,1639.284222,-25.746723,0
0.077083,-190.052487,43.941140,114.451326,5.088258,5.827022,-1.561147,-4.386029,-5.700959,1.717680,4.107859,-0.248989,0.437764,-0.073035,64.231827,188.420263,1638.234366,-25.083014,0
0.078125,-163.942050,-21.247418,165.072538,6.026988,5.145369,0.526328,-5.453201,-5.105487,-0.372273,5.342432,-0.241683,0.468402,-0.061832,45.909627,188.495665,1637.958030,-25.007613,0
0.079166,-97.803930,-74.584609,194.347160,6.682968,3.427034,2.883667,-5.960667,-3.322749,-2.672061,5.740910,-0.278213,0.429860,-0.065566,18.041788,188.495769,1636.198467,-25.734785,0
0.080208,-28.875554,-133.805201,191.072538,6.569868,1.485032,4.483006,-5.430813,-1.422386,-4.438868,5.360221,-0.274560,0.442272,-0.046895,-2.712061,188.495747,1635.100666,-25.425414,0
0.081250,33.111211,-178.987782,141.805493,5.642448,-0.840401,5.590241,-4.139759,0.941122,-5.496435,4.033144,-0.219765,0.419408,-0.039427,-21.611071,188.420365,1633.649909,-25.870316,0
0.082291,84.889726,-202.424735,67.289394,4.251318,-3.208436,5.836293,-2.046460,3.330359,-5.882531,2.133254,-0.183235,0.437764,-0.046895,-40.838071,188.495855,1632.919802,-25.345146,0
0.083333,147.772548,-171.908372,5.576326,3.097698,-4.770559,5.110042,0.162511,4.819038,-5.110339,-0.019243,-0.135746,0.439528,-0.058098,-60.540090,188.495705,1631.697592,-25.283960,0
0.084375,185.747240,-121.917591,-54.733334,1.955388,-5.693631,3.665478,2.330437,5.855599,-3.746414,-2.114815,-0.059033,0.436785,-0.028224,-66.070680,188.495953,1631.229965,-25.418248,0
0.085416,189.615033,-43.186340,-114.612122,0.801768,-5.800139,1.617688,4.255823,5.896033,-1.727805,-3.968453,-0.051727,0.433976,-0.065566,-60.393060,188.495955,1630.098682,-25.521916,0
0.086458,163.686076,21.736438,-165.196402,-0.159582,-5.143338,-0.370572,5.330458,5.315264,0.328575,-5.171006,-0.026156,0.446061,-0.043161,-41.109511,188.495738,1630.006507,-25.855826,0
0.087500,97.411846,75.001144,-194.557198,-0.792942,-3.400151,-2.811251,5.864044,3.580310,2.603182,-5.544579,-0.018850,0.455794,-0.065566,-13.626211,188.495718,1629.660962,-25.029829,0
0.088541,29.288788,134.076765,-190.851705,-0.702462,-1.433297,-4.414559,5.308070,1.602757,4.403563,-5.171006,-0.051727,0.460498,-0.054364,5.906158,188.495752,1629.127581,-24.678325,0
0.089583,-32.505155,179.778825,-141.806250,0.202338,0.977342,-5.557511,4.028210,-0.723993,5.490507,-3.904412,-0.066339,0.451744,-0.013287,26.252848,188.420377,1629.394328,-24.342272,0
0.090625,-85.259124,202.140578,-68.102652,1.616088,3.288573,-5.779752,1.934911,-3.146313,5.893389,-1.944039,-0.110175,0.442207,-0.043161,44.495877,188.495678,1630.162571,-24.599587,0
0.091666,-149.015320,171.986642,-6.352652,2.781018,4.889749,-5.061438,-0.300179,-4.649694,5.117001,0.197785,-0.124787,0.443056,-0.024490,65.724747,188.420271,1630.982349,-24.957577,0
0.092708,-186.014556,123.143547,54.806440,3.945948,5.724064,-3.557345,-2.456911,-5.664201,3.740486,2.314704,-0.190541,0.441945,-0.080503,69.547527,188.495740,1631.398031,-25.451631,0
0.093750,-190.131884,45.161311,115.029925,5.122188,5.869625,-1.533367,-4.400955,-5.734041,1.721877,4.171900,-0.241683,0.447563,-0.054364,64.842567,188.495711,1632.602406,-26.185198,0
0.094791,-164.588573,-20.280946,165.097160,6.083538,5.159570,0.526328,-5.535291,-5.156948,-0.347093,5.338874,-0.230724,0.462261,-0.069301,45.242337,188.495736,1633.231229,-26.019911,0
0.095833,-98.620590,-74.173858,194.999622,6.682968,3.466087,2.951133,-5.997981,-3.399939,-2.730814,5.780047,-0.267254,0.463764,-0.054364,18.494188,188.495727,1634.865347,-26.314380,0
0.096875,-30.304710,-133.793120,190.740152,6.581178,1.495683,4.530629,-5.456932,-1.470171,-4.464049,5.399357,-0.270907,0.462588,-0.050629,-3.503761,188.495707,1635.666145,-26.289886,0
0.097916,32.203811,-179.676393,141.891667,5.619828,-0.883004,5.653738,-4.102445,0.878634,-5.559385,4.100743,-0.241683,0.451091,-0.058098,-21.192601,188.495837,1637.055818,-25.557980,0
0.098958,84.935096,-201.929418,67.917235,4.240008,-3.215537,5.848199,-2.031535,3.319332,-5.903514,2.094118,-0.175929,0.441815,-0.069301,-39.831481,188.495749,1636.943652,-26.022442,0
0.100000,148.453098,-172.041262,5.859470,3.029838,-4.770559,5.098136,0.136391,4.815362,-5.139716,-0.005012,-0.132093,0.437242,-0.065566,-61.343100,188.495678,1637.473435,-25.643669,0
0.101041,185.520390,-122.328342,-54.770265,1.898838,-5.658128,3.641666,2.315511,5.840896,-3.784184,-2.118373,-0.099216,0.438483,-0.024490,-64.034880,188.495658,1637.630211,-25.428794,0
0.102083,189.955308,-43.476281,-114.439773,0.801768,-5.796589,1.633563,4.274480,5.888681,-1.727805,-3.932875,-0.077298,0.442141,-0.046895,-60.234720,188.495725,1637.383321,-25.290570,0
0.103125,163.674734,22.002218,-164.925569,-0.182202,-5.104285,-0.378509,5.322995,5.300561,0.232051,-5.103406,-0.022503,0.435805,-0.073035,-38.542141,188.495817,1636.348832,-23.831669,0
0.104166,97.343791,75.109872,-194.667993,-0.759012,-3.414352,-2.775534,5.800611,3.543553,2.636756,-5.533906,-0.011544,0.466507,-0.054364,-11.929711,188.495808,1636.200562,-24.471049,0
0.105208,28.608238,133.907632,-191.073296,-0.702462,-1.493652,-4.390747,5.293144,1.646866,4.336416,-5.135427,-0.026156,0.448804,-0.031958,7.670518,188.495794,1635.275300,-23.417519,0
0.106250,-33.117650,179.223103,-141.830872,0.224958,0.916987,-5.505919,3.946120,-0.676209,5.393983,-3.840371,-0.066339,0.450438,-0.061832,26.773108,188.571060,1633.376094,-22.861582,0
0.107291,-85.293152,202.490924,-66.920834,1.672638,3.270822,-5.771815,1.927449,-3.080149,5.792669,-1.904902,-0.106522,0.441031,-0.046895,44.846487,188.495785,1631.554082,-22.331753,0
0.108333,-148.175975,171.950399,-5.158523,2.837568,4.804542,-5.025721,-0.274060,-4.598234,5.075034,0.165765,-0.143052,0.435413,-0.035692,66.380727,188.495712,1630.391624,-21.597003,0
0.109375,-186.275434,122.140832,55.237311,3.991188,5.677910,-3.604968,-2.348701,-5.590686,3.719502,2.229316,-0.179582,0.437111,-0.046895,70.678527,188.495767,1628.989426,-20.210227,0
0.110416,-189.893692,43.711603,114.562122,5.122188,5.802170,-1.549241,-4.326327,-5.656850,1.747057,4.068722,-0.238030,0.444689,-0.076769,64.265757,188.571075,1627.025525,-18.776522,0
