1-Time,2-VGERA,3-VGERB,4-VGERC,5-VN,6-IGERAN,7-IGERBN,8-IGERCN,9-IGERAT,10-IGERBT,11-IGERCT,12-IN,13-IFD,14-IFAULT,15-VFAULT,16-Speed (rad/s),17-Active Power,18-Reactive Power,19-FAULT 
0.000000,73.141518,77.210288,-199.051519,-3.491375,0.222221,-5.265294,4.897096,0.119879,5.351720,-4.850283,-0.090349,0.335219,-0.018440,3.361449,188.495884,1452.381364,-865.463283,0
0.001042,16.314194,150.968951,-171.892533,-2.984706,2.559676,-6.262799,3.458897,-2.265206,6.266238,-3.327147,-0.083057,0.335426,0.003860,4.521057,188.571364,1452.390996,-866.565932,0
0.002083,-34.060873,188.012713,-112.167067,-1.903813,4.368726,-5.657755,0.980710,-4.110988,5.593291,-0.882512,-0.035656,0.303869,-0.007290,4.532315,188.496007,1452.850830,-866.662806,0
0.003125,-101.306729,194.754349,-49.318621,-0.676550,6.148420,-4.627546,-1.590265,-5.907397,4.592498,1.718244,0.051852,0.308417,-0.014723,3.136283,188.571442,1453.759333,-867.768383,0
0.004167,-158.280953,148.854850,5.728452,0.393084,6.522706,-2.791974,-3.612249,-6.279592,2.711698,3.763055,0.088314,0.312757,-0.007290,2.032967,188.496101,1454.612974,-868.761646,0
0.005208,-204.452447,85.149915,57.640394,1.428940,6.049344,-0.416769,-5.324943,-5.789662,0.295992,5.369964,0.088314,0.321577,0.000144,0.772035,188.646775,1455.149645,-869.087470,0
0.006250,-178.959816,30.664813,130.064357,2.858871,4.669622,1.839880,-6.036310,-4.426214,-1.955792,6.142956,0.106545,0.340524,0.007577,0.017727,188.495917,1456.102825,-870.420378,0
0.007292,-132.065126,-20.484706,190.081463,4.007319,3.088080,3.773566,-6.163892,-2.812104,-3.733061,6.135340,0.135714,0.338664,-0.040740,-1.322014,188.571337,1457.022180,-871.019272,0
0.008333,-73.294214,-77.072164,199.025094,4.176209,0.376339,5.376114,-4.922866,-0.028239,-5.363663,4.859713,0.121129,0.340386,-0.003573,-2.774338,188.495911,1458.755931,-871.824397,0
0.009375,-16.048792,-151.194923,172.121293,3.714578,-1.906073,6.328649,-3.465336,2.360643,-6.278181,3.325153,0.088314,0.332945,0.003860,-4.001495,188.646916,1458.854885,-873.085901,0
0.010417,34.122876,-188.086000,112.602405,2.554870,-3.707784,5.748134,-1.091534,4.225415,-5.566410,0.838632,0.048206,0.311448,-0.025873,-3.978978,188.571361,1458.658395,-874.255643,0
0.011458,101.334832,-194.898106,49.875475,1.327606,-5.461792,4.656603,1.579959,6.040814,-4.548362,-1.739277,0.008098,0.308899,-0.011006,-2.785596,188.571458,1458.482007,-876.374457,0
0.012500,158.218656,-149.104311,-5.268811,0.269232,-5.858095,2.853736,3.617408,6.378827,-2.689131,-3.806935,-0.072118,0.315582,0.003860,-1.659763,188.495939,1458.786945,-877.852513,0
0.013542,204.344951,-85.575552,-57.059236,-0.789143,-5.432436,0.470355,5.283708,5.892695,-0.299307,-5.402420,-0.112226,0.323299,-0.022156,-0.274990,188.646735,1458.637773,-879.008301,0
0.014583,179.191317,-31.172665,-129.519654,-2.196555,-4.118765,-1.798558,6.045335,4.590014,1.991300,-6.141142,-0.108580,0.333290,0.000144,0.580643,188.571375,1459.715178,-880.666186,0
0.015625,132.194928,20.082559,-190.034979,-3.367522,-2.540892,-3.703628,6.172917,2.907542,3.764256,-6.125910,-0.101287,0.340455,-0.014723,1.864092,188.571379,1459.440557,-880.782223,0
0.016667,74.034212,76.834448,-199.100126,-3.581449,0.178188,-5.281647,4.920292,0.146464,5.403486,-4.869323,-0.090349,0.336941,-0.025873,3.338933,188.496058,1460.022012,-881.432384,0
0.017708,17.093889,151.086402,-172.014050,-3.041003,2.567015,-6.315944,3.462763,-2.223429,6.343886,-3.365225,-0.064826,0.333290,-0.011006,4.430990,188.722261,1461.157313,-881.607267,0
0.018750,-33.687976,187.730833,-112.750347,-1.903813,4.343039,-5.686372,1.085095,-4.122382,5.657997,-0.901551,-0.035656,0.329914,0.003860,4.430990,188.495955,1461.887677,-882.028696,0
0.019792,-101.272829,194.942269,-50.047721,-0.665290,6.174106,-4.656163,-1.563202,-5.903599,4.605440,1.714436,0.037267,0.310346,0.011294,3.046216,188.571536,1461.989528,-882.256624,0
0.020833,-158.134054,149.512570,5.278840,0.381825,6.500689,-2.877825,-3.627713,-6.328965,2.728953,3.789710,0.102898,0.317718,-0.007290,1.740251,188.495993,1462.603891,-883.100108,0
0.021875,-204.463747,86.054281,57.373057,1.428940,6.034666,-0.453563,-5.317211,-5.804854,0.347757,5.423274,0.081021,0.324057,0.000144,0.760776,188.722081,1463.312345,-883.599912,0
0.022917,-179.490912,31.569179,129.748413,2.825093,4.743012,1.843968,-6.063373,-4.521162,-1.921281,6.135340,0.146652,0.333703,-0.007290,0.040244,188.495987,1464.292786,-883.347069,0
0.023958,-132.426723,-19.474635,190.518924,4.007319,3.143122,3.720421,-6.221884,-2.823498,-3.784826,6.104878,0.139360,0.335632,0.015011,-1.333272,188.571533,1464.134547,-884.185791,0
0.025000,-74.605006,-76.590619,198.976487,4.209987,0.460737,5.314792,-4.953795,-0.058623,-5.333467,4.852098,0.062790,0.339008,-0.011006,-2.774338,188.495948,1463.870172,-884.188322,0
0.026042,-17.540383,-151.441568,172.157748,3.692059,-1.946437,6.340913,-3.558123,2.307473,-6.256612,3.408926,0.059144,0.333496,0.011294,-4.001495,188.722253,1464.519576,-883.596241,0
0.027083,33.636979,-187.698415,113.550235,2.588648,-3.722462,5.727694,-1.145660,4.198830,-5.605234,0.918597,0.000805,0.334599,-0.018440,-3.855137,188.571371,1465.279207,-883.179031,0
0.028125,101.380032,-195.015556,50.981278,1.338865,-5.502156,4.762894,1.533566,6.021824,-4.630324,-1.739277,-0.024718,0.315238,0.003860,-2.616721,188.571494,1466.002215,-883.294107,0
0.029167,158.286455,-149.726797,-4.624772,0.257972,-5.942493,2.882353,3.625140,6.401615,-2.745210,-3.799319,-0.064826,0.320199,-0.025873,-1.716055,188.495953,1466.743140,-883.404079,0
0.030208,204.582250,-86.691328,-56.864809,-0.789143,-5.450784,0.515325,5.333968,5.999037,-0.307935,-5.444307,-0.068472,0.328811,-0.025873,-0.286248,188.722273,1468.258775,-884.402679,0
0.031250,179.462516,-32.523341,-129.677626,-2.174036,-4.195824,-1.774029,6.076264,4.658376,1.930908,-6.205875,-0.108580,0.337148,0.022444,0.558126,188.496011,1469.694167,-884.586223,0
0.032292,132.952023,19.166448,-190.265861,-3.356263,-2.610612,-3.719980,6.273437,2.998691,3.824649,-6.198259,-0.108580,0.353271,0.011294,1.886609,188.571417,1471.402094,-885.471315,0
0.033333,75.277204,76.670018,-199.112278,-3.525153,0.112137,-5.310264,4.993749,0.169252,5.459564,-4.945479,-0.075764,0.336252,-0.014723,3.338933,188.496031,1472.722826,-886.274840,0
0.034375,18.201281,151.015931,-172.378600,-3.029743,2.533989,-6.328209,3.571014,-2.257610,6.395651,-3.418535,-0.046595,0.336115,-0.011006,4.464765,188.722295,1473.614142,-887.280613,0
0.035417,-33.111680,188.071438,-113.151352,-1.926332,4.361387,-5.792664,1.112158,-4.145169,5.731331,-0.932014,-0.021072,0.332670,-0.014723,4.498540,188.496096,1474.725922,-887.820976,0
0.036458,-101.216330,194.977504,-51.153523,-0.654031,6.210801,-4.823776,-1.567068,-6.028930,4.687401,1.680165,0.088314,0.316891,-0.033307,3.113766,188.571467,1476.544894,-888.852429,0
0.037500,-158.778149,149.301160,4.221645,0.381825,6.629121,-2.902354,-3.674107,-6.389731,2.785032,3.774478,0.088314,0.321921,-0.003573,2.032967,188.496062,1477.651657,-888.927073,0
0.038542,-204.791445,86.758981,57.166478,1.428940,6.137412,-0.486268,-5.417730,-5.983355,0.360698,5.472776,0.088314,0.330740,-0.022156,0.850843,188.722150,1480.070092,-889.929232,0
0.039583,-179.197114,32.720190,130.319542,2.858871,4.790715,1.848056,-6.160026,-4.574333,-1.947164,6.219113,0.132068,0.333083,-0.018440,0.051502,188.571395,1481.304787,-891.022159,0
0.040625,-132.935220,-19.051815,190.300194,4.018579,3.245867,3.765390,-6.322403,-2.876669,-3.789140,6.200074,0.143006,0.346174,0.007577,-1.333272,188.571313,1482.728929,-891.368441,0
0.041667,-74.797104,-76.590619,199.122307,4.209987,0.486423,5.416995,-5.042716,-0.051027,-5.488762,4.932062,0.091960,0.332876,0.003860,-2.774338,188.495978,1484.604481,-893.015382,0
0.042708,-17.585582,-151.194923,172.607360,3.714578,-1.935429,6.426764,-3.616115,2.322664,-6.429162,3.473659,0.099252,0.328604,-0.022156,-3.990237,188.722242,1486.857150,-894.185993,0
0.043750,33.241482,-188.356135,113.404415,2.543610,-3.781174,5.829897,-1.184321,4.282383,-5.700137,0.979522,0.040913,0.336046,-0.022156,-3.967720,188.496013,1488.771791,-894.961350,0
0.044792,101.199233,-195.097771,51.443041,1.383902,-5.601232,4.795599,1.537432,6.067399,-4.686403,-1.674543,0.000805,0.317098,-0.022156,-2.740563,188.571536,1489.896508,-894.783286,0
0.045833,158.602853,-149.292232,-3.932127,0.280491,-5.964510,2.939587,3.636738,6.500360,-2.801289,-3.814550,-0.042949,0.325366,-0.007290,-1.648505,188.496062,1491.312051,-895.241182,0
0.046875,204.774348,-86.397702,-56.585320,-0.755365,-5.560868,0.535765,5.368763,6.033218,-0.351072,-5.478577,-0.104934,0.330189,-0.022156,-0.320023,188.722302,1492.119097,-895.223934,0
0.047917,179.202617,-32.159246,-129.714081,-2.196555,-4.265544,-1.798558,6.138122,4.673568,1.991300,-6.236338,-0.090349,0.335839,0.015011,0.591901,188.646920,1492.374056,-895.881160,0
0.048958,132.375727,19.178193,-190.302316,-3.356263,-2.632629,-3.719980,6.281169,3.036670,3.833276,-6.228722,-0.130457,0.343831,-0.040740,1.897867,188.571437,1492.984021,-895.622975,0
0.050000,74.260211,76.423372,-199.306704,-3.502634,0.130485,-5.408379,5.036276,0.169252,5.481133,-4.987366,-0.104934,0.341420,-0.051890,3.361449,188.496033,1493.564581,-895.490619,0
0.051042,17.421586,150.933716,-172.366448,-3.029743,2.578023,-6.401795,3.598077,-2.234823,6.421533,-3.479460,-0.042949,0.319165,-0.044457,4.419732,188.722172,1494.557141,-894.809241,0
0.052083,-32.896981,188.282848,-112.713892,-1.892554,4.346709,-5.784487,1.174016,-4.175552,5.796038,-0.992940,0.008098,0.325504,0.003860,4.453507,188.571422,1495.844373,-894.701919,0
0.053125,-100.798232,195.200659,-50.606698,-0.654031,6.258504,-4.791071,-1.543871,-5.990951,4.734853,1.657318,0.066437,0.316616,0.003860,3.046216,188.571379,1496.165690,-893.938372,0
0.054167,-158.201853,149.136730,4.452527,0.381825,6.658477,-2.906442,-3.662508,-6.435306,2.759150,3.785902,0.099252,0.323299,-0.018440,1.717734,188.571476,1496.167260,-894.359966,0
0.055208,-205.028744,85.666695,56.801928,1.395162,6.155759,-0.494444,-5.406131,-5.937781,0.377953,5.476584,0.113837,0.329500,0.041027,0.805810,188.722152,1495.718566,-893.866764,0
0.056250,-179.151915,31.381259,129.675503,2.847611,4.842088,1.839880,-6.148428,-4.597120,-1.921281,6.245768,0.135714,0.338871,-0.007290,0.062760,188.571408,1496.156623,-893.256296,0
0.057292,-131.782628,-19.263225,190.761957,4.063616,3.201833,3.810359,-6.337868,-2.937435,-3.827964,6.226729,0.146652,0.357336,-0.018440,-1.333272,188.571435,1497.102004,-892.930943,0
0.058333,-73.599312,-76.285249,199.426099,4.243765,0.490093,5.408819,-5.038849,-0.089006,-5.493076,5.012027,0.139360,0.320681,0.000144,-2.796854,188.571480,1498.245534,-892.201856,0
0.059375,-16.884987,-151.230158,172.376478,3.714578,-1.972123,6.439029,-3.616115,2.353047,-6.429162,3.477467,0.077375,0.322886,-0.003573,-3.967720,188.722175,1498.309420,-892.180524,0
0.060417,32.992883,-188.379625,112.578101,2.554870,-3.762826,5.887131,-1.145660,4.252000,-5.751902,0.960483,0.000805,0.306005,-0.029590,-3.855137,188.571315,1498.528304,-891.893056,0
0.061458,100.803735,-195.379651,50.604576,1.350125,-5.597563,4.848745,1.560629,6.112974,-4.703658,-1.705006,-0.035656,0.314067,-0.011006,-2.582946,188.571328,1498.937198,-892.414320,0
0.062500,158.275156,-148.869411,-4.211615,0.280491,-6.059916,2.960028,3.675400,6.545935,-2.805603,-3.795511,-0.072118,0.319096,0.015011,-1.637247,188.646819,1499.282059,-892.188610,0
0.063542,205.135946,-85.422867,-56.038495,-0.732846,-5.582885,0.531677,5.422889,6.056005,-0.338131,-5.505232,-0.090349,0.325366,-0.007290,-0.252473,188.722364,1499.506506,-892.408376,0
0.064583,179.112218,-31.478035,-129.373834,-2.174036,-4.239858,-1.827175,6.207713,4.730536,1.982673,-6.339150,-0.126811,0.338595,0.003860,0.546868,188.571442,1500.953157,-892.697684,0
0.065625,131.946330,19.236918,-190.448136,-3.401300,-2.621620,-3.760862,6.343027,3.051862,3.872100,-6.331534,-0.115872,0.321714,-0.014723,1.897867,188.495997,1502.287065,-893.280437,0
0.066667,73.706514,76.329412,-199.622648,-3.570190,0.115807,-5.453349,5.086536,0.195837,5.532898,-5.063523,-0.086703,0.335150,-0.018440,3.361449,188.646726,1503.696052,-893.346981,0
0.067708,17.353787,150.745796,-172.633785,-3.007225,2.640404,-6.499910,3.601943,-2.265206,6.542319,-3.517539,-0.064826,0.308486,-0.014723,4.476023,188.722246,1505.169834,-894.367279,0
0.068750,-32.557983,188.905334,-111.948337,-1.858776,4.482479,-5.907131,1.135355,-4.243915,5.843489,-0.928206,-0.021072,0.299184,-0.022156,4.509798,188.571362,1505.483131,-895.661845,0
0.069792,-100.493134,195.235894,-50.448726,-0.687809,6.328224,-4.807424,-1.582532,-6.078303,4.760735,1.722052,0.037267,0.311586,-0.011006,3.102508,188.496025,1506.038525,-897.099698,0
0.070833,-158.732950,148.420284,3.881398,0.359306,6.735536,-2.890090,-3.724366,-6.522658,2.802287,3.922984,0.088314,0.316134,-0.014723,1.987934,188.646978,1507.333800,-898.849846,0
0.071875,-205.277342,85.631460,56.315861,1.406421,6.269513,-0.453563,-5.498918,-5.983355,0.330502,5.590819,0.121129,0.323368,0.011294,0.817068,188.722192,1508.020334,-900.683024,0
0.072917,-178.858117,31.780589,130.027902,2.780056,4.882452,1.893025,-6.306939,-4.608514,-2.033439,6.367619,0.110191,0.329087,0.007577,0.051502,188.571446,1508.910635,-902.901139,0
0.073958,-132.110326,-18.969600,190.567530,3.973542,3.220181,3.896210,-6.422923,-2.975414,-3.849533,6.302885,0.091960,0.349274,0.003860,-1.344530,188.571451,1510.029655,-903.371963,0
0.075000,-73.893110,-76.238269,199.754194,4.187468,0.438720,5.490582,-5.108440,-0.070016,-5.622489,5.023450,0.124775,0.333496,-0.014723,-2.763079,188.646953,1510.933931,-905.004637,0
0.076042,-17.269184,-150.854318,172.801786,3.692059,-1.968454,6.528967,-3.608383,2.413814,-6.506810,3.492698,0.084667,0.333496,-0.025873,-3.967720,188.722248,1511.620511,-906.430461,0
0.077083,32.552186,-189.060836,112.237855,2.532351,-3.843555,5.936188,-1.180455,4.331756,-5.859746,0.945252,0.037267,0.331843,-0.022156,-3.978978,188.571435,1513.049129,-907.784955,0
0.078125,100.611637,-195.320926,51.042036,1.338865,-5.670952,4.873274,1.529700,6.162347,-4.703658,-1.765931,-0.032010,0.313998,-0.037023,-2.706788,188.495978,1513.017032,-909.082129,0
0.079167,158.794952,-148.658001,-3.360998,0.303010,-6.092941,2.980469,3.721793,6.610500,-2.827171,-3.898323,-0.046595,0.319579,-0.011006,-1.592214,188.646743,1513.878358,-910.704070,0
0.080208,205.192446,-86.057097,-55.722552,-0.721587,-5.630588,0.515325,5.461550,6.101580,-0.333817,-5.596620,-0.090349,0.327984,0.011294,-0.297506,188.722155,1514.738780,-912.096240,0
0.081250,179.168717,-32.300186,-129.507502,-2.185296,-4.276552,-1.880321,6.261838,4.700153,2.021497,-6.335342,-0.101287,0.335494,0.000144,0.535610,188.571364,1514.244682,-912.902896,0
0.082292,132.387027,18.485238,-190.533197,-3.277448,-2.665654,-3.818096,6.435814,3.070852,3.885041,-6.304879,-0.115872,0.353340,-0.018440,1.886609,188.571489,1514.062482,-913.200658,0
0.083333,74.678308,76.024042,-199.634800,-3.570190,0.152501,-5.465613,5.113599,0.184443,5.576036,-5.082562,-0.093995,0.350721,-0.007290,3.361449,188.646945,1514.393266,-914.173968,0
0.084375,18.359480,150.792776,-172.694543,-3.041003,2.614718,-6.512175,3.629006,-2.272802,6.538005,-3.528962,-0.042949,0.326469,-0.003573,4.397215,188.722380,1514.352266,-914.581685,0
0.085417,-32.015587,188.752649,-112.276432,-1.870035,4.445785,-5.919396,1.158551,-4.274298,5.856430,-0.966285,-0.010133,0.334668,0.003860,4.408473,188.571580,1514.702255,-914.896720,0
0.086458,-100.606134,195.224149,-51.275040,-0.699068,6.361249,-4.876922,-1.605729,-6.040324,4.782304,1.752514,0.026329,0.315307,0.007577,3.001183,188.496083,1514.507851,-915.152291,0
0.087500,-158.936348,148.854850,3.285966,0.314269,6.713519,-2.947323,-3.751429,-6.522658,2.845425,3.919176,0.088314,0.320888,-0.003573,1.695217,188.646811,1514.935341,-915.190428,0
0.088542,-205.469441,86.512336,56.109283,1.383902,6.236487,-0.478091,-5.522115,-6.055516,0.356385,5.552741,0.102898,0.328673,0.026161,0.828326,188.646871,1515.762185,-915.059032,0
0.089583,-179.276214,32.872875,129.857779,2.836352,4.933824,1.876673,-6.310805,-4.680674,-2.016184,6.367619,0.132068,0.337768,0.000144,0.085277,188.571375,1516.519222,-915.179695,0
0.090625,-132.697922,-17.865569,190.956384,4.041097,3.256875,3.859417,-6.430655,-2.975414,-3.875415,6.337156,0.132068,0.354993,-0.014723,-1.333272,188.496762,1516.912928,-916.195193,0
0.091667,-75.181302,-75.885918,199.596222,4.198728,0.435051,5.519199,-5.147101,-0.096602,-5.583665,5.050105,0.132068,0.345347,-0.007290,-2.819371,188.721735,1516.985358,-916.097938,0
0.092709,-18.478276,-151.359353,172.874696,3.613244,-1.975793,6.549408,-3.693437,2.368239,-6.537006,3.492698,0.062790,0.336459,0.018727,-3.933945,188.646505,1517.368186,-916.258357,0
0.093750,32.043690,-188.955131,112.979107,2.509832,-3.880249,5.972981,-1.176589,4.373533,-5.864059,0.956675,0.033621,0.335494,0.003860,-3.877653,188.571105,1517.496115,-917.067963,0
0.094792,100.871535,-195.414886,52.099231,1.350125,-5.729664,4.914155,1.545164,6.219315,-4.733854,-1.762124,-0.010133,0.318614,-0.018440,-2.627979,188.495718,1518.268106,-917.875971,0
0.095833,159.009651,-148.928136,-2.571140,0.303010,-6.151653,3.009085,3.729526,6.701649,-2.870309,-3.928786,-0.057533,0.325504,-0.055607,-1.648505,188.721842,1519.543582,-918.831241,0
0.096875,205.508843,-87.090658,-55.515973,-0.755365,-5.703977,0.535765,5.492479,6.188932,-0.359700,-5.615660,-0.115872,0.330740,-0.025873,-0.331281,188.646467,1520.874579,-919.408147,0
0.097917,179.112218,-33.509922,-129.957114,-2.151518,-4.349942,-1.847616,6.335295,4.806494,2.043065,-6.449577,-0.108580,0.340455,-0.033307,0.501835,188.571073,1522.977688,-920.643538,0
0.098958,133.076322,17.627852,-190.654714,-3.378782,-2.717026,-3.871241,6.474475,3.070852,3.928179,-6.415306,-0.119518,0.351617,0.000144,1.875350,188.495564,1524.214276,-922.105396,0
0.100000,75.491903,76.012297,-199.756316,-3.547671,0.115807,-5.506494,5.175457,0.180645,5.692508,-5.132064,-0.101287,0.338802,0.007577,3.361449,188.646567,1525.518925,-923.614235,0
0.101042,19.173075,150.651836,-172.986183,-2.995965,2.592701,-6.606202,3.632872,-2.344962,6.632908,-3.570849,-0.061180,0.346174,-0.003573,4.442248,188.571017,1526.629657,-925.277702,0
0.102083,-31.439291,189.328154,-112.507313,-1.847517,4.526513,-5.988894,1.170150,-4.335064,5.972902,-0.966285,-0.006487,0.338457,-0.044457,4.487282,188.571047,1528.170461,-926.586376,0
0.103125,-100.515734,195.282874,-52.295780,-0.699068,6.394275,-4.942332,-1.590265,-6.146665,4.859952,1.767746,0.019036,0.319923,-0.025873,3.102508,188.495622,1529.604634,-928.000629,0
0.104167,-159.467445,148.525989,2.143709,0.325528,6.812595,-3.000469,-3.797823,-6.621404,2.892876,3.999141,0.099252,0.322610,-0.033307,2.021709,188.646529,1530.954721,-929.455417,0
0.105208,-205.672839,86.958646,55.781188,1.361384,6.357580,-0.482180,-5.564643,-6.104888,0.334816,5.651744,0.124775,0.328122,0.011294,0.862101,188.646451,1531.825744,-931.052871,0
0.106250,-178.903316,33.424890,130.428907,2.858871,4.985197,1.913466,-6.388128,-4.695865,-2.011870,6.508509,0.099252,0.335632,-0.025873,0.130310,188.571085,1533.257272,-932.155810,0
0.107291,-132.833521,-17.630668,190.640440,3.996060,3.264214,3.867593,-6.515710,-2.983010,-3.935808,6.409505,0.117483,0.348241,-0.018440,-1.355789,188.495562,1534.066277,-933.167155,0
0.108333,-74.774504,-75.827193,199.778497,4.176209,0.427712,5.600961,-5.212825,-0.051027,-5.678568,5.145301,0.095606,0.334185,-0.007290,-2.774338,188.646429,1535.524706,-934.385778,0
0.109375,-18.308778,-150.736868,173.166336,3.647022,-2.016157,6.614818,-3.724366,2.413814,-6.597399,3.519353,0.088314,0.327226,0.007577,-3.956462,188.571107,1536.141387,-935.228250,0
0.110416,31.546493,-189.436676,112.480888,2.509832,-3.927952,5.972981,-1.195920,4.419108,-5.963276,0.956675,0.055498,0.337010,-0.003573,-3.967720,188.571087,1537.389605,-935.995212,0
0.111458,100.283939,-195.379651,52.159990,1.361384,-5.770028,4.967301,1.583825,6.295273,-4.837384,-1.800202,-0.021072,0.316271,-0.014723,-2.729304,188.495651,1538.687094,-937.021792,0
