1-Time,2-VGERA,3-VGERB,4-VGERC,5-VN,6-IGERAN,7-IGERBN,8-IGERCN,9-IGERAT,10-IGERBT,11-IGERCT,12-IN,13-IFD,14-IFAULT,15-VFAULT,16-Speed (rad/s),17-Active Power,18-Reactive Power,19-FAULT 
0.000000,144.850844,-184.750417,11.913653,0.561974,-2.298706,6.701857,-3.759162,2.303017,-6.688701,3.168386,0.117483,0.628182,-0.003573,143.550107,188.571011,1636.493991,881.129210,0
0.001042,170.818073,-141.399585,-61.518899,-0.856698,-4.265544,6.285704,-1.350565,4.300155,-6.234535,0.765638,0.066437,0.620396,-0.003573,170.187304,188.495683,1637.155135,881.353100,0
0.002083,196.785301,-60.464720,-113.953362,-1.937591,-5.931485,5.124637,1.417582,5.911946,-5.039592,-1.884620,0.029975,0.584361,-0.037023,191.837062,188.646391,1635.803700,881.422024,0
0.003125,167.156897,8.877819,-161.891707,-2.860854,-6.316779,3.281080,3.424102,6.341757,-3.090644,-3.967510,-0.024718,0.605307,-0.029590,159.818387,188.646543,1634.011837,880.650484,0
0.004167,120.081408,75.918337,-186.839089,-3.311226,-5.993866,0.551116,5.496345,6.034220,-0.374464,-5.959011,-0.061180,0.616193,0.026161,113.602964,188.571098,1633.351518,880.508190,0
0.005208,40.642933,128.571217,-188.115015,-3.378782,-4.643500,-1.983255,6.350759,4.644745,2.121247,-6.811968,-0.075764,0.632385,-0.018440,34.918533,188.495673,1633.084858,881.380901,0
0.006250,-34.603270,170.324728,-160.506417,-2.860854,-2.786746,-4.280419,6.544066,2.751354,4.422946,-6.872893,-0.079410,0.643822,-0.018440,-39.566542,188.646509,1632.563729,882.018843,0
0.007292,-98.233149,179.826441,-96.090405,-1.588553,-0.232793,-5.857639,5.461550,0.231773,5.983867,-5.681039,-0.057533,0.633280,-0.025873,-98.909172,188.571049,1631.808850,883.397448,0
0.008333,-144.517644,184.888541,-11.611983,0.021527,2.214745,-6.681622,3.779785,-2.195177,6.724644,-3.990357,-0.024718,0.626390,-0.018440,-143.199421,188.571047,1631.772310,883.880081,0
0.009375,-170.168474,141.772609,61.942085,1.440199,4.177913,-6.286276,1.398251,-4.214548,6.221974,-1.545722,0.059144,0.623083,-0.003573,-169.251184,188.495738,1631.848395,884.676062,0
0.010417,-196.745898,61.260564,114.376549,2.464795,5.917243,-5.066948,-1.358297,-5.863391,5.018212,1.070265,0.099252,0.619983,-0.014723,-191.677766,188.720596,1631.735621,885.201026,0
0.011458,-167.490392,-7.659155,161.986798,3.455614,6.269513,-3.302460,-3.380281,-6.263560,3.122178,3.107460,0.121129,0.629491,-0.033307,-159.670350,188.571350,1631.348121,885.591499,0
0.012500,-121.047699,-74.958063,187.359489,3.894726,5.975955,-0.539204,-5.502785,-5.918970,0.383950,5.152271,0.161237,0.629629,-0.011006,-113.781418,188.571417,1630.975342,885.324506,0
0.013542,-41.677023,-128.468329,188.295168,3.973542,4.537521,1.907775,-6.322403,-4.559137,-2.107351,5.929071,0.201345,0.631764,-0.003573,-34.624138,188.495897,1630.485667,885.194977,0
0.014583,33.874278,-170.773855,160.504295,3.410576,2.684438,4.246554,-6.515710,-2.702799,-4.404640,6.054730,0.161237,0.615504,0.003860,40.041071,188.722212,1629.922638,886.352550,0
0.015625,98.249952,-179.723553,96.464985,2.183313,0.222221,5.840420,-5.390667,-0.153575,-5.912650,4.904762,0.128422,0.631558,-0.014723,99.608866,188.571469,1628.238705,887.391147,0
0.016667,144.455347,-185.020552,11.427586,0.561974,-2.214309,6.651918,-3.782358,2.228911,-6.710748,3.244543,0.139360,0.624668,0.022444,143.302424,188.571328,1627.829760,888.957564,0
0.017708,169.857579,-142.116030,-61.944208,-0.879217,-4.210502,6.306511,-1.431753,4.218640,-6.247763,0.799908,0.029975,0.622256,-0.051890,169.016438,188.495930,1626.883970,889.502050,0
0.018750,196.548003,-61.134186,-113.977666,-1.926332,-5.909468,5.162091,1.301598,5.930473,-5.070457,-1.835118,0.029975,0.621292,-0.040740,191.825803,188.722121,1626.992352,890.121058,0
0.019792,167.552394,7.644593,-161.697280,-2.849594,-6.349804,3.385118,3.331314,6.363989,-3.178832,-3.887545,0.000805,0.630249,0.007577,160.201170,188.495937,1626.710248,891.235168,0
0.020833,121.245300,74.673366,-186.960606,-3.345004,-6.001205,0.617701,5.449952,6.052747,-0.445014,-5.924740,-0.053887,0.630455,-0.033307,114.920188,188.571592,1626.622108,891.566847,0
0.021875,42.857718,128.054437,-188.054256,-3.423819,-4.724228,-1.870894,6.312098,4.711440,2.015422,-6.728195,-0.042949,0.635003,0.003860,36.393374,188.496044,1625.522165,892.115934,0
0.022917,-32.467584,170.383453,-160.603630,-2.894632,-2.808763,-4.230481,6.505404,2.788407,4.339167,-6.850046,-0.090349,0.629077,-0.022156,-38.654618,188.646897,1624.747130,891.987853,0
0.023958,-97.724653,179.650266,-96.819505,-1.622331,-0.298844,-5.811862,5.430621,0.276236,5.948592,-5.688654,-0.061180,0.632729,-0.037023,-98.830363,188.496033,1624.299468,892.116860,0
0.025000,-144.189946,184.970756,-11.247433,0.021527,2.167042,-6.631683,3.779785,-2.106251,6.680550,-4.051282,-0.042949,0.618536,-0.003573,-142.433855,188.571422,1622.975997,893.285082,0
0.026042,-169.761677,141.866569,62.330939,1.440199,4.137549,-6.257146,1.402117,-4.125621,6.160243,-1.595224,0.019036,0.618467,-0.025873,-168.519393,188.496179,1621.183749,893.633610,0
0.027083,-196.384301,60.732039,113.951240,2.442277,5.836515,-5.100241,-1.319636,-5.796696,5.062306,1.028379,0.062790,0.617089,-0.022156,-191.486375,188.646728,1619.950858,894.314430,0
0.028125,-167.682490,-8.211170,161.488580,3.410576,6.258504,-3.327429,-3.360951,-6.233918,3.161862,3.027496,0.121129,0.620327,0.000144,-159.749158,188.496091,1618.661140,895.110264,0
0.029167,-121.183298,-74.852358,186.946332,3.928504,5.939260,-0.614112,-5.444793,-5.896739,0.467729,5.091346,0.172176,0.622325,-0.029590,-114.625793,188.571505,1617.304512,895.734523,0
0.030208,-42.332419,-128.221683,188.222258,3.939764,4.603572,1.936906,-6.303073,-4.581369,-1.992707,5.925263,0.157591,0.635416,0.022444,-36.290370,188.496121,1616.500082,896.641843,0
0.031250,32.247088,-170.820835,160.625811,3.466873,2.721132,4.188293,-6.558237,-2.717620,-4.325271,6.073769,0.161237,0.641755,0.022444,38.183447,188.646792,1616.126784,896.728944,0
0.032292,97.718856,-179.371202,98.202674,2.228350,0.244238,5.807128,-5.444793,-0.220270,-5.908240,4.885723,0.146652,0.632178,-0.044457,99.000917,188.496007,1616.031494,896.536903,0
0.033333,144.376247,-184.961827,12.691360,0.539455,-2.129911,6.614465,-3.817153,2.169627,-6.684292,3.252158,0.102898,0.629353,0.022444,143.032225,188.571453,1615.446444,896.472471,0
0.034375,169.744580,-142.891201,-61.713326,-0.867958,-4.137112,6.289865,-1.466549,4.159355,-6.208078,0.826563,0.062790,0.622532,-0.007290,168.521072,188.495716,1614.648363,896.405159,0
0.035417,196.084706,-61.639221,-113.722481,-1.892554,-5.854426,5.162091,1.239740,5.886010,-5.110142,-1.758961,0.037267,0.617847,-0.025873,191.724479,188.646839,1613.706497,897.169213,0
0.036458,168.106091,8.196609,-160.737298,-2.815817,-6.239720,3.401764,3.234661,6.282473,-3.222926,-3.811388,-0.050241,0.574440,-0.022156,160.561436,188.495991,1611.965392,897.540306,0
0.037500,120.748104,74.920011,-186.802634,-3.333744,-5.971849,0.659316,5.395826,5.978641,-0.467061,-5.833352,-0.064826,0.614608,-0.007290,114.469855,188.571404,1609.994687,897.341872,0
0.038542,42.055424,127.666851,-188.358048,-3.322485,-4.724228,-1.795986,6.285035,4.666977,1.944872,-6.697732,-0.068472,0.636036,-0.011006,36.550990,188.496015,1608.755433,897.398318,0
0.039583,-32.230286,170.724058,-160.081108,-2.894632,-2.874814,-4.126443,6.532467,2.869922,4.246570,-6.861469,-0.112226,0.635830,-0.051890,-37.528786,188.722206,1607.651369,898.912271,0
0.040625,-97.668153,178.898585,-98.289858,-1.611071,-0.397920,-5.749439,5.469282,0.409625,5.855995,-5.787658,-0.028364,0.635623,0.022444,-98.672747,188.495968,1606.571055,900.810297,0
0.041667,-144.054347,184.806325,-12.851454,0.010268,2.034941,-6.569260,3.833911,-2.009914,6.689369,-4.112208,-0.032010,0.631489,-0.007290,-142.692796,188.571395,1606.121966,901.671628,0
0.042708,-169.230580,143.804495,61.577535,1.451458,4.009117,-6.252984,1.514235,-3.981116,6.204337,-1.724691,0.066437,0.623359,-0.007290,-167.618727,188.496016,1605.098165,903.278078,0
0.043750,-195.774105,62.940101,114.097060,2.498573,5.814498,-5.158502,-1.188187,-5.715181,5.075534,0.963645,0.099252,0.617847,-0.003573,-191.362533,188.646804,1604.216799,903.269500,0
0.044792,-168.642984,-7.013179,160.783783,3.388058,6.247496,-3.418983,-3.233368,-6.152402,3.258868,2.939915,0.113837,0.622876,0.000144,-160.334591,188.496082,1602.908500,903.781771,0
0.045833,-121.330197,-74.312087,187.116456,3.939764,5.909904,-0.680696,-5.352006,-5.933791,0.569144,5.015189,0.146652,0.629077,-0.037023,-114.006585,188.496033,1601.935699,905.131824,0
0.046875,-42.275919,-127.516983,188.380229,3.984801,4.728334,1.787091,-6.241215,-4.629537,-1.913339,5.837683,0.143006,0.583259,-0.018440,-35.783745,188.496078,1600.365366,905.800207,0
0.047917,32.247088,-171.102715,160.151896,3.433095,2.790852,4.100901,-6.515710,-2.795430,-4.250312,6.050922,0.179468,0.622256,0.026161,38.014572,188.646808,1599.099777,907.001177,0
0.048958,97.718856,-179.007107,98.858864,2.262128,0.350653,5.769674,-5.471856,-0.298081,-5.789187,4.942840,0.153945,0.634383,-0.048173,99.124759,188.495951,1597.663493,908.174554,0
0.050000,143.901651,-185.079277,12.934393,0.573233,-2.074869,6.610303,-3.848082,2.088111,-6.582876,3.313084,0.135714,0.625012,-0.003573,142.919641,188.495966,1595.928243,908.774020,0
0.051042,168.998785,-143.948252,-61.385231,-0.867958,-4.082070,6.335642,-1.590265,4.088955,-6.247763,0.975069,0.059144,0.624806,-0.022156,167.586631,188.496114,1595.219226,910.559026,0
0.052083,195.531009,-63.177818,-113.892604,-1.926332,-5.828739,5.203706,1.139221,5.826725,-5.110142,-1.667573,0.008098,0.621498,-0.029590,191.656929,188.646795,1594.152750,910.895909,0
0.053125,168.863186,6.376132,-160.640085,-2.804557,-6.313110,3.455864,3.176669,6.278768,-3.315523,-3.735231,-0.024718,0.629146,-0.025873,161.011769,188.496007,1593.941885,911.730247,0
0.054167,122.273593,73.792490,-186.924151,-3.345004,-6.023221,0.759193,5.326236,6.049041,-0.590523,-5.840968,-0.086703,0.628251,-0.029590,115.438071,188.496042,1594.634390,913.089691,0
0.055208,43.886011,127.161816,-188.443110,-3.378782,-4.764592,-1.737725,6.250240,4.729966,1.874322,-6.648230,-0.035656,0.631833,-0.014723,37.215231,188.496025,1594.180637,913.564888,0
0.056250,-31.043793,170.724058,-159.983895,-2.860854,-2.900500,-4.097312,6.478341,2.847691,4.215705,-6.857662,-0.101287,0.646165,0.015011,-37.382428,188.571453,1594.010911,913.003498,0
0.057292,-97.261356,179.004291,-98.411374,-1.633590,-0.364894,-5.703662,5.465416,0.402215,5.789855,-5.711501,-0.061180,0.627906,0.003860,-98.560164,188.496111,1592.919787,911.962752,0
0.058333,-143.410251,184.935521,-12.280325,-0.012251,2.005585,-6.544291,3.841643,-1.987682,6.610000,-4.119823,-0.028364,0.623221,-0.022156,-142.017297,188.495973,1591.701514,911.812921,0
0.059375,-168.891582,143.734025,61.942085,1.451458,4.038473,-6.244661,1.549030,-3.984821,6.235202,-1.747538,0.008098,0.620947,0.003860,-167.168394,188.495964,1591.779082,912.374695,0
0.060417,-195.469007,62.763926,113.866179,2.498573,5.708083,-5.162663,-1.157258,-5.700359,5.132856,0.887489,0.095606,0.625563,0.000144,-191.216175,188.571415,1591.114957,913.594938,0
0.061458,-168.835083,-6.919219,160.613660,3.410576,6.225479,-3.423144,-3.167644,-6.211686,3.254459,2.932300,0.084667,0.621981,-0.003573,-160.604791,188.495980,1591.697970,913.849751,0
0.062500,-122.245491,-73.760072,186.849119,3.928504,5.924582,-0.722312,-5.352006,-5.885623,0.569144,4.988534,0.175822,0.629904,-0.011006,-115.492684,188.495964,1591.307497,913.032399,0
0.063542,-43.699710,-127.352553,188.343774,3.996060,4.676961,1.766283,-6.264412,-4.659180,-1.878064,5.879569,0.150299,0.637621,-0.011006,-37.630111,188.496047,1591.977324,913.362670,0
0.064583,30.371301,-171.079225,160.176199,3.433095,2.776174,4.109224,-6.546639,-2.843599,-4.197399,6.050922,0.204991,0.644580,-0.003573,36.787415,188.571344,1591.660361,913.493884,0
0.065625,97.176459,-178.795697,99.745936,2.239609,0.383678,5.723897,-5.495052,-0.349954,-5.784777,4.927609,0.150299,0.633211,-0.014723,98.764492,188.496062,1591.453086,913.416926,0
0.066667,143.698252,-185.067532,13.554129,0.561974,-2.052852,6.618626,-3.821020,2.099227,-6.587285,3.316892,0.117483,0.627286,-0.033307,142.458050,188.495897,1591.721655,913.119642,0
0.067708,168.795386,-144.300602,-61.445989,-0.867958,-4.041706,6.314834,-1.594131,4.081545,-6.252172,0.971261,0.073729,0.621705,-0.025873,167.192589,188.495973,1591.767846,913.057327,0
0.068750,195.158112,-62.661037,-113.491599,-1.915073,-5.755350,5.191222,1.146953,5.789673,-5.123370,-1.656150,0.015390,0.576369,-0.022156,191.431762,188.495933,1590.982340,913.164194,0
0.069792,168.964885,7.409693,-159.874530,-2.827076,-6.283754,3.476671,3.168937,6.267652,-3.328751,-3.700961,-0.010133,0.619500,0.011294,161.169386,188.495939,1590.178297,913.574794,0
0.070833,121.821596,73.992155,-186.790483,-3.367522,-5.964510,0.759193,5.275976,6.026810,-0.577295,-5.818121,-0.064826,0.623979,-0.022156,115.393038,188.496015,1589.583317,913.364661,0
0.071875,43.580913,126.915171,-188.503868,-3.423819,-4.735236,-1.687786,6.234775,4.752198,1.834637,-6.652038,-0.083057,0.639550,-0.007290,38.127156,188.495908,1589.271309,913.946183,0
0.072917,-30.218899,170.970704,-159.813771,-2.917150,-2.937195,-4.030727,6.509270,2.932912,4.202476,-6.823391,-0.050241,0.637897,-0.011006,-35.806262,188.646860,1588.817933,914.548944,0
0.073958,-96.911058,178.604960,-100.100457,-1.633590,-0.460301,-5.703662,5.523408,0.446678,5.785445,-5.741964,-0.079410,0.633763,-0.022156,-98.188639,188.495987,1589.122174,914.738570,0
0.075000,-143.647549,184.735855,-13.945104,-0.012251,1.943204,-6.594230,3.895769,-1.943219,6.649684,-4.135055,-0.017425,0.625495,-0.018440,-142.298755,188.496096,1589.489759,914.948064,0
0.076042,-168.801183,145.025976,61.249440,1.417680,3.972423,-6.269630,1.595424,-3.947768,6.208746,-1.778001,0.022683,0.622256,0.007577,-166.605478,188.496087,1589.297091,914.744326,0
0.077083,-195.107409,64.020642,113.890482,2.487314,5.722761,-5.158502,-1.141794,-5.670717,5.141675,0.864642,0.055498,0.617433,-0.022156,-191.204917,188.571494,1589.097979,914.631485,0
0.078125,-169.592178,-6.613849,159.933166,3.354280,6.273182,-3.473083,-3.144447,-6.185749,3.320600,2.867566,0.117483,0.599175,-0.003573,-161.021349,188.496165,1588.363563,915.319060,0
0.079167,-121.906493,-73.854032,187.067849,3.928504,5.961277,-0.730635,-5.336541,-5.918970,0.586782,5.022805,0.164883,0.605238,-0.011006,-114.670826,188.496089,1588.876671,915.902880,0
0.080208,-42.739216,-126.906242,188.878448,4.018579,4.713656,1.728829,-6.245081,-4.703643,-1.869245,5.795797,0.179468,0.612059,-0.018440,-36.954611,188.495995,1587.843855,916.328447,0
0.081250,30.947597,-171.243655,159.860256,3.455614,2.834886,4.100901,-6.523442,-2.839894,-4.206218,6.073769,0.194053,0.629008,-0.007290,36.573507,188.496092,1587.977538,916.692654,0
0.082292,96.939161,-178.725227,100.159093,2.273387,0.413034,5.748866,-5.522115,-0.346249,-5.802415,4.973303,0.110191,0.633831,-0.022156,98.584359,188.495946,1588.597956,916.936166,0
0.083333,143.528753,-185.008807,13.991589,0.607011,-2.030835,6.589495,-3.890610,2.032532,-6.640198,3.354970,0.139360,0.628595,-0.003573,142.660700,188.495980,1588.661826,917.898916,0
0.084375,168.795386,-145.099263,-60.765495,-0.879217,-4.067392,6.373096,-1.632792,4.107482,-6.256581,0.978877,0.044560,0.627699,0.007577,167.012456,188.496159,1589.344866,917.581383,0
0.085417,195.011213,-64.598964,-113.528054,-1.892554,-5.825070,5.207868,1.127622,5.852662,-5.141007,-1.648534,0.037267,0.624943,-0.033307,191.454279,188.496038,1590.679465,917.422786,0
0.086458,169.744580,5.460021,-159.959591,-2.815817,-6.298432,3.476671,3.165071,6.319526,-3.297885,-3.700961,-0.013779,0.631351,-0.033307,161.585944,188.496011,1591.919062,916.705147,0
0.087500,122.849890,73.216985,-186.875544,-3.311226,-6.034230,0.767516,5.310771,6.015694,-0.621389,-5.837160,-0.061180,0.626873,-0.022156,115.764562,188.495980,1592.315809,916.626269,0
0.088542,44.247609,126.598055,-188.831963,-3.401300,-4.786609,-1.733563,6.238642,4.744787,1.883141,-6.659654,-0.068472,0.634796,-0.025873,37.620531,188.495969,1593.072887,915.891729,0
0.089583,-30.399698,170.782783,-160.008198,-2.928410,-2.878483,-4.072343,6.486074,2.895859,4.193658,-6.872893,-0.083057,0.615573,-0.018440,-36.470503,188.420647,1593.497902,915.854085,0
0.090625,-96.673760,179.016036,-99.383508,-1.678627,-0.471309,-5.682855,5.488613,0.424446,5.785445,-5.780042,-0.072118,0.628044,-0.029590,-97.940956,188.496027,1593.765554,916.168969,0
0.091667,-142.980854,185.146931,-13.155246,-0.000992,2.027602,-6.585906,3.849375,-1.995093,6.649684,-4.138863,-0.017425,0.624461,-0.037023,-141.780872,188.496013,1594.157991,915.869669,0
0.092708,-168.755983,144.708861,61.200833,1.473977,4.038473,-6.302922,1.560629,-3.995937,6.248430,-1.789424,0.029975,0.621429,-0.011006,-166.808127,188.495968,1594.867641,916.184979,0
0.093750,-195.288208,64.126347,113.380112,2.476055,5.770464,-5.183471,-1.199786,-5.741117,5.093172,0.902720,0.106545,0.617709,0.011294,-191.283725,188.420529,1595.814930,915.203137,0
0.094792,-169.456579,-5.850423,160.188351,3.376799,6.254835,-3.423144,-3.186975,-6.230213,3.280915,2.924684,0.135714,0.630180,0.018727,-161.167707,188.495997,1597.019290,914.463735,0
0.095833,-123.002586,-72.949666,187.043546,3.928504,5.953938,-0.718150,-5.336541,-5.959728,0.547097,5.079922,0.150299,0.629629,-0.018440,-116.100633,188.495939,1598.613341,913.812272,0
0.096875,-44.626304,-126.753557,188.805538,3.939764,4.673292,1.782929,-6.276010,-4.651769,-1.917748,5.833875,0.194053,0.637414,0.022444,-38.271835,188.496000,1599.807677,912.381700,0
0.097917,29.286508,-171.079225,160.455688,3.444354,2.816539,4.130032,-6.527308,-2.813957,-4.289996,6.028075,0.183114,0.639826,-0.022156,36.100657,188.420602,1600.805450,910.673261,0
0.098958,96.430664,-179.030597,100.377823,2.217091,0.346983,5.761351,-5.460257,-0.294375,-5.820052,4.919993,0.168530,0.631144,-0.018440,98.145284,188.496042,1601.198069,909.392270,0
0.100000,143.144556,-185.408138,13.809314,0.584492,-2.096885,6.614465,-3.855815,2.095522,-6.640198,3.294045,0.124775,0.627148,-0.018440,142.120300,188.495915,1601.768805,908.140264,0
0.101042,168.558088,-144.876108,-60.947770,-0.867958,-4.085740,6.331481,-1.532273,4.144534,-6.256581,0.910336,0.059144,0.617571,0.011294,167.091264,188.496091,1602.245078,907.256913,0
0.102083,195.192012,-63.506678,-112.956925,-1.915073,-5.817731,5.224514,1.189480,5.874894,-5.096914,-1.705652,0.011744,0.591802,-0.011006,191.611895,188.345330,1602.399704,906.360481,0
0.103125,169.484681,6.517072,-159.582890,-2.827076,-6.302101,3.447541,3.223063,6.341757,-3.293476,-3.769502,-0.013779,0.631627,0.022444,161.709785,188.496194,1602.953047,906.283326,0
0.104167,122.578691,73.123025,-186.997061,-3.333744,-6.001205,0.755031,5.368763,6.037926,-0.568477,-5.863815,-0.057533,0.624943,-0.025873,116.192379,188.496127,1603.610983,905.898875,0
0.105208,44.688306,126.316175,-188.844115,-3.356263,-4.735236,-1.766856,6.257972,4.748493,1.936053,-6.705348,-0.090349,0.634452,0.015011,39.084113,188.496020,1604.691915,905.420173,0
0.106250,-29.066306,170.958959,-160.263383,-2.838335,-2.889492,-4.130604,6.555664,2.881038,4.268617,-6.869085,-0.086703,0.640101,-0.007290,-34.793013,188.420736,1605.870156,904.441168,0
0.107292,-96.029664,178.757645,-100.732344,-1.678627,-0.460301,-5.741116,5.492479,0.420741,5.825130,-5.776235,-0.072118,0.635898,-0.018440,-97.378039,188.495926,1606.715105,903.758455,0
0.108333,-143.184252,185.229146,-14.491930,-0.057288,2.042280,-6.594230,3.795250,-2.035851,6.658503,-4.085553,-0.035656,0.625495,0.003860,-141.758355,188.495951,1607.476511,902.497422,0
0.109375,-168.722084,145.343092,60.739070,1.428940,4.064159,-6.298761,1.541298,-4.018168,6.217565,-1.724691,0.004452,0.617089,-0.007290,-166.459119,188.496049,1607.959357,901.150754,0
0.110417,-195.254308,64.091112,113.173533,2.476055,5.818167,-5.166825,-1.203652,-5.763349,5.084353,0.925567,0.081021,0.602551,0.015011,-191.373792,188.420564,1608.309619,900.790993,0
