1-Time,2-VGERA,3-VGERB,4-VGERC,5-VN,6-IGERAN,7-IGERBN,8-IGERCN,9-IGERAT,10-IGERBT,11-IGERCT,12-IN,13-IFD,14-IFAULT,15-VFAULT,16-Speed (rad/s),17-Active Power,18-Reactive Power,19-FAULT 
0.000000,181.800050,-133.648149,-5.798674,2.792328,-6.595402,2.597929,4.207316,7.031840,-2.651077,-3.975569,-0.040768,0.308160,-0.013287,-75.876450,188.495300,1524.793920,-917.502409,0
0.001042,193.732360,-72.989930,-65.160417,1.672638,-5.640377,-0.164206,5.826730,6.054090,0.122937,-5.498327,0.017680,0.308160,-0.046895,-69.214860,188.344592,1524.192450,-918.182552,0
0.002083,172.170267,-22.419266,-148.109281,0.111858,-4.429732,-2.525513,6.662557,4.774929,2.481478,-6.380673,0.021333,0.321813,-0.035692,-48.031230,188.419970,1524.132294,-918.625318,0
0.003125,119.144077,26.435910,-192.021213,-0.713772,-2.065247,-4.315344,5.927477,2.525370,4.260876,-5.779397,0.010374,0.326320,-0.002084,-21.837271,188.495338,1524.672206,-919.178156,0
0.004167,60.072334,93.400361,-200.552463,-0.906042,0.561959,-6.144861,4.968515,-0.150576,6.157781,-4.889936,-0.015197,0.326451,-0.035692,-8.909941,188.495235,1524.756841,-918.802551,0
0.005208,12.513230,158.311058,-159.792046,-0.148272,3.057805,-6.490128,2.852828,-2.605977,6.560663,-2.837058,-0.055380,0.318024,-0.046895,8.100298,188.269116,1524.329739,-919.197979,0
0.006250,-37.643307,209.219988,-93.240909,1.107138,5.230575,-5.890872,0.196093,-4.774670,6.086437,-0.278966,-0.117481,0.297185,-0.065566,34.780588,188.495383,1524.596767,-920.426769,0
0.007292,-110.723038,182.424543,-42.053409,2.125038,6.427019,-4.370905,-2.419597,-6.075885,4.584021,2.197295,-0.164970,0.299471,-0.005818,62.388297,188.495341,1524.759749,-921.124227,0
0.008333,-181.625009,134.064684,5.797917,2.995908,6.806899,-2.410424,-4.356178,-6.439785,2.703903,4.221710,-0.219765,0.312471,-0.035692,79.703907,188.495256,1524.736423,-921.655287,0
0.009375,-194.079074,74.493746,65.553599,4.149528,5.862525,0.383459,-6.005444,-5.528199,-0.036538,5.708890,-0.238030,0.315933,-0.035692,73.178037,188.269169,1525.429445,-921.985465,0
0.010417,-173.242901,23.983487,148.010038,5.676378,4.541821,2.728892,-6.774106,-4.282119,-2.462226,6.616141,-0.267254,0.323576,-0.046895,52.548597,188.495385,1526.686460,-923.073945,0
0.011458,-119.082461,-25.910647,192.352841,6.524628,2.138283,4.526660,-6.053952,-1.948018,-4.296181,5.925918,-0.270907,0.333636,-0.017021,25.936168,188.419949,1526.855914,-924.853379,0
0.012500,-59.182716,-92.838855,200.908713,6.728208,-0.478272,6.336335,-5.091258,0.779389,-6.226660,5.040015,-0.223418,0.300582,-0.039427,12.330238,188.495370,1527.859112,-926.481002,0
0.013542,-12.179394,-157.930766,159.729735,5.959128,-2.906662,6.677633,-2.956915,3.146572,-6.516231,3.047620,-0.219765,0.324948,-0.024490,-3.232321,188.269078,1528.102023,-926.561272,0
0.014583,37.398676,-209.032990,93.867993,4.748958,-5.072332,6.102188,-0.292716,5.396131,-6.079775,0.485971,-0.139399,0.306592,-0.017021,-30.206671,188.495403,1528.897117,-927.497852,0
0.015625,110.693914,-182.346273,43.419129,3.731058,-6.261675,4.562378,2.263272,6.660589,-4.560573,-2.015195,-0.102869,0.303718,-0.028224,-57.407220,188.419958,1529.342564,-928.653940,0
0.016667,181.448432,-134.191790,-5.453977,2.814948,-6.641555,2.645552,4.240898,7.042867,-2.659471,-4.021821,-0.033462,0.311034,-0.017021,-74.519250,188.495282,1529.438251,-929.482012,0
0.017708,193.743703,-73.436923,-65.037311,1.706568,-5.679430,-0.136426,5.852850,6.057766,0.127133,-5.512559,0.006721,0.312928,-0.013287,-67.721940,188.269178,1529.496199,-929.876670,0
0.018750,172.295034,-22.672965,-147.592235,0.134478,-4.401330,-2.525513,6.666288,4.760226,2.489871,-6.362884,-0.026156,0.316325,-0.046895,-46.741891,188.495363,1528.956374,-930.047571,0
0.019792,118.542924,26.375506,-191.935038,-0.759012,-2.097199,-4.299470,5.905089,2.547424,4.277663,-5.765166,0.006721,0.330697,-0.043161,-19.665751,188.420014,1528.897935,-929.788187,0
0.020833,59.561922,93.050015,-200.687879,-0.872112,0.547758,-6.136924,4.998366,-0.202037,6.187158,-4.886378,-0.029809,0.320637,-0.028224,-8.231341,188.495360,1528.731949,-930.464154,0
0.021875,12.955587,157.755337,-160.370644,-0.136962,3.025852,-6.454411,2.826709,-2.594950,6.518696,-2.869079,-0.066339,0.313059,-0.046895,7.930648,188.288860,1528.448407,-930.292056,0
0.022917,-37.382430,209.159583,-93.770265,1.073208,5.212824,-5.847218,0.166242,-4.737912,6.027683,-0.261177,-0.121134,0.305743,-0.020755,35.312158,188.433089,1527.426220,-930.238236,0
0.023958,-110.394106,182.799051,-42.324243,2.079798,6.409268,-4.347093,-2.386015,-6.009722,4.579824,2.154601,-0.161317,0.300255,-0.017021,61.336467,188.420287,1526.965009,-929.476635,0
0.025000,-181.534269,133.810985,5.687121,2.973288,6.757195,-2.414393,-4.307671,-6.428757,2.674526,4.146995,-0.238030,0.306331,-0.035692,80.925387,188.495658,1526.387045,-928.697422,0
0.026042,-194.181157,73.768892,64.987311,4.115598,5.791519,0.347742,-5.912160,-5.465711,-0.040734,5.644849,-0.223418,0.313712,-0.028224,73.008387,188.269427,1525.140034,-927.875579,0
0.027083,-172.925311,24.104296,148.268561,5.665068,4.541821,2.701112,-6.736792,-4.215956,-2.466423,6.548542,-0.285519,0.314496,-0.046895,53.080167,188.495627,1523.818866,-927.618436,0
0.028125,-120.216711,-25.608624,191.700379,6.490698,2.187987,4.467132,-5.986787,-2.014182,-4.245821,5.861877,-0.238030,0.332918,-0.050629,27.259438,188.420280,1523.340209,-926.803178,0
0.029167,-59.897293,-92.681803,200.921023,6.728208,-0.456971,6.320460,-5.039019,0.713225,-6.109152,5.004436,-0.281866,0.323446,-0.039427,13.404688,188.495834,1522.375761,-925.422048,0
0.030208,-12.213421,-157.254235,160.394508,5.970438,-2.853408,6.610167,-2.938258,3.106138,-6.520428,3.008484,-0.172276,0.327953,-0.043161,-3.187081,188.269557,1521.877773,-925.458001,0
0.031250,37.217196,-209.129637,93.461743,4.726338,-5.015528,6.042659,-0.300179,5.355697,-5.966465,0.468182,-0.121134,0.304436,-0.024490,-30.862651,188.495629,1520.284469,-924.905189,0
0.032292,110.036049,-182.672457,43.025190,3.787608,-6.268776,4.562378,2.225958,6.583398,-4.531196,-1.933365,-0.088257,0.303522,-0.050629,-57.384600,188.420300,1519.531194,-923.465892,0
0.033345,182.163010,-133.418612,-6.414205,2.803638,-6.570550,2.554274,4.259555,6.976703,-2.634291,-3.996916,-0.026156,0.310511,-0.050629,-75.672870,188.495709,1519.018965,-922.471193,0
0.034384,193.471483,-72.977849,-66.379167,1.627398,-5.640377,-0.227703,5.826730,6.021008,0.097757,-5.505443,0.021333,0.312210,-0.013287,-68.909490,188.269496,1519.107893,-921.615358,0
0.035420,172.385774,-22.890421,-147.986175,0.111858,-4.330324,-2.529482,6.610318,4.752874,2.515052,-6.366442,0.032292,0.320898,-0.046895,-47.895511,188.420195,1519.167823,-922.051337,0
0.036458,118.894542,26.399667,-191.762690,-0.679842,-2.058146,-4.307407,5.908820,2.558452,4.244089,-5.697567,0.032292,0.300321,-0.076769,-21.339631,188.420300,1518.404065,-921.484122,0
0.037500,58.711234,92.772154,-200.761743,-0.849492,0.572610,-6.117081,4.972246,-0.187334,6.120011,-4.861473,-0.007891,0.320179,-0.013287,-8.842081,188.495644,1517.670503,-920.461229,0
0.038542,12.547257,157.707013,-160.493750,-0.148272,3.036503,-6.470285,2.841634,-2.605977,6.598434,-2.861963,-0.062686,0.311165,-0.020755,7.919338,188.269546,1518.448294,-920.981789,0
0.039583,-37.223635,208.772994,-94.484281,1.061898,5.198623,-5.918652,0.184899,-4.756291,6.065454,-0.314545,-0.099216,0.299210,-0.043161,34.837138,188.420301,1519.159843,-921.024626,0
0.040625,-110.518873,182.811132,-43.038258,2.057178,6.434120,-4.370905,-2.389746,-6.009722,4.575628,2.126138,-0.175929,0.301954,-0.043161,62.150787,188.420300,1519.171934,-920.974105,0
0.041667,-181.318761,134.378787,5.613258,2.973288,6.796248,-2.398518,-4.359910,-6.443460,2.691313,4.196805,-0.179582,0.305939,-0.087972,79.873557,188.495640,1519.517223,-921.734716,0
0.042708,-194.192499,73.672245,64.691856,4.115598,5.816371,0.347742,-5.949473,-5.513496,-0.061718,5.719563,-0.238030,0.310381,-0.039427,73.313757,188.269559,1520.245504,-922.744848,0
0.043750,-172.891283,23.222390,147.640720,5.721618,4.570223,2.701112,-6.736792,-4.219632,-2.453833,6.616141,-0.248989,0.330501,0.005384,52.627767,188.420285,1520.790748,-922.759332,0
0.044792,-119.808381,-25.536139,191.860417,6.535938,2.219939,4.479037,-6.024101,-2.006830,-4.208050,5.901014,-0.241683,0.327039,-0.035692,26.501668,188.420271,1521.043451,-922.407542,0
0.045833,-60.589186,-92.367700,200.847160,6.705588,-0.425018,6.284743,-5.068870,0.735280,-6.121742,5.015110,-0.205153,0.321486,-0.046895,12.714778,188.495772,1520.989331,-923.052574,0
0.046875,-12.939341,-157.314640,160.529925,5.947818,-2.896012,6.637947,-2.968109,3.117166,-6.524625,3.065410,-0.154011,0.313386,-0.054364,-3.062671,188.344979,1521.521730,-923.205819,0
0.047917,36.922291,-208.839695,93.695644,4.703718,-5.090084,6.050597,-0.270328,5.344670,-6.000038,0.493086,-0.117481,0.313908,-0.031958,-29.901301,188.344948,1521.846729,-923.049807,0
0.048958,109.650404,-182.612053,42.643561,3.731058,-6.275877,4.518723,2.233421,6.598101,-4.556376,-1.976059,-0.088257,0.298753,-0.043161,-56.773860,188.420247,1521.972761,-923.468869,0
0.050000,180.733855,-134.252194,-5.269318,2.826258,-6.634455,2.645552,4.211047,7.013461,-2.659471,-3.954222,-0.044421,0.311557,-0.028224,-74.666280,188.495631,1521.769071,-923.602707,0
0.051042,193.913840,-74.959117,-64.606440,1.717878,-5.640377,-0.144363,5.781954,6.072469,0.039003,-5.466307,-0.029809,0.315607,-0.035692,-67.880280,188.344847,1522.024098,-923.860811,0
0.052083,172.635309,-24.134754,-147.407576,0.134478,-4.394229,-2.521544,6.595392,4.774929,2.418528,-6.341537,0.003068,0.323576,-0.061832,-47.137741,188.344892,1521.849363,-923.070825,0
0.053125,119.722545,25.928512,-191.553410,-0.702462,-2.068797,-4.279627,5.867775,2.547424,4.231499,-5.708240,0.014027,0.334682,-0.058098,-19.609201,188.420260,1521.741690,-923.487647,0
0.054167,58.972112,92.445970,-200.884849,-0.894732,0.551309,-6.113113,4.931201,-0.176306,6.145191,-4.843684,-0.029809,0.326843,0.005384,-7.711081,188.495707,1521.669827,-923.819867,0
0.055208,12.014160,156.933835,-160.875379,-0.114342,2.961947,-6.375039,2.837903,-2.484678,6.489320,-2.869079,-0.091910,0.260342,-0.020755,7.964578,188.344871,1520.598722,-921.714057,0
0.056250,-36.962757,208.712590,-94.459659,1.073208,5.113416,-5.839281,0.225944,-4.701155,5.981520,-0.321660,-0.110175,0.308356,-0.028224,35.380018,188.344896,1519.392426,-920.976254,0
0.057292,-110.065173,183.185640,-43.493750,2.045868,6.341812,-4.303439,-2.333776,-5.983992,4.575628,2.151043,-0.157664,0.305024,-0.043161,60.929307,188.420289,1518.989542,-921.376962,0
0.058333,-181.023856,134.765376,5.059280,2.973288,6.711041,-2.438204,-4.315133,-6.392000,2.632559,4.150553,-0.227071,0.308813,-0.046895,81.027177,188.495721,1517.669716,-921.295347,0
0.059375,-194.396664,74.252128,64.236364,4.115598,5.784419,0.351710,-5.859920,-5.436305,-0.078505,5.627059,-0.248989,0.309532,-0.039427,73.189347,188.344910,1516.112739,-920.822177,0
0.060417,-172.619063,23.391522,147.480682,5.687688,4.506318,2.653489,-6.669628,-4.142441,-2.466423,6.484500,-0.245336,0.308290,-0.031958,52.797417,188.344938,1513.925774,-920.273385,0
0.061458,-119.921806,-25.596543,191.232576,6.558558,2.223490,4.407603,-5.975593,-1.977424,-4.161887,5.833414,-0.223418,0.304697,-0.005818,27.496948,188.420271,1512.599342,-919.708669,0
0.062500,-60.169513,-92.029435,200.847160,6.728208,-0.414367,6.201403,-5.053944,0.724252,-6.025218,4.986647,-0.248989,0.318742,-0.050629,13.732678,188.495718,1511.555416,-918.624432,0
0.063542,-13.109479,-156.698514,161.662500,5.981748,-2.807255,6.582387,-2.915870,3.106138,-6.444888,3.012042,-0.143052,0.315672,-0.054364,-3.051361,188.344831,1510.160732,-918.788727,0
0.064583,36.797523,-208.501430,94.360417,4.703718,-5.001327,5.963288,-0.311373,5.271155,-5.953875,0.478855,-0.128440,0.304697,-0.020755,-30.760861,188.344896,1509.113862,-918.302408,0
0.065625,109.389527,-183.361069,42.791288,3.764988,-6.162268,4.526660,2.162525,6.539289,-4.489229,-1.954712,-0.091910,0.298034,-0.031958,-56.762550,188.420245,1508.094650,-918.058225,0
0.066667,180.450292,-134.083061,-5.380114,2.848878,-6.527946,2.605866,4.155076,6.958325,-2.659471,-3.907970,-0.011544,0.307702,-0.020755,-76.023480,188.495741,1507.365232,-917.154779,0
0.067708,194.174718,-74.222182,-64.200190,1.729188,-5.608424,-0.096740,5.711058,6.032035,0.030609,-5.405823,0.032292,0.314235,-0.046895,-69.701190,188.344896,1506.578964,-916.253698,0
0.068750,172.567254,-24.328049,-147.358334,0.134478,-4.404880,-2.450110,6.528228,4.675684,2.460495,-6.309517,0.003068,0.322531,-0.017021,-48.246120,188.269532,1505.099788,-916.917545,0
0.069792,120.800082,25.723137,-191.159470,-0.713772,-2.061696,-4.247878,5.830462,2.540073,4.143368,-5.672662,0.014027,0.328345,-0.069301,-21.871201,188.420276,1504.342131,-916.309491,0
0.070833,59.595949,92.156028,-200.847917,-0.894732,0.526457,-6.061521,4.923739,-0.121170,6.057060,-4.822337,-0.015197,0.311818,-0.039427,-8.638501,188.495712,1503.634250,-915.258280,0
0.071875,11.991475,156.861350,-161.330872,-0.170892,2.986799,-6.418694,2.808052,-2.580247,6.485123,-2.829942,-0.084604,0.316587,-0.046895,7.953268,188.344816,1503.191963,-916.675198,0
0.072917,-36.860675,208.483053,-93.991856,1.073208,5.116966,-5.811500,0.177436,-4.642343,5.973126,-0.328776,-0.135746,0.269226,-0.017021,34.656178,188.269546,1502.797831,-915.782942,0
0.073958,-109.668186,183.403096,-43.296780,2.079798,6.324061,-4.335187,-2.303925,-5.965613,4.558841,2.101233,-0.139399,0.302150,-0.084238,61.551357,188.420216,1502.572515,-915.162829,0
0.075000,-180.536129,135.333179,5.096212,2.995908,6.732343,-2.406456,-4.289014,-6.344215,2.682919,4.132764,-0.234377,0.307768,-0.024490,80.088447,188.495781,1502.427068,-914.570793,0
0.076042,-194.476062,75.242762,64.187121,4.104288,5.763117,0.312024,-5.863652,-5.462035,-0.023948,5.623501,-0.227071,0.311883,-0.046895,73.472097,188.344907,1503.036636,-914.437489,0
0.077083,-172.959338,23.802273,146.902084,5.642448,4.488567,2.681269,-6.669628,-4.193901,-2.416062,6.495174,-0.281866,0.316913,-0.046895,52.582527,188.269458,1503.571980,-914.030534,0
0.078125,-120.091943,-25.584463,191.183334,6.547248,2.184437,4.403634,-5.945742,-1.977424,-4.145100,5.822741,-0.248989,0.303979,-0.013287,26.207608,188.420479,1503.409003,-913.872601,0
0.079167,-59.443593,-91.485794,201.044129,6.682968,-0.364663,6.217277,-5.020362,0.716901,-6.033612,4.965300,-0.205153,0.325536,-0.046895,12.692158,188.420256,1503.131246,-913.737732,0
0.080208,-12.723834,-156.384410,161.957955,5.981748,-2.789503,6.562544,-2.934526,3.065705,-6.453281,2.980021,-0.164970,0.317828,-0.039427,-3.051361,188.420289,1502.905609,-913.469899,0
0.081250,36.570673,-208.078598,95.369887,4.771578,-5.015528,5.971225,-0.315105,5.256452,-5.916104,0.478855,-0.128440,0.306200,-0.046895,-30.025711,188.269489,1502.227824,-913.643048,0
0.082292,109.151334,-183.493959,43.419129,3.753678,-6.187120,4.490943,2.199839,6.509883,-4.518606,-1.954712,-0.088257,0.300255,-0.020755,-56.004780,188.420262,1502.200606,-913.619794,0
0.083333,179.769742,-134.795835,-5.503220,2.814948,-6.510195,2.621740,4.132688,6.914216,-2.663667,-3.904412,-0.051727,0.305024,-0.046895,-75.084750,188.420343,1501.652324,-913.545625,0
0.084375,194.322170,-74.016807,-63.806250,1.717878,-5.597773,-0.068960,5.651356,5.962196,0.064183,-5.363129,-0.000585,0.313908,-0.024490,-67.925520,188.495680,1500.350785,-913.408180,0
0.085417,172.374432,-23.542790,-146.755114,0.134478,-4.376478,-2.418361,6.502108,4.686711,2.389151,-6.259707,-0.007891,0.318808,-0.054364,-47.397871,188.269431,1499.971340,-911.862602,0
0.086458,121.299152,25.493600,-190.667046,-0.691152,-2.068797,-4.168507,5.815536,2.573155,4.126582,-5.654873,0.006721,0.324752,-0.028224,-20.276491,188.420368,1499.826031,-911.567808,0
0.087500,60.548719,91.515740,-200.724811,-0.894732,0.490954,-5.998024,4.908813,-0.091764,6.006700,-4.793874,-0.044421,0.319330,-0.069301,-8.095621,188.420227,1499.007084,-911.300685,0
0.088542,12.365777,155.906958,-162.426516,-0.182202,2.905143,-6.331385,2.811783,-2.469975,6.409582,-2.844174,-0.048074,0.314888,-0.058098,7.896718,188.495591,1498.229493,-910.063826,0
0.089583,-36.599797,207.915250,-94.275000,1.061898,5.085014,-5.763877,0.289377,-4.601910,5.901783,-0.303871,-0.113828,0.299994,-0.050629,35.119888,188.269476,1496.809596,-909.833203,0
0.090625,-108.783470,184.152112,-42.705871,2.079798,6.231754,-4.283596,-2.233029,-5.833286,4.533661,2.058539,-0.164970,0.299145,-0.046895,60.103677,188.420254,1495.625125,-908.426358,0
0.091667,-179.503961,135.272774,5.046970,2.973288,6.647136,-2.410424,-4.214386,-6.278052,2.653542,4.065165,-0.190541,0.308682,-0.046895,81.072417,188.420363,1494.163671,-907.491580,0
0.092708,-194.986474,76.160911,63.780871,4.092978,5.724064,0.292181,-5.714397,-5.406899,-0.002964,5.484745,-0.216112,0.311034,-0.076769,73.698297,188.420329,1492.963293,-906.360669,0
0.093750,-172.879941,24.744584,146.729735,5.665068,4.456615,2.605866,-6.546492,-4.124062,-2.348915,6.399112,-0.281866,0.319069,-0.080503,52.978377,188.269523,1491.250999,-905.487934,0
0.094792,-121.453044,-25.354925,190.629357,6.547248,2.212839,4.312357,-5.886040,-2.006830,-4.073756,5.776489,-0.267254,0.331611,-0.046895,27.587428,188.420330,1490.708321,-904.844676,0
0.095833,-59.647758,-90.930072,200.970266,6.694278,-0.382415,6.118063,-4.949466,0.742631,-5.932891,4.897701,-0.223418,0.301366,-0.046895,13.235038,188.420314,1488.895817,-904.409170,0
0.096875,-11.850461,-155.550828,162.856629,6.015678,-2.736249,6.459361,-2.915870,3.039975,-6.369347,2.976464,-0.186888,0.320310,-0.061832,-3.062671,188.420323,1488.040083,-903.638040,0
0.097917,36.366508,-207.426230,95.566856,4.794198,-4.880617,5.947413,-0.337493,5.135152,-5.819580,0.550012,-0.146705,0.293527,-0.043161,-30.613831,188.269525,1486.729819,-901.579994,0
0.098958,108.856429,-184.339622,43.936174,3.764988,-6.094812,4.447289,2.136405,6.443720,-4.501819,-1.872882,-0.091910,0.300451,-0.043161,-56.163120,188.420301,1486.390747,-900.624655,0
0.100000,179.179932,-135.254909,-5.035417,2.792328,-6.446290,2.586023,4.106569,6.833349,-2.646881,-3.900854,-0.037115,0.305743,-0.028224,-75.955620,188.420280,1485.127569,-900.593898,0
0.101042,194.821240,-74.729580,-63.449243,1.717878,-5.537419,-0.080865,5.614042,5.962196,0.022216,-5.313319,-0.007891,0.309336,-0.043161,-70.153590,188.495698,1485.170464,-900.107948,0
0.102083,172.226979,-23.373657,-146.262690,0.157098,-4.312573,-2.382644,6.453600,4.657305,2.376561,-6.149413,0.017680,0.333179,-0.017021,-48.144330,188.269541,1483.687286,-899.170573,0
0.103125,121.049617,25.880189,-190.494698,-0.725082,-2.058146,-4.176444,5.755834,2.536397,4.084615,-5.587274,-0.000585,0.324099,-0.061832,-22.233121,188.420287,1482.525000,-898.526221,0
0.104166,60.503349,91.129151,-200.614016,-0.883422,0.505155,-5.918652,4.890156,-0.106467,5.960536,-4.740506,-0.007891,0.316064,-0.058098,-8.909941,188.420327,1481.355303,-898.325233,0
0.105208,12.740080,155.882797,-163.005114,-0.204822,2.898042,-6.291699,2.830440,-2.484678,6.392796,-2.797922,-0.055380,0.314104,-0.031958,7.919338,188.418994,1480.735621,-898.978596,0
0.106250,-36.554427,207.323286,-94.902841,1.050588,5.038860,-5.736097,0.233407,-4.572504,5.876602,-0.321660,-0.095563,0.314104,-0.043161,34.543078,188.269883,1480.262006,-898.631270,0
0.107292,-108.760785,184.417892,-42.853599,2.057178,6.228203,-4.267721,-2.218103,-5.855340,4.491694,2.047866,-0.168623,0.294507,-0.028224,60.703107,188.420088,1480.048897,-898.940670,0
0.108333,-178.857439,135.321098,5.588636,2.984598,6.625835,-2.394550,-4.214386,-6.222915,2.636756,4.047375,-0.201500,0.302411,-0.035692,80.269407,188.420104,1479.196315,-898.423018,0
0.109375,-194.748282,75.460219,63.510038,4.126908,5.688561,0.256464,-5.747979,-5.388520,0.005429,5.466956,-0.285519,0.307702,-0.024490,73.777467,188.495354,1478.757158,-897.876883,0
0.110417,-173.072763,25.094930,146.348107,5.665068,4.449514,2.617772,-6.572612,-4.098332,-2.344719,6.399112,-0.252642,0.320963,-0.058098,52.921827,188.269089,1478.346480,-898.124193,0
