1-Time,2-VGERA,3-VGERB,4-VGERC,5-VN,6-IGERAN,7-IGERBN,8-IGERCN,9-IGERAT,10-IGERBT,11-IGERCT,12-IN,13-IFD,14-IFAULT,15-VFAULT,16-Speed (rad/s),17-Active Power,18-Reactive Power,19-FAULT 
0.000000,-119.377366,-61.670123,185.766667,6.422838,2.805735,1.288296,-3.844981,-2.609653,-1.140268,3.723611,-0.223418,0.385570,-0.039427,-82.243980,188.467618,1105.822554,77.605912,0
0.001042,-46.229580,-116.360375,185.335796,6.445458,1.481481,2.768578,-3.874832,-1.304762,-2.617504,3.766305,-0.175929,0.384198,-0.046895,-33.113341,188.633577,1105.568063,77.688956,0
0.002083,20.804598,-165.698787,157.304546,5.936508,0.047169,3.935341,-3.516620,0.047914,-3.863922,3.478120,-0.201500,0.405559,-0.043161,12.217138,188.496006,1104.811403,78.414903,0
0.003133,78.957598,-181.391882,94.483523,4.726338,-1.674716,4.248860,-2.068849,1.757138,-4.191264,2.069213,-0.208806,0.399092,-0.009553,47.029317,188.523577,1104.370570,78.866984,0
0.004167,134.445110,-186.127596,18.711742,3.289968,-2.874710,4.066305,-0.844959,3.073057,-4.086346,0.838198,-0.124787,0.397655,-0.028224,82.361757,188.508103,1104.454231,78.648446,0
0.005208,165.115232,-141.367847,-48.221023,1.989318,-3.478257,3.038441,0.804306,3.657501,-3.062353,-0.670329,-0.077298,0.395499,-0.035692,104.348396,188.496223,1103.910831,77.875394,0
0.006250,191.894875,-63.180236,-100.233334,0.960108,-4.106657,1.907395,2.364019,4.348542,-1.946033,-2.285592,-0.062686,0.392429,-0.058098,121.777106,188.512554,1103.098202,77.768205,0
0.007292,167.315677,2.104969,-156.074243,-0.035172,-3.563464,0.661260,2.990889,3.863343,-0.728992,-2.833500,-0.029809,0.362445,-0.054364,111.665966,188.571138,1103.520899,77.982342,0
0.008333,118.497554,62.533651,-185.964395,-0.623292,-2.732699,-1.172226,3.748357,2.984839,1.083979,-3.612669,-0.059033,0.401574,-0.020755,84.770787,188.495776,1103.008589,78.185371,0
0.009375,45.134261,116.547373,-185.508902,-0.611982,-1.443948,-2.632665,3.796865,1.709353,2.557018,-3.655363,-0.044421,0.370022,-0.031958,37.449748,188.495687,1102.244799,79.324897,0
0.010417,-21.707094,166.127403,-156.911364,-0.080412,-0.016736,-3.819271,3.468504,0.250081,3.774059,-3.395640,-0.044421,0.387334,-0.028224,-6.964621,188.551978,1101.379259,80.371939,0
0.011458,-78.748529,181.071481,-95.875379,1.095828,1.676747,-4.124852,2.017002,-1.437089,4.105598,-2.025869,-0.059033,0.405755,-0.061832,-42.059551,188.568024,1101.636094,80.687393,0
0.012500,-134.848537,186.387079,-17.949242,2.600058,2.837688,-3.954203,0.811769,-2.675817,3.992287,-0.794854,-0.110175,0.394715,-0.061832,-76.113960,188.495676,1100.629172,81.209889,0
0.013553,-165.779535,140.382997,49.328220,3.878088,3.547743,-2.934277,-0.837496,-3.308046,3.006065,0.756367,-0.146705,0.395238,-0.035692,-100.159019,188.570968,1100.013967,81.859464,0
0.014585,-192.139507,63.282667,100.663447,4.873368,4.147740,-1.815137,-2.419597,-3.962329,1.881351,2.325378,-0.161317,0.383479,-0.028224,-115.823369,188.495709,1099.067378,82.137331,0
0.015625,-167.719103,-1.374331,156.135038,5.868648,3.629400,-0.537253,-3.031542,-3.429345,0.660113,2.862612,-0.194194,0.400268,-0.028224,-105.135419,188.570980,1097.828331,82.436195,0
0.016666,-118.583391,-62.032550,185.902084,6.456768,2.851889,1.224799,-3.833787,-2.679492,-1.094104,3.663128,-0.197847,0.393801,-0.039427,-80.807610,188.512342,1097.372863,83.885565,0
0.017708,-45.911990,-116.457022,185.200379,6.456768,1.531185,2.697143,-3.856175,-1.348871,-2.550357,3.720053,-0.241683,0.374007,-0.039427,-32.762731,188.571681,1096.425296,84.898264,0
0.018750,20.725200,-166.230347,157.070644,5.959128,0.143027,3.887718,-3.580053,0.029536,-3.863922,3.474562,-0.205153,0.410916,-0.054364,10.271818,188.496087,1096.448237,85.159332,0
0.019791,78.390473,-180.437490,97.364205,4.782888,-1.571758,4.209174,-2.147207,1.709353,-4.098936,2.115465,-0.164970,0.393409,-0.028224,47.142417,188.571496,1095.502628,85.419532,0
0.020833,134.978208,-185.970544,19.708902,3.335208,-2.750450,4.082179,-0.852422,2.984839,-4.077953,0.902239,-0.157664,0.401574,-0.020755,82.146867,188.477680,1094.861636,86.647269,0
0.021875,165.137917,-142.225591,-47.716288,2.057178,-3.439204,3.062253,0.722216,3.617068,-3.095927,-0.570710,-0.110175,0.400268,-0.050629,103.828136,188.571078,1094.587004,87.927937,0
0.022916,191.736080,-64.980291,-100.602652,1.027968,-4.138609,1.966924,2.334168,4.333839,-2.008983,-2.235782,-0.084604,0.397198,-0.039427,121.460426,188.495656,1094.610474,88.709124,0
0.023967,166.884662,1.525086,-157.539205,-0.080412,-3.527961,0.609668,2.890142,3.775125,-0.703812,-2.787248,-0.037115,0.410851,-0.028224,109.415276,188.571163,1093.447943,88.326757,0
0.025000,119.665832,61.724231,-185.804357,-0.634602,-2.796604,-1.084917,3.729700,2.995866,1.000045,-3.623342,-0.029809,0.403142,-0.046895,84.668997,188.495883,1093.425789,88.896278,0
0.026042,47.130541,116.716506,-185.275001,-0.634602,-1.458149,-2.581073,3.763283,1.720381,2.531838,-3.673152,-0.026156,0.403600,-0.061832,38.037868,188.571141,1093.634041,88.865691,0
0.027083,-20.277939,166.260293,-157.059091,-0.125652,-0.077091,-3.819271,3.408802,0.264784,3.753076,-3.420545,-0.029809,0.406213,0.020321,-7.258681,188.517437,1093.697499,88.948773,0
0.028125,-78.510337,180.962753,-96.577084,1.050588,1.630593,-4.101041,2.024464,-1.356222,4.080418,-2.050774,-0.110175,0.401966,-0.035692,-42.206581,188.572535,1093.182228,89.833275,0
0.029167,-135.064044,186.085057,-18.884849,2.532198,2.869640,-3.942297,0.755798,-2.668465,4.013271,-0.787738,-0.113828,0.399941,-0.084238,-77.459850,188.495396,1093.342543,89.733209,0
0.030208,-165.756850,141.941433,48.220265,3.753678,3.494489,-2.882686,-0.833765,-3.260261,3.081605,0.685210,-0.132093,0.398700,-0.013287,-99.435179,188.570721,1093.531852,90.791600,0
0.031250,-191.980712,64.285382,100.712690,4.816818,4.204545,-1.803231,-2.468105,-3.958653,1.931711,2.314704,-0.175929,0.397786,-0.035692,-116.083499,188.557538,1093.752456,91.199917,0
0.032292,-167.651048,-1.072308,156.418182,5.868648,3.629400,-0.533284,-3.046467,-3.488157,0.676900,2.841265,-0.194194,0.411700,-0.043161,-106.187249,188.570555,1094.190489,91.797432,0
0.033333,-119.150516,-62.225844,185.594319,6.422838,2.848339,1.236704,-3.822592,-2.664789,-1.136071,3.698706,-0.201500,0.397002,-0.046895,-82.063020,188.495316,1094.705329,91.086023,0
0.034382,-44.868480,-117.459738,184.966478,6.456768,1.456629,2.709049,-3.859906,-1.389304,-2.604914,3.705822,-0.212459,0.398635,-0.024490,-32.185921,188.570644,1095.116785,91.476742,0
0.035416,21.224270,-166.012891,157.144508,5.947818,0.118175,3.923436,-3.546471,0.011157,-3.842938,3.467446,-0.205153,0.405755,-0.043161,12.318928,188.570707,1094.775748,91.823634,0
0.036458,78.730748,-180.727432,96.034659,4.726338,-1.593060,4.221079,-2.102431,1.709353,-4.140903,2.119022,-0.183235,0.386092,-0.043161,47.006697,188.570645,1095.205573,92.185664,0
0.037500,134.569878,-186.018868,18.354735,3.312588,-2.789503,4.030587,-0.837496,3.017920,-4.031789,0.873776,-0.154011,0.396283,-0.061832,82.452237,188.495276,1094.814392,91.663739,0
0.038541,164.843012,-141.476575,-48.676515,2.034558,-3.417903,3.034473,0.722216,3.635446,-3.070747,-0.648982,-0.139399,0.392625,-0.031958,104.223986,188.436284,1094.837486,90.828472,0
0.039583,191.497888,-62.986941,-100.627273,0.994038,-4.099556,1.911364,2.289392,4.304433,-2.000590,-2.221551,-0.091910,0.376882,-0.028224,121.596146,188.571431,1094.056040,91.301650,0
0.040625,167.315677,2.358668,-155.988069,-0.069102,-3.538612,0.685071,2.908799,3.723664,-0.775156,-2.790806,-0.077298,0.412745,-0.020755,111.530246,188.571089,1093.372002,91.797313,0
0.041666,118.282047,62.883997,-185.668940,-0.600672,-2.725598,-1.092854,3.684924,2.988514,1.004242,-3.534396,-0.040768,0.359766,-0.024490,84.714237,188.480251,1092.112865,92.368306,0
0.042708,45.145604,116.740668,-185.422728,-0.566742,-1.443948,-2.545356,3.744626,1.694650,2.531838,-3.619784,-0.026156,0.405167,-0.050629,37.709878,188.495624,1091.263511,92.391613,0
0.043750,-21.877232,166.236131,-156.702084,-0.046482,-0.080641,-3.763711,3.434922,0.353002,3.706912,-3.356504,-0.033462,0.359505,-0.039427,-6.738421,188.571274,1090.007618,93.607226,0
0.044806,-80.064259,181.107724,-93.905682,1.107138,1.641244,-4.017701,2.002076,-1.389304,4.000681,-2.004522,-0.077298,0.389881,-0.020755,-42.738151,188.571261,1088.802291,93.717084,0
0.045843,-135.563114,185.541416,-17.272159,2.611368,2.827037,-3.870863,0.744604,-2.635383,3.967107,-0.794854,-0.095563,0.398112,-0.046895,-77.030070,188.495743,1087.896581,94.349432,0
0.046875,-164.951533,142.098485,48.725000,3.878088,3.444785,-2.886654,-0.777795,-3.216152,2.976688,0.631842,-0.124787,0.396152,-0.050629,-99.423869,188.571140,1086.254468,94.290622,0
0.047917,-191.731177,64.043764,101.032765,4.873368,4.129989,-1.799262,-2.371090,-3.921896,1.910728,2.239989,-0.190541,0.410067,-0.043161,-115.698959,188.495662,1085.168350,94.851715,0
0.048958,-167.775816,-0.879014,156.159660,5.891268,3.529992,-0.557095,-2.945720,-3.396264,0.685293,2.798571,-0.205153,0.390665,-0.017021,-105.011009,188.511133,1083.802331,94.626217,0
0.050000,-118.844268,-61.899660,185.655872,6.434148,2.823487,1.200987,-3.747965,-2.613329,-1.068924,3.645339,-0.212459,0.395761,-0.017021,-80.875470,188.495846,1082.475500,94.969414,0
0.051042,-46.467773,-116.589912,184.843372,6.422838,1.520534,2.637615,-3.803936,-1.389304,-2.525176,3.688033,-0.197847,0.391514,-0.050629,-32.774041,188.495823,1081.635179,95.057847,0
0.052083,20.305528,-166.447803,156.689016,5.936508,0.164328,3.844064,-3.516620,-0.021925,-3.733824,3.453215,-0.248989,0.404579,-0.046895,10.215268,188.480161,1080.334214,95.740283,0
0.053125,78.674035,-179.942173,97.610417,4.794198,-1.497202,4.121865,-2.143476,1.635838,-4.065363,2.140370,-0.183235,0.398961,-0.024490,47.425167,188.568980,1079.215196,96.387305,0
0.054167,135.148345,-185.596036,19.832008,3.267348,-2.739799,4.026619,-0.912124,2.926027,-3.989822,0.905797,-0.146705,0.403926,-0.050629,82.146867,188.496225,1078.089088,97.054414,0
0.055219,165.455507,-140.642992,-49.008902,1.989318,-3.385950,3.002724,0.744604,3.576634,-3.045566,-0.606288,-0.117481,0.400268,-0.043161,104.212676,188.496134,1077.101962,97.809143,0
0.056252,191.361778,-64.569540,-101.205872,0.982728,-4.017900,1.955018,2.293123,4.249297,-1.954426,-2.185972,-0.084604,0.397459,-0.050629,121.313396,188.496132,1076.247890,97.368014,0
0.057292,167.508499,0.474047,-156.345076,-0.057792,-3.478257,0.716820,2.822977,3.734692,-0.762566,-2.705418,-0.055380,0.409152,-0.058098,109.505756,188.571636,1075.671501,97.350719,0
0.058333,119.473010,62.147062,-185.558145,-0.634602,-2.732699,-1.061106,3.636416,2.922351,1.004242,-3.527280,-0.055380,0.416403,-0.028224,84.465417,188.496114,1075.238018,96.397227,0
0.059375,46.540731,116.933962,-185.016478,-0.634602,-1.401345,-2.509639,3.696118,1.724056,2.452101,-3.584206,-0.037115,0.401313,-0.020755,37.596778,188.437002,1074.383371,97.031384,0
0.060417,-20.674927,166.381102,-156.603599,-0.114342,-0.091292,-3.708151,3.397608,0.323596,3.732092,-3.367177,-0.077298,0.405625,-0.043161,-7.462261,188.496150,1074.793660,96.387696,0
0.061458,-78.907324,180.684892,-96.614015,1.073208,1.612842,-4.009763,1.968494,-1.319465,4.021664,-2.054332,-0.069992,0.403142,-0.043161,-42.511951,188.571453,1075.128118,96.796250,0
0.062500,-135.256867,185.783034,-18.293939,2.543508,2.805735,-3.926423,0.759530,-2.583923,3.954517,-0.794854,-0.091910,0.398178,-0.046895,-77.493780,188.496163,1074.606411,96.822573,0
0.063542,-165.495973,141.868948,49.032765,3.798918,3.458986,-2.870780,-0.830034,-3.175719,2.976688,0.653190,-0.150358,0.395565,-0.009553,-99.254219,188.630474,1074.313447,96.880498,0
0.064583,-191.629094,63.995441,101.168182,4.862058,4.087386,-1.771482,-2.356164,-3.881463,1.902334,2.272010,-0.161317,0.395303,-0.054364,-115.902539,188.571058,1074.020957,96.489434,0
0.065625,-167.685076,-1.483059,156.245834,5.891268,3.519341,-0.537253,-2.949452,-3.418318,0.693687,2.809245,-0.230724,0.406800,-0.031958,-106.074149,188.495897,1074.331225,96.809030,0
0.066676,-117.936868,-63.905090,185.151137,6.411528,2.805735,1.252579,-3.785279,-2.605977,-1.152858,3.638223,-0.197847,0.390796,-0.035692,-81.350490,188.495779,1074.396645,96.471172,0
0.067708,-45.401578,-116.783207,185.151137,6.479388,1.520534,2.673332,-3.815130,-1.367250,-2.529373,3.670244,-0.208806,0.393866,-0.002084,-32.841901,188.495591,1074.148518,96.411406,0
0.068750,21.428435,-166.109538,156.750569,5.891268,0.125275,3.863907,-3.501695,0.022184,-3.742217,3.435426,-0.223418,0.395826,-0.031958,12.454648,188.495622,1074.043252,95.970644,0
0.069792,79.229818,-180.377086,96.207008,4.715028,-1.500752,4.153614,-2.169596,1.657893,-4.107330,2.158159,-0.194194,0.386419,-0.031958,47.436477,188.440085,1074.719267,96.313665,0
0.070833,134.694645,-185.849735,18.034659,3.312588,-2.711397,4.038525,-0.874810,2.973811,-4.031789,0.866660,-0.157664,0.396022,-0.020755,82.508787,188.498280,1075.410925,95.991832,0
0.071875,164.695559,-141.561141,-49.255114,2.034558,-3.329146,3.058284,0.640126,3.587662,-3.108517,-0.574268,-0.121134,0.395499,-0.009553,104.178746,188.495398,1075.996112,96.650150,0
0.072917,191.237010,-63.168155,-101.045834,1.005348,-4.071154,1.982798,2.267003,4.264000,-1.996393,-2.139720,-0.095563,0.384067,-0.039427,121.505666,188.495437,1075.815708,97.819846,0
0.073958,167.565212,2.503639,-156.111175,-0.035172,-3.460506,0.776349,2.767007,3.731016,-0.829713,-2.698302,-0.055380,0.383545,-0.020755,111.541556,188.556648,1075.636781,99.096310,0
0.075000,118.236677,63.173939,-185.533523,-0.611982,-2.778852,-1.021420,3.658804,2.951757,1.008439,-3.520165,-0.051727,0.402162,-0.031958,84.793407,188.495477,1075.634627,99.781409,0
0.076042,44.964124,116.982286,-185.127273,-0.611982,-1.483001,-2.493764,3.688655,1.768165,2.452101,-3.598437,-0.029809,0.370937,-0.039427,38.037868,188.495486,1075.826614,100.657591,0
0.077092,-22.682549,166.501911,-156.271213,-0.046482,-0.094842,-3.731963,3.408802,0.334623,3.723699,-3.384967,-0.033462,0.388248,-0.017021,-7.224751,188.495477,1075.846449,101.490904,0
0.078125,-79.429079,180.274142,-96.761743,1.050588,1.548937,-3.993889,2.106554,-1.279032,3.996484,-2.097026,-0.073645,0.390469,-0.035692,-42.489331,188.495512,1075.563006,102.411689,0
0.079167,-135.268209,185.843438,-18.490909,2.577438,2.731179,-3.914517,0.841620,-2.558193,3.971304,-0.866011,-0.110175,0.405037,-0.031958,-76.385400,188.495398,1075.671545,103.442400,0
0.080208,-165.087643,142.642126,48.934280,3.855468,3.387981,-2.942214,-0.699436,-3.164691,3.064818,0.550012,-0.124787,0.400791,-0.017021,-99.401249,188.358427,1076.066165,105.160527,0
0.081250,-191.515669,64.901508,101.439015,4.907298,4.126439,-1.850854,-2.322582,-3.925572,1.935908,2.207969,-0.175929,0.387791,-0.039427,-115.755509,188.495354,1076.403195,106.011060,0
0.082292,-168.116091,-0.589072,156.565910,5.857338,3.583246,-0.660279,-2.878556,-3.410967,0.744047,2.730972,-0.197847,0.391776,-0.024490,-105.033629,188.495209,1075.753187,106.803282,0
0.083333,-119.366023,-62.092954,185.606629,6.411528,2.876741,1.133521,-3.777816,-2.646411,-1.018564,3.570624,-0.227071,0.393866,-0.005818,-80.807610,188.495351,1074.958007,108.058479,0
0.084375,-47.136980,-116.686560,184.732576,6.456768,1.566688,2.589992,-3.785279,-1.462819,-2.491603,3.666686,-0.219765,0.404971,-0.039427,-32.932381,188.631285,1075.008219,109.012032,0
0.085417,20.010623,-166.616936,156.479735,5.913888,0.199831,3.804378,-3.557665,-0.073385,-3.729627,3.474562,-0.190541,0.403338,-0.058098,10.294438,188.495276,1075.218198,110.179287,0
0.086458,79.025653,-179.736798,97.967425,4.771578,-1.447498,4.145676,-2.180790,1.521890,-4.056969,2.179506,-0.154011,0.407192,-0.039427,47.775777,188.495199,1074.115735,111.390068,0
0.087509,135.999033,-185.124881,18.170076,3.233418,-2.658143,4.010745,-0.930781,2.885593,-4.040183,0.923586,-0.168623,0.403273,-0.061832,82.938567,188.495296,1073.582925,112.977341,0
0.088543,164.843012,-142.261833,-48.651894,1.989318,-3.339796,3.054316,0.643857,3.510471,-3.146287,-0.495995,-0.091910,0.404057,-0.009553,103.511456,188.495325,1072.999026,114.195626,0
0.089583,191.100900,-64.968210,-101.316667,0.994038,-4.056953,2.014547,2.222227,4.219891,-2.071934,-2.146836,-0.102869,0.403404,-0.054364,121.313396,188.495260,1073.140665,114.532058,0
0.090625,167.780719,0.921041,-156.517425,-0.046482,-3.535062,0.768412,2.785664,3.753070,-0.867483,-2.676955,-0.062686,0.406800,-0.061832,109.539686,188.487526,1073.346525,114.847856,0
0.091666,119.302872,62.690703,-185.558145,-0.623292,-2.782403,-1.013483,3.647610,2.973811,0.903522,-3.534396,-0.059033,0.432212,-0.046895,84.397557,188.495508,1073.414902,115.853678,0
0.092708,46.166429,117.006447,-185.250379,-0.600672,-1.529155,-2.485827,3.703581,1.779193,2.418528,-3.584206,-0.077298,0.404710,-0.017021,37.596778,188.495731,1073.181324,115.952597,0
0.093750,-21.230709,166.489830,-156.566667,-0.091722,-0.084191,-3.688308,3.405071,0.360353,3.669142,-3.399198,-0.029809,0.405886,-0.080503,-7.631911,188.495705,1072.787815,116.216168,0
0.094791,-79.417737,180.588245,-96.638637,1.107138,1.559588,-4.037543,2.058047,-1.260653,4.013271,-2.086352,-0.102869,0.402032,-0.020755,-42.953041,188.420390,1072.882071,116.320476,0
0.095833,-135.279552,185.928005,-18.047727,2.532198,2.773783,-3.902612,0.811769,-2.547165,3.983894,-0.833990,-0.102869,0.398047,-0.009553,-77.505090,188.495613,1072.863397,116.178640,0
0.096875,-165.235095,142.219294,49.377462,3.798918,3.434134,-2.962057,-0.744212,-3.223503,3.018655,0.574917,-0.146705,0.397198,-0.031958,-99.163739,188.495649,1073.143117,115.511073,0
0.097925,-191.753862,62.304114,102.313068,4.839438,4.137090,-1.831011,-2.303925,-3.899841,1.902334,2.236431,-0.168623,0.389359,-0.035692,-115.891229,188.495642,1072.710515,115.613986,0
0.098959,-167.707761,-1.990457,156.344319,5.891268,3.583246,-0.600750,-2.941989,-3.403615,0.735654,2.791455,-0.201500,0.387334,-0.050629,-106.051529,188.445478,1073.052889,115.472067,0
0.100000,-118.696816,-63.168155,185.163448,6.411528,2.841238,1.177176,-3.789010,-2.628032,-1.014367,3.620434,-0.219765,0.384198,-0.046895,-81.701100,188.511008,1073.325428,115.622001,0
0.101042,-45.197413,-116.904016,185.077273,6.445458,1.580889,2.605866,-3.822592,-1.404007,-2.516783,3.659570,-0.183235,0.358983,-0.043161,-32.841901,188.496818,1073.156931,115.212041,0
0.102083,21.995560,-166.218266,156.479735,5.868648,0.214032,3.824221,-3.546471,-0.021925,-3.771594,3.471004,-0.208806,0.383153,-0.065566,12.511198,188.478150,1073.510076,114.832726,0
0.103125,79.740230,-180.183791,96.416288,4.771578,-1.426196,4.145676,-2.233029,1.624811,-4.056969,2.197295,-0.183235,0.388967,-0.028224,47.719227,188.485310,1074.119605,114.438695,0
0.104167,134.717330,-185.753088,18.046970,3.357828,-2.661693,4.066305,-0.941975,2.881918,-4.027593,0.934259,-0.146705,0.399419,-0.024490,82.565337,188.523986,1073.905803,114.298846,0
0.105208,164.411996,-141.839002,-49.304356,2.068488,-3.343347,3.074159,0.628932,3.532525,-3.133697,-0.478206,-0.091910,0.398439,-0.020755,104.122196,188.358206,1073.829925,114.497956,0
0.106250,190.998818,-63.228559,-101.390531,0.982728,-4.064053,1.990735,2.203570,4.245621,-2.008983,-2.107700,-0.062686,0.399811,-0.043161,121.426496,188.495830,1073.309202,114.627846,0
0.107292,167.417759,2.322426,-156.209660,-0.091722,-3.517310,0.744600,2.830440,3.760422,-0.821319,-2.676955,-0.073645,0.406604,-0.039427,111.496316,188.420386,1073.177401,114.478501,0
0.108341,117.782977,64.067926,-185.275001,-0.623292,-2.800154,-0.973797,3.673730,3.028948,0.987455,-3.545070,-0.033462,0.397394,-0.043161,84.533277,188.495689,1073.802737,114.614445,0
0.109375,45.474536,117.151418,-184.917993,-0.634602,-1.507853,-2.481859,3.725969,1.790220,2.401741,-3.641131,-0.018850,0.386158,-0.028224,38.399788,188.495718,1074.229582,115.229623,0
0.110417,-21.378162,166.598558,-156.308144,-0.069102,-0.133895,-3.700214,3.468504,0.422841,3.660749,-3.420545,-0.077298,0.390600,-0.050629,-6.093751,188.495604,1074.250477,116.206463,0
