1-Time,2-VGERA,3-VGERB,4-VGERC,5-VN,6-IGERAN,7-IGERBN,8-IGERCN,9-IGERAT,10-IGERBT,11-IGERCT,12-IN,13-IFD,14-IFAULT,15-VFAULT,16-Speed (rad/s),17-Active Power,18-Reactive Power,19-FAULT 
0.000000,-60.827378,-89.093775,201.795076,6.750828,-0.322060,6.129968,-5.050213,0.643386,-5.962268,4.965300,-0.245336,0.290653,-0.050629,0.036268,188.269496,1502.569551,-923.004085,0
0.001042,-14.822196,-154.523951,163.927652,6.015678,-2.793054,6.483172,-2.878556,3.091435,-6.390331,2.990695,-0.183235,0.301823,-0.031958,5.589478,188.344948,1502.989553,-923.019858,0
0.002083,33.530883,-206.713456,96.576326,4.748958,-5.061681,6.050597,-0.333762,5.340994,-5.949678,0.489529,-0.161317,0.303195,-0.046895,16.956028,188.420330,1503.571172,-922.479709,0
0.003125,106.361079,-183.614768,45.524243,3.798918,-6.272326,4.629844,2.192376,6.645886,-4.627720,-1.954712,-0.077298,0.301170,-0.017021,23.866438,188.420278,1503.054068,-922.417933,0
0.004167,177.705407,-135.641498,-2.684091,2.871498,-6.698360,2.709049,4.237167,7.039191,-2.735011,-4.025379,-0.051727,0.306265,-0.039427,28.164238,188.269593,1502.490029,-922.906245,0
0.005208,194.288143,-75.514839,-61.405682,1.740498,-5.778838,0.014381,5.699864,6.142308,-0.091095,-5.448518,-0.015197,0.313386,-0.043161,25.381978,188.430705,1502.199049,-923.285690,0
0.006250,172.657994,-24.992498,-144.723864,0.157098,-4.472335,-2.275492,6.513302,4.855795,2.238070,-6.263265,0.003068,0.309989,-0.043161,14.999398,188.420112,1501.827842,-922.732084,0
0.007292,121.446605,23.947244,-189.989963,-0.679842,-2.221459,-4.081198,5.867775,2.668724,4.009074,-5.683336,-0.011544,0.339777,-0.050629,5.872228,188.420030,1501.488647,-922.378899,0
0.008333,60.888994,88.857941,-201.746592,-0.939972,0.437700,-5.930558,4.923739,-0.029276,5.935356,-4.843684,-0.026156,0.327888,-0.028224,4.956118,188.269326,1501.486338,-921.861678,0
0.009375,14.430112,154.191470,-164.433144,-0.182202,2.908693,-6.291699,2.796858,-2.495705,6.409582,-2.833500,-0.037115,0.305481,-0.028224,-0.947702,188.420112,1501.195955,-921.554059,0
0.010417,-33.299130,206.489703,-96.675568,1.084518,5.138268,-5.859123,0.173705,-4.682776,5.977323,-0.310987,-0.128440,0.298753,-0.024490,-11.929711,188.420128,1500.552433,-920.964001,0
0.011458,-106.299463,184.490377,-45.377273,2.011938,6.363114,-4.414559,-2.296462,-6.031776,4.613398,2.115465,-0.157664,0.299080,-0.013287,-18.806191,188.420130,1499.749949,-920.956603,0
0.012500,-177.564393,135.997629,2.474053,2.905428,6.824650,-2.489796,-4.337521,-6.414054,2.712296,4.122090,-0.223418,0.305155,-0.058098,-23.273641,188.269250,1498.381710,-920.047971,0
0.013542,-194.929762,76.172992,61.220265,4.059048,5.844773,0.157250,-5.811413,-5.587011,0.097757,5.573692,-0.230724,0.311687,-0.028224,-18.851431,188.420079,1497.978795,-919.492095,0
0.014587,-172.732488,25.034525,145.227841,5.665068,4.559573,2.522526,-6.647239,-4.238010,-2.311145,6.402670,-0.256295,0.322401,-0.046895,-10.753471,188.424874,1497.098193,-919.446689,0
0.015625,-122.042854,-23.373657,189.976895,6.513318,2.337098,4.225048,-5.923354,-2.153860,-4.023396,5.840530,-0.267254,0.311491,-0.028224,-0.823292,188.419898,1497.641386,-918.496243,0
0.016666,-61.167653,-88.320597,201.893561,6.762138,-0.272356,6.074408,-5.027825,0.636034,-5.874137,4.919048,-0.230724,0.311230,-0.028224,0.217228,188.269100,1496.303895,-917.950104,0
0.017708,-14.481921,-154.089038,164.986364,6.083538,-2.729149,6.487141,-2.927064,3.021596,-6.348364,2.972906,-0.201500,0.334290,-0.020755,5.600788,188.344580,1495.844067,-917.259826,0
0.018750,33.088526,-206.157735,97.117993,4.737648,-4.972924,5.987099,-0.326299,5.249101,-5.920301,0.485971,-0.146705,0.306396,-0.031958,17.317948,188.419956,1494.833707,-916.520609,0
0.019792,105.771269,-184.629564,45.893561,3.787608,-6.243924,4.574283,2.158794,6.601777,-4.673883,-1.887113,-0.099216,0.298492,-0.024490,23.685478,188.495298,1495.277723,-915.776305,0
0.020833,176.911432,-135.979763,-2.154735,2.848878,-6.627354,2.685238,4.203584,7.002434,-2.772781,-3.950664,-0.073645,0.306788,-0.013287,28.254718,188.269048,1494.776982,-914.742858,0
0.021875,194.787213,-76.227612,-60.777841,1.740498,-5.725583,0.058035,5.658819,6.153335,-0.095291,-5.409381,-0.011544,0.312863,-0.069301,25.947478,188.344350,1494.698949,-914.787532,0
0.022916,172.578597,-25.415330,-144.219129,0.191028,-4.493637,-2.295335,6.490914,4.826389,2.212890,-6.227686,0.006721,0.319461,-0.054364,14.818438,188.419904,1493.841482,-914.490942,0
0.023961,121.957017,23.923082,-189.953031,-0.600672,-2.232110,-4.081198,5.819267,2.701806,4.004877,-5.694009,-0.000585,0.318220,-0.050629,5.951398,188.495483,1494.281231,-914.441777,0
0.025000,61.172557,88.265977,-201.648107,-0.917352,0.409297,-5.902778,4.901350,-0.051331,5.905979,-4.818779,-0.033462,0.331023,-0.005818,5.001358,188.269013,1493.441513,-914.606785,0
0.026042,14.350715,154.131065,-165.036364,-0.182202,2.873190,-6.331385,2.808052,-2.488353,6.376009,-2.833500,-0.080951,0.322531,-0.039427,-1.253072,188.419956,1493.220706,-914.503830,0
0.027083,-33.276445,206.054791,-97.106440,1.073208,5.134718,-5.859123,0.211018,-4.704831,5.964733,-0.375028,-0.124787,0.308748,-0.039427,-11.861851,188.419978,1493.485121,-914.262216,0
0.028125,-105.834420,185.009856,-45.931250,2.011938,6.373765,-4.434402,-2.259148,-6.024425,4.667955,2.051423,-0.154011,0.299080,-0.020755,-19.349071,188.495356,1494.165079,-913.763723,0
0.029167,-176.895186,136.613755,2.523295,2.928048,6.824650,-2.557262,-4.318865,-6.421406,2.754263,4.129206,-0.216112,0.306592,-0.005818,-23.024821,188.292812,1494.468951,-913.801479,0
0.030208,-195.179297,76.704552,60.789394,4.025118,5.901578,0.141375,-5.818875,-5.609065,0.139723,5.577249,-0.234377,0.312406,-0.039427,-20.638411,188.290688,1494.939927,-913.782567,0
0.031250,-173.254243,26.037240,143.922917,5.585898,4.609277,2.466965,-6.643508,-4.289471,-2.206228,6.413343,-0.259948,0.320963,-0.028224,-11.047531,188.440695,1495.281580,-913.080075,0
0.032292,-122.587294,-22.974987,189.779925,6.456768,2.386802,4.193299,-5.990518,-2.142833,-4.027593,5.829857,-0.263601,0.308225,-0.024490,-0.755432,188.438734,1494.979436,-913.475619,0
0.033333,-61.621353,-87.656147,201.856629,6.716898,-0.279457,6.110125,-5.061407,0.658089,-5.890924,4.979531,-0.256295,0.284839,-0.073035,-0.020282,188.290542,1495.422172,-914.087689,0
0.034375,-14.447894,-153.678288,165.331061,6.049608,-2.743350,6.467298,-2.941989,3.025272,-6.369347,3.004926,-0.179582,0.291828,-0.035692,5.612098,188.479151,1495.856907,-914.200148,0
0.035417,32.668853,-205.746984,97.647349,4.794198,-4.955173,6.010911,-0.374807,5.238073,-5.941284,0.514434,-0.128440,0.296401,-0.050629,16.876858,188.420390,1496.001749,-914.139862,0
0.036458,105.272199,-184.955748,46.189015,3.798918,-6.229723,4.641749,2.117749,6.605453,-4.694867,-1.865766,-0.091910,0.300843,-0.046895,23.662858,188.444807,1496.201749,-914.150677,0
0.037500,175.935977,-136.897912,-2.203977,2.882808,-6.634455,2.732861,4.170002,6.987731,-2.781175,-3.936433,-0.037115,0.307572,-0.035692,28.164238,188.283251,1495.878805,-914.155338,0
0.038553,194.356198,-75.249059,-61.811932,1.729188,-5.679430,0.042161,5.636430,6.149659,-0.137258,-5.409381,-0.022503,0.312928,-0.046895,25.427218,188.424511,1496.269188,-913.100623,0
0.039593,172.680679,-24.883770,-144.477652,0.168408,-4.443933,-2.259618,6.505840,4.826389,2.208693,-6.220570,0.014027,0.303195,-0.069301,14.976778,188.434495,1496.415429,-912.824737,0
0.040632,122.183867,23.886839,-189.669887,-0.657222,-2.196607,-4.041512,5.785685,2.642994,3.975501,-5.622852,0.024986,0.314431,-0.046895,5.826988,188.496179,1494.973730,-912.741980,0
0.041670,61.320009,87.903550,-201.672728,-0.883422,0.423498,-5.851186,4.867768,-0.010898,5.826242,-4.768969,-0.004238,0.288432,-0.046895,4.990048,188.345021,1493.949412,-911.774915,0
0.042712,14.294002,153.575344,-165.319508,-0.216132,2.858989,-6.244076,2.804321,-2.447920,6.308862,-2.829942,-0.084604,0.305743,-0.035692,-0.925082,188.344876,1493.140167,-911.024727,0
0.043754,-32.845430,205.474907,-97.131061,1.050588,5.092114,-5.807532,0.211018,-4.620288,5.897586,-0.350123,-0.128440,0.304959,-0.035692,-11.907091,188.420316,1491.555998,-910.273471,0
0.044796,-105.709653,185.348121,-45.672727,2.034558,6.299209,-4.374873,-2.247954,-5.983992,4.617595,2.012287,-0.179582,0.298688,-0.009553,-18.715711,188.495787,1490.924403,-909.638219,0
0.045844,-176.759076,136.190923,3.151136,2.939358,6.757195,-2.481859,-4.281551,-6.384648,2.729083,4.072280,-0.238030,0.304567,-0.039427,-23.296261,188.344825,1490.302088,-908.619750,0
0.046889,-195.054529,76.028021,61.700379,4.059048,5.784419,0.173124,-5.766636,-5.546577,0.122937,5.513208,-0.252642,0.311818,-0.013287,-18.896671,188.344838,1489.420343,-907.617084,0
0.047922,-173.016051,25.868108,143.824432,5.608518,4.538271,2.466965,-6.539030,-4.208604,-2.193638,6.317282,-0.259948,0.311753,-0.024490,-10.606441,188.420370,1487.651879,-906.905434,0
0.048972,-122.383129,-23.917298,189.878410,6.490698,2.326448,4.193299,-5.867383,-2.102400,-3.973036,5.758700,-0.245336,0.309140,-0.013287,-0.800672,188.495747,1486.641539,-906.002449,0
0.050005,-61.780148,-87.160830,201.659660,6.705588,-0.283007,5.999005,-4.971854,0.591925,-5.823777,4.887027,-0.245336,0.297708,-0.054364,0.160678,188.345023,1485.221752,-904.906665,0
0.051045,-14.413866,-153.412508,166.266667,6.128778,-2.700746,6.407769,-2.930795,3.051002,-6.335774,2.990695,-0.197847,0.289803,-0.035692,5.612098,188.344985,1484.797671,-905.381678,0
0.052086,32.555428,-205.094615,97.696591,4.805508,-4.926771,5.939476,-0.397195,5.190289,-5.857351,0.500202,-0.121134,0.295879,-0.039427,17.204848,188.420354,1483.309755,-904.806467,0
0.053125,104.716416,-186.055110,46.484470,3.821538,-6.144516,4.590158,2.046852,6.539289,-4.657096,-1.815956,-0.095563,0.300386,-0.054364,23.674168,188.495703,1482.654341,-904.270651,0
0.054166,174.699644,-137.332825,-1.773106,2.905428,-6.549248,2.724923,4.140151,6.973028,-2.772781,-3.865276,-0.040768,0.305416,0.001650,28.164238,188.345010,1481.816894,-903.687683,0
0.055217,195.138830,-76.215531,-61.122538,1.763118,-5.668779,0.050098,5.561803,6.134956,-0.145652,-5.320435,-0.018850,0.313778,-0.054364,25.992718,188.345057,1481.307576,-903.310917,0
0.056250,172.703364,-26.128103,-142.951137,0.213648,-4.411980,-2.223901,6.405093,4.793308,2.149939,-6.131624,0.035945,0.329129,-0.024490,14.739268,188.420419,1479.534737,-902.614612,0
0.057291,123.658392,22.944529,-189.583713,-0.691152,-2.278263,-3.981983,5.785685,2.734888,3.895763,-5.651315,-0.011544,0.324034,-0.035692,5.906158,188.495694,1480.356435,-901.999629,0
0.058333,62.091300,86.695459,-201.401895,-0.906042,0.402197,-5.811500,4.908813,0.011157,5.809455,-4.744064,-0.022503,0.296858,-0.002084,5.046598,188.420323,1479.547906,-902.100208,0
0.059375,14.259975,153.261240,-166.439773,-0.261372,2.834137,-6.255982,2.811783,-2.411163,6.359222,-2.858405,-0.055380,0.291894,-0.031958,-1.196522,188.338610,1480.436594,-902.220131,0
0.060416,-32.346360,204.484273,-98.091288,1.039278,5.077913,-5.783720,0.274452,-4.550449,5.910176,-0.385702,-0.091910,0.281246,-0.069301,-11.669581,188.420748,1480.114658,-901.564308,0
0.061458,-104.779568,186.362917,-46.460606,2.000628,6.313410,-4.402653,-2.184521,-5.943558,4.688938,1.990940,-0.172276,0.297904,-0.043161,-19.247281,188.496073,1480.526886,-901.497449,0
0.062500,-174.615343,137.990978,1.920076,2.871498,6.750094,-2.569167,-4.240506,-6.358918,2.754263,4.054491,-0.197847,0.305220,-0.035692,-23.024821,188.420788,1479.598683,-901.965671,0
0.063541,-196.109382,77.973047,59.570644,4.013808,5.841223,0.073909,-5.665889,-5.590686,0.169100,5.459841,-0.238030,0.311426,-0.013287,-20.943781,188.270018,1479.796560,-902.329054,0
0.064583,-173.344983,26.834580,142.470266,5.597208,4.591525,2.387594,-6.546492,-4.238010,-2.147474,6.320839,-0.245336,0.318938,-0.039427,-10.821331,188.420803,1479.676044,-902.239311,0
0.065625,-124.005106,-22.165567,189.373675,6.479388,2.408104,4.113928,-5.908428,-2.186942,-3.922675,5.826299,-0.245336,0.299602,-0.028224,-0.744122,188.420768,1480.602807,-902.391762,0
0.066666,-62.676206,-86.073549,201.610417,6.694278,-0.261705,6.018848,-4.997974,0.606628,-5.798597,4.879912,-0.230724,0.271251,-0.031958,-0.076832,188.496080,1479.868680,-902.852801,0
0.067708,-14.640716,-152.735977,166.759091,6.072228,-2.622640,6.431581,-2.960646,3.010569,-6.348364,2.997811,-0.216112,0.275497,-0.050629,5.555548,188.269894,1479.880794,-902.708136,0
0.068751,32.147098,-204.345599,98.398296,4.816818,-4.877067,5.935508,-0.359881,5.105746,-5.878334,0.507318,-0.117481,0.289869,-0.069301,16.775068,188.496150,1479.497587,-902.072764,0
0.069792,104.069894,-186.453780,46.779924,3.821538,-6.112564,4.606032,2.043121,6.502532,-4.627720,-1.805283,-0.091910,0.300582,-0.050629,23.538448,188.420674,1478.775550,-902.021678,0
0.070833,173.542709,-138.202650,-1.760795,2.860188,-6.545698,2.748735,4.091643,6.906864,-2.760191,-3.843929,-0.037115,0.305939,-0.035692,28.164238,188.496174,1477.646557,-901.816619,0
0.071879,195.615215,-77.194084,-59.669887,1.785738,-5.668779,0.117564,5.569266,6.109226,-0.191815,-5.274183,-0.018850,0.309662,-0.031958,25.958788,188.270101,1477.102405,-901.595724,0
0.072930,172.578597,-25.330764,-143.628220,0.213648,-4.344525,-2.287398,6.371510,4.730820,2.179316,-6.142298,0.003068,0.320114,-0.054364,14.965468,188.420815,1476.802380,-901.866244,0
0.073961,123.930612,22.594183,-189.239016,-0.668532,-2.214358,-3.918486,5.744640,2.716509,3.954517,-5.629968,0.006721,0.335727,-0.046895,5.860918,188.420821,1476.375167,-902.740177,0
0.075000,62.522315,85.535693,-201.303410,-0.939972,0.370244,-5.724192,4.830454,0.044239,5.759095,-4.687138,-0.018850,0.330436,-0.069301,5.057908,188.496147,1475.109528,-902.338805,0
0.076042,14.498167,152.620952,-167.313826,-0.250062,2.759582,-6.176610,2.819246,-2.322945,6.275288,-2.840616,-0.037115,0.297642,-0.061832,-0.778052,188.269915,1474.063367,-901.334925,0
0.077083,-31.824605,203.312426,-98.645265,1.016658,4.939452,-5.696412,0.293109,-4.458555,5.826242,-0.382144,-0.128440,0.293200,-0.024490,-11.680891,188.420566,1472.211208,-900.426382,0
0.078125,-104.223785,187.413956,-46.485227,2.023248,6.235304,-4.434402,-2.098700,-5.881071,4.651168,1.934014,-0.168623,0.298034,-0.069301,-18.512131,188.420793,1471.636123,-899.723805,0
0.079167,-172.879941,138.595023,2.104735,2.905428,6.661337,-2.529482,-4.177073,-6.230267,2.800427,3.944198,-0.216112,0.305220,-0.054364,-23.239711,188.496089,1470.126207,-897.628299,0
0.080208,-196.926042,78.758305,59.164394,4.002498,5.816371,0.018349,-5.658426,-5.539226,0.223657,5.427820,-0.227071,0.312471,-0.043161,-19.620511,188.269814,1469.901665,-897.245620,0
0.081250,-173.413038,27.317816,141.189963,5.518038,4.563123,2.339971,-6.438283,-4.175523,-2.097114,6.214104,-0.248989,0.316652,-0.069301,-10.482031,188.420737,1467.867032,-896.329402,0
0.082292,-124.753711,-21.718573,189.422917,6.468078,2.397453,4.050430,-5.841264,-2.179590,-3.863922,5.744468,-0.227071,0.325405,-0.039427,-0.857222,188.420806,1466.768878,-895.854015,0
0.083333,-63.197961,-84.877539,201.278031,6.682968,-0.243954,5.915665,-4.953198,0.577222,-5.697876,4.822986,-0.227071,0.288823,-0.031958,0.160678,188.496159,1465.081669,-895.004447,0
0.084375,-14.822196,-152.458116,167.780872,6.083538,-2.633291,6.348240,-2.912138,2.944405,-6.285413,3.008484,-0.205153,0.308290,-0.061832,5.510308,188.269987,1464.693112,-894.244328,0
0.085417,31.477891,-202.775082,99.247728,4.816818,-4.784760,5.860105,-0.404658,5.054286,-5.827974,0.528665,-0.154011,0.288562,-0.031958,16.876858,188.345319,1463.369622,-893.714740,0
0.086458,103.684249,-187.577304,46.804546,3.798918,-6.034458,4.542535,2.002076,6.473126,-4.640310,-1.773262,-0.069992,0.297381,-0.046895,23.617618,188.420745,1463.589253,-893.437423,0
0.087500,171.943417,-138.782533,-1.625379,2.837568,-6.485343,2.748735,4.017016,6.844376,-2.718224,-3.758540,-0.055380,0.305024,-0.020755,27.892798,188.496127,1461.918642,-892.622998,0
0.088542,196.602013,-78.607550,-58.697349,1.797048,-5.636826,0.145344,5.483444,6.134956,-0.254766,-5.242163,-0.029809,0.309989,-0.050629,26.546908,188.269908,1462.494269,-892.600189,0
0.089583,173.077667,-27.167061,-141.092235,0.258888,-4.383578,-2.152466,6.296883,4.745523,2.066005,-6.032004,-0.026156,0.319853,-0.046895,14.694028,188.420736,1460.857233,-891.355623,0
0.090625,124.826670,22.171351,-189.337501,-0.589362,-2.242760,-3.874832,5.737177,2.764294,3.853797,-5.601505,0.010374,0.324360,-0.058098,5.906158,188.420759,1460.768098,-890.263214,0
0.091667,63.338975,85.016214,-201.069508,-0.849492,0.370244,-5.716254,4.822992,0.036887,5.696145,-4.665791,-0.029809,0.301627,-0.031958,5.125768,188.496016,1459.818390,-890.130299,0
0.092708,14.668305,152.367253,-168.052463,-0.261372,2.798635,-6.148830,2.826709,-2.330296,6.317255,-2.879752,-0.059033,0.281246,-0.039427,-1.083422,188.269781,1460.621681,-890.585857,0
0.093750,-31.495672,202.587571,-99.211553,0.994038,4.974955,-5.744035,0.308034,-4.447528,5.838832,-0.385702,-0.088257,0.281050,-0.035692,-11.432071,188.345362,1460.407477,-890.677063,0
0.094792,-103.668003,187.885111,-46.756061,2.011938,6.253055,-4.418528,-2.121088,-5.866368,4.684742,1.909109,-0.161317,0.299145,-0.024490,-19.179421,188.420667,1460.659863,-890.497981,0
0.095833,-172.006568,139.307796,1.821591,2.928048,6.650687,-2.565199,-4.180804,-6.270700,2.813017,3.947756,-0.208806,0.305155,-0.031958,-22.934341,188.495007,1460.878588,-890.987021,0
0.096875,-196.982754,79.048247,58.671970,4.013808,5.830572,-0.013399,-5.636038,-5.531874,0.244641,5.442051,-0.241683,0.310315,-0.035692,-21.169981,188.269977,1460.861960,-891.137642,0
0.097917,-173.549148,27.740648,140.808334,5.551968,4.499218,2.296316,-6.475596,-4.201253,-2.076130,6.221220,-0.259948,0.325014,-0.050629,-10.662991,188.269921,1461.081792,-891.079350,0
0.098958,-125.241439,-21.416551,189.213637,6.422838,2.415205,4.054399,-5.848726,-2.223699,-3.863922,5.808510,-0.252642,0.327888,-0.054364,-0.755432,188.420638,1462.080590,-891.248367,0
0.100000,-63.640318,-84.454708,201.154925,6.649038,-0.208451,5.887885,-4.930809,0.580898,-5.651713,4.833660,-0.201500,0.282226,-0.084238,-0.110762,188.496058,1461.699910,-891.067877,0
0.101042,-14.912936,-152.011123,168.260985,6.083538,-2.633291,6.352209,-2.938258,2.955433,-6.331577,3.012042,-0.172276,0.276477,-0.080503,5.544238,188.345328,1462.062358,-891.663575,0
0.102083,31.126273,-202.279765,99.789394,4.839438,-4.788310,5.891853,-0.423314,5.039583,-5.815384,0.564243,-0.132093,0.292547,-0.050629,16.616728,188.269881,1461.876529,-891.410757,0
0.103125,102.946986,-187.963893,47.260038,3.832848,-6.084162,4.594126,1.949837,6.498856,-4.661293,-1.762588,-0.080951,0.298753,-0.028224,23.391418,188.420632,1462.114631,-891.836434,0
0.104167,170.843194,-139.628196,-1.502273,2.894118,-6.499544,2.748735,3.998359,6.844376,-2.772781,-3.794119,-0.037115,0.305939,-0.046895,28.073758,188.496087,1462.317328,-892.217393,0
0.105208,196.874233,-79.356566,-58.143371,1.808358,-5.640377,0.188998,5.457325,6.127605,-0.233782,-5.235047,-0.040768,0.311295,-0.050629,26.445118,188.345091,1462.002124,-892.770547,0
0.106250,173.349887,-27.662378,-140.021213,0.258888,-4.394229,-2.088969,6.270763,4.738171,2.036629,-5.999984,-0.022503,0.313320,-0.069301,14.999398,188.269729,1461.313121,-892.523831,0
0.107292,125.427822,21.651872,-189.251326,-0.623292,-2.327967,-3.847051,5.703595,2.786348,3.824420,-5.601505,-0.040768,0.326581,-0.031958,5.849608,188.420564,1461.355572,-892.409967,0
0.108333,63.747305,84.001418,-200.995645,-0.860802,0.313440,-5.648789,4.800603,0.073645,5.612211,-4.658676,-0.000585,0.307310,-0.054364,5.091838,188.495989,1460.544346,-891.587077,0
0.109375,14.849785,152.089393,-168.754167,-0.261372,2.756031,-6.121050,2.871485,-2.286187,6.258502,-2.872637,-0.062686,0.287648,-0.046895,-0.653642,188.269903,1459.941183,-891.078431,0
0.110417,-30.849150,201.403643,-100.011743,1.016658,4.889749,-5.696412,0.326691,-4.392392,5.792669,-0.456859,-0.088257,0.310054,-0.050629,-11.466001,188.269924,1459.187980,-890.108729,0
