1-Time,2-VGERA,3-VGERB,4-VGERC,5-VN,6-IGERAN,7-IGERBN,8-IGERCN,9-IGERAT,10-IGERBT,11-IGERCT,12-IN,13-IFD,14-IFAULT,15-VFAULT,16-Speed (rad/s),17-Active Power,18-Reactive Power,19-FAULT 
0.000000,-84.147559,-50.966442,199.505304,6.649038,-1.568208,5.864073,-3.539008,1.966656,-5.714663,3.567066,-0.219765,0.190509,-0.005818,-9.973081,188.495676,990.781988,-1286.156570,0
0.001042,-37.700020,-137.054964,175.081061,6.207948,-3.748078,6.193466,-1.766608,4.212539,-6.058792,1.795258,-0.172276,0.178816,-0.069301,-4.657381,188.344900,989.162118,-1285.583511,0
0.002083,3.790847,-185.728926,117.307387,5.167428,-5.196592,4.927487,0.864008,5.627703,-4.942472,-0.620520,-0.110175,0.184826,-0.050629,-13.761931,188.495562,989.884792,-1285.899000,0
0.003125,74.171063,-196.094342,62.759091,4.126908,-6.449840,3.482923,3.267010,6.925243,-3.486219,-3.043413,-0.051727,0.173394,-0.028224,-19.688371,188.420191,988.896726,-1286.194973,0
0.004167,145.107061,-155.272967,19.117992,3.278658,-6.059310,1.272422,4.890156,6.620156,-1.341709,-4.594634,-0.026156,0.181952,-0.046895,-7.835491,188.495598,988.575010,-1286.641224,0
0.005208,197.883715,-92.512671,-29.582765,2.362548,-4.845114,-1.196037,5.908820,5.381428,1.121750,-5.654873,-0.011544,0.191555,-0.028224,1.947658,188.344795,987.716804,-1287.328838,0
0.006250,179.599605,-46.629397,-108.013637,0.892248,-3.109028,-3.223984,5.983448,3.672204,3.157146,-5.768724,-0.007891,0.200439,-0.058098,17.555458,188.495638,987.850609,-1286.864700,0
0.007292,134.433768,-5.071088,-183.453031,-0.555432,-1.074719,-4.736014,5.270756,1.580702,4.760282,-5.171006,-0.007891,0.187308,-0.039427,25.189708,188.418223,988.739352,-1286.784338,0
0.008333,82.938815,51.286330,-199.973864,-0.849492,1.719350,-5.724192,3.490893,-1.076865,5.721325,-3.420545,-0.091910,0.159153,-0.050629,14.739268,188.495381,989.128913,-1286.523646,0
0.009375,36.967661,137.145314,-175.217235,-0.464952,3.899221,-6.093270,1.610282,-3.344803,6.094831,-1.652295,-0.077298,0.181299,-0.061832,9.740248,188.344435,988.795403,-1286.675714,0
0.010417,-3.729231,186.024652,-117.160417,0.654738,5.361936,-4.783637,-0.975557,-4.759967,4.961723,0.823966,-0.146705,0.168038,-0.024490,18.426328,188.419826,989.504646,-1286.905408,0
0.011458,-74.483749,196.088045,-63.166099,1.706568,6.593882,-3.358916,-3.445724,-6.083237,3.560028,3.197050,-0.179582,0.173721,-0.050629,24.217048,188.421164,990.513322,-1287.495385,0
0.012500,-145.703310,155.568693,-19.463447,2.520888,6.256606,-1.164289,-4.949466,-5.807556,1.423911,4.758945,-0.248989,0.187178,-0.039427,12.850498,188.497444,991.307189,-1287.879234,0
0.013542,-198.230429,93.835274,29.840530,3.448308,5.035310,1.316076,-6.042758,-4.583531,-1.106694,5.822741,-0.252642,0.195213,-0.046895,2.219098,188.344936,991.452288,-1288.813430,0
0.014583,-179.855579,47.976162,108.320644,4.907298,3.281472,3.443237,-6.136042,-2.885334,-3.158877,5.961497,-0.285519,0.204228,-0.046895,-12.370801,188.420213,992.159461,-1289.008872,0
0.015625,-135.461032,5.777564,183.476894,6.343668,1.193909,4.860021,-5.404693,-0.841617,-4.736834,5.367337,-0.252642,0.212916,-0.061832,-21.905131,188.420213,993.236659,-1289.439966,0
0.016667,-84.192929,-50.785228,199.665342,6.660348,-1.518504,5.907728,-3.621098,1.911520,-5.718860,3.627549,-0.227071,0.200177,-0.024490,-10.945741,188.495638,994.266773,-1289.126340,0
0.017708,-37.586595,-136.813346,175.364205,6.241878,-3.755179,6.252994,-1.740488,4.190485,-6.138529,1.837953,-0.175929,0.191359,-0.054364,-5.471701,188.345019,995.413606,-1289.381379,0
0.018750,3.473257,-185.644360,117.159659,5.156118,-5.200142,4.911613,0.808038,5.649757,-4.950865,-0.620520,-0.113828,0.189791,-0.069301,-13.999441,188.420401,995.411346,-1289.645674,0
0.019792,73.887500,-196.251393,62.869887,4.138218,-6.478242,3.530546,3.248354,6.939946,-3.544973,-3.064760,-0.048074,0.177510,-0.039427,-19.349071,188.420779,995.941520,-1290.064685,0
0.020833,144.766786,-155.164239,19.536553,3.301278,-6.087712,1.304170,4.856574,6.664265,-1.383676,-4.630213,-0.007891,0.184238,-0.050629,-7.643221,188.504871,996.457118,-1290.576173,0
0.021875,197.838345,-92.790532,-29.176515,2.385168,-4.898369,-1.136509,5.882701,5.392455,1.079783,-5.683336,-0.000585,0.192861,-0.069301,1.868488,188.422365,996.809136,-1290.695431,0
0.022917,179.554235,-46.943501,-107.533523,0.892248,-3.119679,-3.220015,5.979716,3.672204,3.186522,-5.825649,0.003068,0.201941,-0.046895,18.765628,188.428733,996.874582,-1291.556640,0
0.023958,134.830755,-5.385191,-183.256061,-0.555432,-1.103121,-4.720140,5.341652,1.646866,4.735102,-5.217258,-0.029809,0.193188,-0.020755,26.241538,188.431819,997.813843,-1291.326466,0
0.025000,83.823530,50.960145,-199.924622,-0.872112,1.641244,-5.708317,3.513281,-1.065838,5.708735,-3.459681,-0.073645,0.191751,-0.069301,14.784508,188.509522,998.058607,-1291.491713,0
0.026042,37.602841,136.867454,-175.364963,-0.431022,3.842416,-6.053584,1.673715,-3.308046,6.132601,-1.673642,-0.091910,0.188223,-0.058098,9.627148,188.281124,998.464725,-1291.547524,0
0.027083,-3.411641,185.734710,-117.702084,0.666048,5.298031,-4.755857,-0.930781,-4.737912,4.949133,0.752809,-0.150358,0.182997,-0.058098,18.109648,188.433874,998.685180,-1290.945472,0
0.028125,-73.859911,196.196773,-63.313826,1.650018,6.615184,-3.358916,-3.393485,-6.042804,3.534848,3.218397,-0.208806,0.175550,-0.061832,23.775958,188.437425,997.819551,-1290.920947,0
0.029167,-145.351692,156.172738,-19.746591,2.520888,6.210452,-1.164289,-4.953198,-5.822259,1.415518,4.790965,-0.259948,0.187243,-0.050629,12.171898,188.520983,997.669332,-1291.673626,0
0.030208,-198.105662,93.859435,29.409659,3.459618,5.088564,1.288296,-6.024101,-4.546773,-1.064727,5.797836,-0.274560,0.196258,-0.050629,2.264338,188.288369,997.304855,-1290.982081,0
0.031250,-180.286594,48.024486,107.680493,4.929918,3.285023,3.375771,-6.068877,-2.929443,-3.171467,5.972170,-0.259948,0.204358,-0.043161,-11.737441,188.441793,997.657680,-1291.265536,0
0.032292,-135.517744,6.152072,183.378410,6.354978,1.229412,4.871927,-5.397231,-0.815887,-4.732637,5.392241,-0.238030,0.214484,-0.054364,-21.509281,188.442775,997.524726,-1291.577450,0
0.033333,-84.317697,-50.326154,199.948485,6.694278,-1.500752,5.875979,-3.602442,1.885789,-5.697876,3.641781,-0.223418,0.202203,-0.058098,-10.029631,188.505423,997.639244,-1291.323719,0
0.034375,-37.529882,-136.583809,175.388826,6.275808,-3.737428,6.245057,-1.822578,4.150051,-6.146922,1.869973,-0.194194,0.193710,-0.046895,-4.600831,188.420242,998.092453,-1290.819913,0
0.035417,3.507284,-185.789331,117.467425,5.190048,-5.189491,4.943362,0.774455,5.624027,-4.967652,-0.560036,-0.124787,0.185545,-0.065566,-13.705381,188.495740,998.792140,-1290.290970,0
0.036458,73.411115,-196.335960,62.931440,4.138218,-6.439189,3.562295,3.237159,6.870107,-3.591136,-3.029182,-0.077298,0.177052,-0.058098,-19.699681,188.420169,998.915233,-1289.323904,0
0.037500,144.664703,-155.816608,19.462689,3.312588,-6.094812,1.375605,4.864037,6.682643,-1.488593,-4.566172,-0.026156,0.189334,-0.046895,-7.880731,188.495655,1000.224345,-1288.421875,0
0.038542,197.758948,-92.935502,-28.856439,2.396478,-4.937422,-1.084917,5.912552,5.454943,1.037816,-5.637084,0.021333,0.196781,-0.061832,1.902418,188.420320,1000.886037,-1287.806072,0
0.039583,179.860482,-47.342171,-107.398106,0.880938,-3.194235,-3.227952,6.065538,3.727340,3.131965,-5.800744,0.021333,0.224217,-0.073035,17.431048,188.495801,1001.435854,-1287.151792,0
0.040625,135.261770,-6.097964,-183.268372,-0.544122,-1.149275,-4.716171,5.364040,1.654217,4.726709,-5.242163,-0.015197,0.219383,-0.039427,25.020058,188.420343,1001.569708,-1287.472214,0
0.041667,84.628848,50.573556,-200.232387,-0.883422,1.619942,-5.744035,3.554326,-1.047459,5.780079,-3.552185,-0.040768,0.216509,-0.031958,14.739268,188.495617,1002.941807,-1288.543070,0
0.042708,38.453528,136.807049,-175.611175,-0.442332,3.853067,-6.113113,1.725955,-3.289667,6.203945,-1.759031,-0.124787,0.193906,-0.069301,9.796798,188.344968,1004.313029,-1288.936775,0
0.043750,-3.037338,186.036733,-117.911364,0.654738,5.344184,-4.831260,-0.886004,-4.818779,5.062444,0.713673,-0.150358,0.188092,-0.035692,18.437638,188.495470,1005.934079,-1290.158074,0
0.044792,-73.916624,196.402149,-63.572349,1.661328,6.615184,-3.466067,-3.363634,-6.094264,3.606192,3.179261,-0.186888,0.178294,-0.054364,24.318838,188.420323,1007.239743,-1290.344129,0
0.045833,-145.192897,156.112334,-20.140530,2.498268,6.320511,-1.215880,-4.983048,-5.895774,1.507845,4.780292,-0.234377,0.188942,-0.039427,13.008838,188.495631,1008.641261,-1290.313202,0
0.046875,-198.343854,93.823193,29.261932,3.425688,5.148919,1.256547,-6.083803,-4.686452,-0.984990,5.847646,-0.270907,0.198414,-0.058098,2.286958,188.420345,1010.920987,-1290.618147,0
0.047917,-180.195854,48.024486,107.668182,4.929918,3.348928,3.363865,-6.199475,-3.013986,-3.125304,6.046885,-0.278213,0.205403,-0.065566,-12.393421,188.495740,1012.537130,-1290.610908,0
0.048958,-135.710567,6.212477,183.341478,6.377598,1.321719,4.943362,-5.546485,-0.871023,-4.757817,5.449167,-0.285519,0.213046,-0.054364,-21.927751,188.420321,1013.630570,-1290.956246,0
0.050000,-84.283669,-50.060374,200.182387,6.671658,-1.486551,5.931539,-3.721845,1.856383,-5.731450,3.695149,-0.223418,0.200896,-0.076769,-10.968361,188.495769,1014.550235,-1291.161088,0
0.051042,-37.665992,-136.499242,175.708902,6.264498,-3.726777,6.312523,-1.904668,4.201512,-6.201479,1.923341,-0.154011,0.168821,-0.061832,-5.415151,188.420227,1015.413792,-1292.080430,0
0.052083,2.928817,-185.801411,117.528978,5.167428,-5.182391,5.006859,0.744604,5.660785,-5.009619,-0.556478,-0.113828,0.179404,-0.069301,-14.044681,188.491804,1015.750702,-1292.756788,0
0.053125,73.048155,-196.613821,63.362311,4.149528,-6.421438,3.625792,3.207309,6.943622,-3.595333,-3.011393,-0.066339,0.192469,-0.046895,-19.450861,188.471542,1016.143123,-1293.515060,0
0.054167,144.642018,-155.768284,20.164394,3.301278,-6.137416,1.399416,4.808066,6.693671,-1.505380,-4.598192,-0.044421,0.192404,-0.035692,-7.699771,188.489681,1016.161167,-1294.014685,0
0.055208,197.917743,-93.612033,-28.536364,2.385168,-5.011977,-1.104760,5.923746,5.480673,1.046209,-5.683336,-0.011544,0.198348,-0.046895,1.823248,188.286221,1016.433346,-1294.975588,0
0.056250,179.849140,-48.236158,-107.250379,0.914868,-3.229738,-3.156518,6.058075,3.811882,3.119375,-5.839881,-0.015197,0.206906,-0.050629,18.652528,188.517031,1017.453850,-1295.324792,0
0.057292,135.896950,-6.738252,-183.120644,-0.544122,-1.202529,-4.696328,5.408817,1.683623,4.764479,-5.306204,-0.033462,0.205730,-0.076769,26.105818,188.421267,1018.203239,-1296.277718,0
0.058333,85.230001,50.307776,-200.183145,-0.860802,1.602191,-5.728160,3.569251,-1.018053,5.696145,-3.530838,-0.044421,0.203966,-0.035692,14.750578,188.496900,1017.589042,-1295.400224,0
0.059375,38.464871,136.480865,-175.771213,-0.453642,3.863718,-6.136924,1.796851,-3.311721,6.216535,-1.759031,-0.088257,0.190117,-0.050629,9.547978,188.495349,1017.527102,-1295.771963,0
0.060417,-2.674378,185.795115,-118.120644,0.632118,5.315782,-4.855072,-0.882273,-4.793049,5.016280,0.695884,-0.183235,0.192926,-0.024490,18.087028,188.495347,1016.945312,-1295.299133,0
0.061459,-73.213389,196.571281,-63.473864,1.683948,6.608083,-3.434319,-3.330052,-6.079561,3.673339,3.189934,-0.212459,0.178228,-0.091706,23.855128,188.419904,1017.333528,-1295.297844,0
0.062500,-144.875307,156.523084,-20.115909,2.520888,6.281458,-1.263503,-4.953198,-5.862692,1.474272,4.776734,-0.219765,0.188354,-0.080503,12.341548,188.495287,1016.628381,-1295.318859,0
0.063542,-198.094319,93.883597,28.609470,3.425688,5.145369,1.248610,-6.080071,-4.671749,-0.968203,5.833414,-0.259948,0.197107,-0.024490,2.332198,188.495336,1016.225738,-1295.019641,0
0.064584,-180.570156,48.024486,106.978788,4.952538,3.327626,3.336085,-6.150967,-2.988255,-3.100123,5.997075,-0.256295,0.208735,-0.039427,-11.726131,188.495244,1015.494682,-1294.462157,0
0.065625,-135.755937,6.562823,183.218372,6.377598,1.296867,4.871927,-5.520366,-0.900429,-4.720047,5.445609,-0.245336,0.215659,-0.058098,-21.543211,188.419945,1015.569950,-1293.931880,0
0.066667,-84.340382,-49.565057,200.305493,6.649038,-1.465250,5.899790,-3.665875,1.841680,-5.693680,3.705822,-0.223418,0.216051,-0.061832,-10.040941,188.495264,1015.449570,-1293.535372,0
0.067708,-37.915527,-136.064330,175.733523,6.264498,-3.687724,6.288712,-1.852429,4.139024,-6.201479,1.923341,-0.172276,0.189334,-0.031958,-4.623451,188.287170,1015.400972,-1292.938556,0
0.068750,2.804049,-185.753088,118.119887,5.178738,-5.185941,4.998922,0.733410,5.601973,-5.018012,-0.513784,-0.102869,0.195605,-0.087972,-13.773241,188.495278,1015.683258,-1292.255817,0
0.069792,72.639825,-196.420526,63.854735,4.172148,-6.414337,3.598012,3.181189,6.910540,-3.633103,-2.954467,-0.080951,0.179992,-0.050629,-19.880641,188.419896,1015.919392,-1291.478514,0
0.070834,144.732758,-156.626028,20.422917,3.323898,-6.112564,1.439102,4.826723,6.723077,-1.492790,-4.566172,0.006721,0.192534,-0.043161,-7.914661,188.495376,1016.117271,-1291.749326,0
0.071875,197.588810,-94.155674,-28.093182,2.430408,-5.015528,-1.128572,5.927477,5.480673,1.042012,-5.658431,-0.022503,0.197826,-0.061832,1.857178,188.495340,1015.763227,-1291.618412,0
0.072917,180.291497,-48.719394,-106.868750,0.914868,-3.180034,-3.188267,6.046881,3.775125,3.161342,-5.850554,-0.007891,0.191097,-0.061832,17.397118,188.495345,1015.145512,-1292.499063,0
0.073959,136.010375,-7.040275,-182.874432,-0.555432,-1.177677,-4.751889,5.438668,1.672596,4.751889,-5.252836,-0.015197,0.208931,-0.065566,24.952198,188.419998,1014.329272,-1292.211775,0
0.075000,85.116576,49.824540,-200.540152,-0.894732,1.573789,-5.751972,3.576714,-1.021729,5.763292,-3.527280,-0.048074,0.202725,-0.054364,14.784508,188.495361,1014.502931,-1293.022342,0
0.076042,38.623666,135.985548,-175.734281,-0.397092,3.845967,-6.128987,1.729686,-3.333776,6.229125,-1.741241,-0.095563,0.194364,-0.028224,9.785488,188.495369,1014.130342,-1293.424176,0
0.077084,-2.617666,185.988409,-118.059091,0.643428,5.326433,-4.847135,-0.897198,-4.796724,5.062444,0.731462,-0.128440,0.191620,-0.050629,18.279298,188.495466,1014.358661,-1293.926659,0
0.078125,-72.680291,196.680009,-63.584659,1.672638,6.643586,-3.458130,-3.344977,-6.086913,3.610388,3.168587,-0.201500,0.178882,-0.039427,24.341458,188.495468,1013.603486,-1293.920714,0
0.079167,-144.591745,156.583489,-20.374432,2.498268,6.288558,-1.231755,-5.005437,-5.888422,1.495255,4.790965,-0.238030,0.187243,-0.039427,13.167178,188.495472,1013.846806,-1294.208860,0
0.080209,-197.992237,93.823193,28.326326,3.436998,5.152469,1.236704,-6.057683,-4.693803,-0.993384,5.876109,-0.281866,0.195931,-0.058098,2.377438,188.495289,1013.909371,-1294.922661,0
0.081250,-180.570156,48.060728,106.843372,4.907298,3.356028,3.336085,-6.199475,-3.025013,-3.100123,6.054001,-0.256295,0.205338,-0.050629,-12.325561,188.495441,1014.669911,-1295.364357,0
0.082292,-136.073527,6.719875,182.725948,6.366288,1.328819,4.891770,-5.479321,-0.926160,-4.757817,5.449167,-0.270907,0.213177,-0.065566,-21.712861,188.495287,1014.781078,-1295.730409,0
0.083334,-84.567232,-49.178468,200.403978,6.705588,-1.436847,5.915665,-3.725577,1.834329,-5.794400,3.755632,-0.197847,0.212655,-0.065566,-11.058841,188.495370,1015.736930,-1296.879793,0
0.084375,-38.312515,-135.653579,175.955114,6.275808,-3.709025,6.308555,-1.882280,4.105942,-6.201479,1.948246,-0.186888,0.221996,-0.031958,-5.663971,188.495287,1015.875039,-1296.628970,0
0.085417,2.316322,-185.499389,118.710796,5.190048,-5.175290,5.086231,0.714753,5.635054,-5.030602,-0.488879,-0.124787,0.190836,-0.095440,-14.078611,188.495436,1016.004167,-1297.128378,0
0.086458,72.322235,-196.529254,64.334849,4.149528,-6.460491,3.649603,3.177458,6.914216,-3.624710,-2.965141,-0.077298,0.180319,-0.039427,-19.654441,188.495497,1015.687964,-1297.489826,0
0.087500,144.505908,-156.783080,20.853788,3.289968,-6.172918,1.419259,4.826723,6.730428,-1.543150,-4.566172,-0.040768,0.190836,-0.031958,-7.733701,188.495443,1016.059025,-1297.437839,0
0.088542,197.452700,-94.566424,-27.957765,2.396478,-4.997776,-1.021420,5.927477,5.528458,0.953882,-5.626410,-0.022503,0.200439,-0.017021,1.721458,188.495327,1016.997929,-1296.628610,0
0.089583,180.393580,-48.900607,-106.351705,0.892248,-3.226188,-3.172392,6.058075,3.841288,3.148752,-5.868344,-0.000585,0.204620,-0.024490,18.641218,188.495265,1017.686538,-1296.619628,0
0.090634,135.511305,-6.242935,-183.465341,-0.555432,-1.124423,-4.755857,5.352846,1.720381,4.756086,-5.295530,-0.018850,0.212916,-0.043161,26.309398,188.495405,1018.972747,-1296.352145,0
0.091667,85.275371,49.437951,-200.552463,-0.860802,1.595090,-5.755940,3.580446,-0.973944,5.759095,-3.516607,-0.069992,0.188092,-0.058098,14.897608,188.495318,1018.992739,-1295.982583,0
0.092708,38.453528,135.441907,-175.968182,-0.419712,3.845967,-6.117081,1.740880,-3.285991,6.178764,-1.762588,-0.117481,0.188876,-0.054364,9.683698,188.495383,1018.797895,-1295.022504,0
0.093763,-3.218818,186.024652,-116.975758,0.666048,5.354835,-4.827292,-0.949438,-4.778346,5.020477,0.752809,-0.143052,0.187112,-0.039427,18.041788,188.495289,1018.401675,-1294.292902,0
0.094799,-72.918484,196.619605,-62.969129,1.706568,6.590332,-3.422413,-3.400948,-6.079561,3.601995,3.186376,-0.168623,0.175746,-0.058098,23.821198,188.495417,1018.366719,-1294.169373,0
0.095833,-144.376237,157.356667,-20.263636,2.498268,6.274357,-1.311126,-4.942003,-5.892098,1.524632,4.790965,-0.216112,0.186459,-0.024490,12.398098,188.495332,1018.714212,-1294.292068,0
0.096875,-197.493167,94.028568,27.883144,3.436998,5.138268,1.220830,-6.046489,-4.623964,-0.943023,5.829857,-0.256295,0.195539,-0.076769,2.388748,188.495329,1017.853472,-1293.196404,0
0.097917,-181.193994,48.386913,106.227841,4.884678,3.370229,3.320211,-6.162161,-2.995607,-3.100123,6.018422,-0.252642,0.210695,-0.013287,-11.579101,188.495331,1017.114414,-1293.223975,0
0.098958,-136.470514,7.070221,182.307387,6.332358,1.350121,4.852084,-5.539023,-0.918808,-4.673883,5.431378,-0.256295,0.237805,-0.050629,-21.169981,188.570758,1016.604630,-1292.396441,0
0.100000,-85.372549,-48.852284,200.724054,6.649038,-1.415546,5.883916,-3.706920,1.801247,-5.769220,3.695149,-0.201500,0.208735,-0.039427,-10.108801,188.495419,1015.904550,-1292.235350,0
0.101042,-39.083805,-135.013291,176.090531,6.264498,-3.712576,6.260932,-1.867355,4.102267,-6.134332,1.919783,-0.161317,0.198806,-0.061832,-4.849651,188.495260,1014.652641,-1292.059463,0
0.102083,1.919334,-185.547712,119.424811,5.212668,-5.157539,5.026702,0.699828,5.594621,-5.022209,-0.488879,-0.102869,0.185349,-0.043161,-13.694071,188.495305,1014.354435,-1291.951723,0
0.103125,71.732425,-196.432607,64.617993,4.172148,-6.407237,3.609918,3.177458,6.892161,-3.624710,-2.947351,-0.088257,0.177444,-0.061832,-19.835401,188.570816,1014.019013,-1291.670349,0
0.104167,144.335771,-157.568339,20.755303,3.323898,-6.094812,1.439102,4.808066,6.704698,-1.543150,-4.537709,-0.062686,0.190509,-0.046895,-8.106931,188.495296,1013.854844,-1291.426933,0
0.105208,196.930945,-94.385211,-27.514583,2.396478,-4.948072,-1.045231,5.912552,5.462294,0.958079,-5.608621,-0.015197,0.197630,-0.039427,1.755388,188.495233,1012.738371,-1290.949431,0
0.106250,180.983390,-48.767717,-105.736175,0.914868,-3.219087,-3.160486,6.058075,3.804531,3.102589,-5.818534,0.050557,0.205730,-0.061832,17.306638,188.493045,1012.070998,-1290.218595,0
0.107292,136.566158,-6.871142,-181.901894,-0.510192,-1.135074,-4.704266,5.449862,1.694650,4.722512,-5.267067,-0.011544,0.212785,-0.050629,24.861718,188.495311,1010.894718,-1290.111778,0
0.108333,84.867041,49.051362,-201.032576,-0.883422,1.580889,-5.712286,3.621491,-0.970269,5.717128,-3.541512,-0.044421,0.203248,-0.058098,14.954158,188.495486,1011.008514,-1289.696508,0
0.109375,38.578296,134.862024,-176.054357,-0.397092,3.853067,-6.144861,1.770731,-3.285991,6.153584,-1.759031,-0.080951,0.191816,-0.061832,9.943828,188.495510,1010.527908,-1289.560426,0
0.110417,-2.300076,185.843438,-118.822349,0.643428,5.319332,-4.898726,-0.833765,-4.785697,5.066641,0.674537,-0.135746,0.191359,-0.043161,18.143578,188.495256,1011.261388,-1290.092241,0
