1-Time,2-VGERA,3-VGERB,4-VGERC,5-VN,6-IGERAN,7-IGERBN,8-IGERCN,9-IGERAT,10-IGERBT,11-IGERCT,12-IN,13-IFD,14-IFAULT,15-VFAULT,16-Speed (rad/s),17-Active Power,18-Reactive Power,19-FAULT 
0.000000,160.941938,-163.809064,-10.032266,0.111601,-4.559102,5.003953,0.230681,4.796661,-4.982270,-0.776538,0.011744,0.457585,-0.018440,148.537545,188.420215,1579.149318,17.657149,0
0.001042,181.880700,-106.728315,-69.976463,-0.991810,-5.230615,3.385118,2.329988,5.415441,-3.231744,-2.874659,-0.042949,0.457310,-0.007290,168.802530,188.420074,1578.801181,16.684800,0
0.002083,190.638142,-30.691120,-128.960677,-2.140259,-5.344369,1.495783,4.177996,5.604409,-1.357756,-4.572957,-0.090349,0.462615,-0.033307,178.698597,188.269406,1578.363840,16.059984,0
0.003125,153.935984,35.527247,-167.663751,-2.894632,-4.507729,-0.584981,5.156126,4.729966,0.710245,-5.540148,-0.104934,0.455587,-0.014723,140.521618,188.420139,1577.712031,15.406482,0
0.004167,79.401677,85.631460,-199.331008,-3.570190,-2.849127,-3.044445,5.759242,3.140407,3.135406,-6.096093,-0.093995,0.418450,-0.025873,72.588887,188.495687,1576.992133,14.924882,0
0.005208,17.161688,141.784354,-177.676729,-3.131077,-1.054755,-4.380296,5.028544,1.165500,4.480268,-5.311678,-0.086703,0.484250,-0.025873,15.475407,188.495682,1575.920909,14.650180,0
0.006250,-45.225200,186.333177,-127.927785,-2.207814,1.286368,-5.566332,3.826179,-1.098418,5.578204,-4.055090,-0.090349,0.445045,-0.011006,-41.514233,188.269433,1574.907144,14.448742,0
0.007292,-100.255836,190.761046,-53.887649,-0.710327,3.289901,-5.603786,1.815793,-3.110378,5.542929,-2.006471,-0.010133,0.460066,0.000144,-93.978025,188.420274,1573.194290,13.506463,0
0.008333,-160.947735,163.465642,10.285329,0.460640,4.871443,-4.946264,-0.372435,-4.688822,4.938844,0.106881,-0.002841,0.458481,-0.003573,-148.535867,188.495743,1571.993906,13.297111,0
0.009375,-182.022096,106.584558,70.642682,1.620348,5.561304,-3.389852,-2.382821,-5.318717,3.219184,2.189771,0.022683,0.456621,-0.044457,-168.091576,188.420385,1571.928358,13.301723,0
0.010417,-190.723038,31.134613,129.675503,2.757537,5.689736,-1.463064,-4.211498,-5.459517,1.398109,3.865221,0.040913,0.462959,-0.003573,-178.122744,188.269478,1571.163995,13.545140,0
0.011458,-154.201680,-35.036773,167.965421,3.478132,4.787046,0.559439,-5.178030,-4.577664,-0.736033,4.801950,0.091960,0.474741,-0.014723,-140.700073,188.420262,1570.911666,12.856634,0
0.012500,-79.339674,-85.704747,199.413947,4.119912,3.212842,3.014742,-5.765681,-2.995515,-3.187650,5.369318,0.146652,0.455794,0.003860,-71.810384,188.420267,1570.252955,11.528731,0
0.013542,-16.896287,-142.174755,177.468028,3.680800,1.297377,4.371400,-5.062046,-1.116945,-4.444325,4.581095,0.102898,0.468334,-0.025873,-14.381670,188.420301,1569.361447,11.620651,0
0.014583,45.626200,-186.617874,127.719084,2.791315,-0.948340,5.540790,-3.832618,1.172910,-5.621630,3.381625,0.091960,0.464062,-0.029590,42.855652,188.269525,1569.372756,11.971147,0
0.015625,100.374338,-190.928292,53.265792,1.338865,-3.006915,5.561598,-1.860893,3.162639,-5.551080,1.336814,0.037267,0.459652,0.000144,94.542620,188.420336,1568.955302,12.238048,0
0.016667,160.998438,-163.268794,-11.235282,0.089083,-4.581119,4.970660,0.246146,4.774430,-4.973451,-0.749883,0.004452,0.458619,-0.014723,149.021653,188.495617,1568.519556,13.154464,0
0.017708,181.846800,-106.282005,-70.438226,-1.003069,-5.193921,3.401764,2.322255,5.411735,-3.258201,-2.886083,-0.050241,0.458963,-0.014723,168.453522,188.420372,1568.679078,13.557927,0
0.018750,190.446043,-31.384075,-129.385985,-2.162777,-5.340699,1.524914,4.143201,5.578472,-1.410669,-4.630074,-0.093995,0.457516,-0.022156,178.214489,188.269554,1569.122236,13.493457,0
0.019792,154.048983,34.810802,-168.028301,-2.905891,-4.544424,-0.555850,5.159992,4.670682,0.666151,-5.540148,-0.097641,0.474466,-0.025873,140.476585,188.420265,1568.610278,13.348422,0
0.020833,80.170072,85.678440,-199.306704,-3.513893,-2.962881,-2.998668,5.743777,3.118175,3.130996,-6.115132,-0.090349,0.473777,-0.025873,72.960412,188.420309,1568.825150,12.967788,0
0.021875,17.884883,142.218919,-177.324330,-3.097299,-1.032738,-4.438557,5.047875,1.198847,4.511133,-5.296446,-0.104934,0.474397,-0.014723,15.509182,188.420312,1569.068093,12.966674,0
0.022917,-45.338199,186.438882,-127.733358,-2.162777,1.260682,-5.574655,3.814580,-1.072481,5.631117,-4.039859,-0.053887,0.475224,-0.018440,-42.257282,188.269509,1569.468167,13.085022,0
0.023958,-100.493134,190.737556,-52.599572,-0.732846,3.348612,-5.620432,1.757801,-3.147431,5.498835,-2.014087,-0.024718,0.456690,-0.040740,-94.158159,188.420247,1569.151416,13.243208,0
0.025000,-160.744336,163.336447,12.205293,0.516936,4.966850,-5.000364,-0.333773,-4.740695,4.921206,0.114497,0.033621,0.450902,-0.018440,-148.254408,188.420164,1569.451884,13.399079,0
0.026042,-181.988196,104.846297,70.982929,1.620348,5.535618,-3.389852,-2.460143,-5.363180,3.254459,2.197386,0.051852,0.454071,-0.022156,-168.620718,188.495640,1569.914867,14.184926,0
0.027083,-190.666539,30.371188,129.906385,2.780056,5.682397,-1.446418,-4.215364,-5.481749,1.371652,3.899492,0.099252,0.460410,0.011294,-178.201552,188.269460,1570.363632,13.998705,0
0.028125,-153.591484,-34.825363,168.621611,3.534429,4.889791,0.542793,-5.193494,-4.611011,-0.696349,4.843836,0.102898,0.447595,-0.018440,-140.992789,188.344862,1571.084386,14.632986,0
0.029167,-80.300168,-85.669512,199.462554,4.119912,3.190825,2.993934,-5.800476,-3.006631,-3.161194,5.388358,0.091960,0.475637,-0.014723,-72.575950,188.420231,1571.405929,14.720796,0
0.030208,-18.082779,-142.632811,176.994113,3.680800,1.304716,4.400531,-5.108440,-1.061366,-4.519284,4.619174,0.102898,0.473363,0.000144,-14.933328,188.495754,1572.495253,13.523120,0
0.031250,45.422801,-186.688344,128.035028,2.791315,-0.941002,5.561598,-3.844216,1.172910,-5.626040,3.339739,0.077375,0.464751,-0.037023,42.990752,188.269415,1572.293318,13.005300,0
0.032292,100.905435,-190.505472,53.010607,1.316347,-2.955542,5.594890,-1.833831,3.218218,-5.546671,1.317775,0.033621,0.455036,-0.025873,94.891628,188.344979,1572.482543,12.538513,0
0.033333,161.021037,-163.527184,-12.450449,0.089083,-4.628822,4.962337,0.280941,4.826303,-4.995498,-0.799385,0.008098,0.450557,-0.018440,148.379929,188.420365,1573.358610,12.174286,0
0.034375,181.586901,-104.496763,-70.924293,-1.048106,-5.234285,3.326856,2.360917,5.408030,-3.271429,-2.889890,-0.050241,0.452073,-0.014723,168.948888,188.495682,1573.035449,12.911490,0
0.035417,190.434743,-29.387424,-129.495350,-2.174036,-5.359047,1.462491,4.193461,5.589588,-1.384213,-4.626266,-0.104934,0.461306,-0.018440,178.495947,188.269436,1572.913359,13.392033,0
0.036458,153.178889,35.738657,-168.161970,-2.962187,-4.518738,-0.589143,5.148394,4.696619,0.732292,-5.536341,-0.083057,0.456690,-0.007290,140.228902,188.420229,1573.078705,13.344645,0
0.037500,79.932773,85.889851,-199.343159,-3.547671,-2.948203,-3.023637,5.751510,3.132996,3.113359,-6.115132,-0.101287,0.472674,-0.029590,73.557103,188.420303,1573.062409,13.799578,0
0.038542,18.562879,142.442074,-176.886870,-3.086040,-1.010722,-4.417750,5.036276,1.165500,4.506724,-5.288831,-0.064826,0.485972,-0.037023,15.936998,188.495707,1572.860768,13.292581,0
0.039583,-44.841002,186.697272,-127.879178,-2.185296,1.253343,-5.537201,3.806848,-1.142881,5.591432,-4.028435,-0.079410,0.466611,-0.025873,-41.953307,188.269489,1572.616248,12.322698,0
0.040625,-100.899932,190.420440,-53.097791,-0.732846,3.333934,-5.558009,1.773265,-3.099262,5.556157,-1.960777,-0.039302,0.458205,-0.011006,-94.372067,188.420294,1572.739607,12.261052,0
0.041667,-161.049434,163.254232,12.205293,0.494418,4.948502,-4.962910,-0.414962,-4.748106,4.925615,0.137344,0.019036,0.448559,-0.018440,-148.175600,188.420198,1572.931186,12.052044,0
0.042708,-181.829997,104.223811,71.383934,1.620348,5.594330,-3.294137,-2.456277,-5.315012,3.192728,2.201194,0.048206,0.452556,-0.044457,-168.170385,188.495609,1571.859406,11.796031,0
0.043750,-190.508340,28.691651,129.906385,2.757537,5.671389,-1.446418,-4.242427,-5.470633,1.354015,3.903299,0.084667,0.442565,-0.014723,-177.875060,188.269487,1571.526060,12.125569,0
0.044792,-152.834389,-36.457920,168.281364,3.511910,4.853096,0.601055,-5.174164,-4.548022,-0.722805,4.824797,0.106545,0.435744,0.000144,-139.934507,188.420263,1570.545603,12.145316,0
0.045833,-78.492180,-86.151057,199.851407,4.164950,3.190825,3.018903,-5.808209,-3.021452,-3.192060,5.392166,0.102898,0.470263,-0.003573,-72.395817,188.420282,1570.744227,12.656411,0
0.046875,-17.664682,-142.914691,176.811838,3.692059,1.326733,4.392208,-5.096841,-1.105829,-4.484009,4.603942,0.091960,0.456001,-0.022156,-15.496244,188.495649,1570.312770,13.560969,0
0.047917,45.174203,-187.087674,128.083634,2.780056,-0.999713,5.569921,-3.882878,1.209963,-5.634858,3.328315,0.055498,0.468747,-0.018440,42.765585,188.269512,1570.563444,12.961587,0
0.048958,101.199233,-190.364532,53.715404,1.350125,-3.025262,5.586567,-1.826098,3.210807,-5.599583,1.272081,0.011744,0.461237,-0.014723,95.195603,188.420249,1571.014209,12.490111,0
0.050000,161.823332,-163.491949,-12.110202,0.100342,-4.610474,4.974822,0.269342,4.811482,-4.969041,-0.856503,-0.002841,0.455725,-0.029590,148.875295,188.420254,1570.843715,11.786959,0
0.051042,181.846800,-104.449783,-71.143023,-1.014329,-5.204929,3.322695,2.391846,5.419146,-3.209697,-2.935585,-0.042949,0.453796,-0.033307,168.802530,188.495655,1570.893231,10.797468,0
0.052083,190.547742,-28.753193,-129.604716,-2.185296,-5.344369,1.445845,4.197327,5.552536,-1.348937,-4.660537,-0.093995,0.459514,-0.033307,178.011839,188.269411,1570.696672,10.250500,0
0.053125,152.274895,36.701748,-168.356397,-2.917150,-4.474704,-0.647404,5.163858,4.666977,0.763157,-5.566803,-0.104934,0.415763,-0.011006,139.238169,188.420269,1570.675741,10.101061,0
0.054167,77.537189,86.300926,-199.962895,-3.513893,-2.922517,-3.044445,5.801769,3.125586,3.192728,-6.126556,-0.115872,0.474466,-0.044457,72.082263,188.420249,1571.091235,10.058617,0
0.055208,16.946989,143.064560,-176.400803,-3.097299,-0.970357,-4.480173,5.105867,1.139563,4.555227,-5.361180,-0.137749,0.460479,-0.025873,15.869448,188.495562,1572.205481,10.551468,0
0.056250,-45.394699,186.849957,-127.891330,-2.196555,1.334072,-5.607947,3.818446,-1.131766,5.639936,-4.055090,-0.075764,0.458481,0.003860,-42.200990,188.269572,1573.029412,10.978434,0
0.057292,-101.464928,190.103325,-53.134246,-0.755365,3.381637,-5.637078,1.757801,-3.203010,5.609070,-1.956969,-0.028364,0.458619,-0.014723,-95.036308,188.420301,1574.355185,10.260334,0
0.058333,-161.682230,163.712287,12.229596,0.494418,4.996206,-5.012848,-0.407230,-4.811095,4.912387,0.217308,0.026329,0.454071,-0.033307,-148.366992,188.420198,1575.215860,8.924237,0
0.059375,-182.135095,104.059381,71.432541,1.620348,5.612677,-3.352398,-2.545198,-5.378001,3.175090,2.319237,0.033621,0.454209,-0.033307,-169.161117,188.495611,1576.472702,7.489420,0
0.060417,-190.802138,29.055747,130.222329,2.757537,5.719092,-1.425610,-4.350679,-5.500275,1.296693,3.998495,0.095606,0.460135,-0.022156,-178.100227,188.269521,1577.688374,6.093710,0
0.061458,-151.806095,-36.598860,169.059071,3.500651,4.823740,0.717577,-5.297880,-4.533200,-0.850677,4.874299,0.106545,0.456483,-0.014723,-139.168940,188.420271,1578.318982,4.657632,0
0.062500,-76.989290,-86.291997,200.446839,4.164950,3.172478,3.127103,-5.877799,-3.002925,-3.258201,5.434052,0.124775,0.452556,-0.022156,-70.526935,188.420171,1579.060678,4.305574,0
0.063542,-15.800194,-143.396236,176.252861,3.703318,1.246004,4.504569,-5.081377,-1.031723,-4.572197,4.649636,0.102898,0.449868,0.011294,-14.032662,188.495693,1580.122163,3.922230,0
0.064583,46.270296,-187.240359,127.500354,2.768796,-1.018060,5.636505,-3.886744,1.295184,-5.696590,3.320700,0.048206,0.461513,0.007577,43.362277,188.344876,1581.022916,3.295554,0
0.065625,101.741629,-190.082652,53.156427,1.338865,-3.058287,5.599051,-1.787437,3.296028,-5.643677,1.272081,0.015390,0.461719,-0.037023,95.927394,188.344950,1582.081866,2.966587,0
0.066667,162.026731,-163.879534,-12.292477,0.077824,-4.672855,5.028922,0.331200,4.878177,-4.969041,-0.860311,0.011744,0.463717,-0.014723,148.886553,188.420296,1582.937334,2.569632,0
0.067708,181.971099,-104.543743,-71.264540,-1.025588,-5.285657,3.322695,2.391846,5.519188,-3.218516,-3.019357,-0.090349,0.462202,-0.044457,169.736971,188.495732,1584.635291,1.636148,0
0.068750,190.785041,-29.634069,-130.151541,-2.196555,-5.392072,1.391745,4.247586,5.574767,-1.326891,-4.732886,-0.115872,0.452487,-0.033307,178.372106,188.344994,1585.748742,0.675638,0
0.069792,151.924598,36.490338,-168.842463,-2.928410,-4.515068,-0.664050,5.229583,4.659566,0.833707,-5.635344,-0.097641,0.474604,-0.003573,138.495120,188.344934,1586.622443,-0.418174,0
0.070833,77.288591,86.312671,-200.205928,-3.581449,-2.915178,-3.111029,5.801769,3.084828,3.245640,-6.115132,-0.101287,0.472537,-0.011006,70.945172,188.420092,1586.624307,-1.283830,0
0.071875,15.884796,143.193755,-176.109163,-3.108558,-0.911646,-4.500980,5.040142,1.083984,4.586093,-5.345948,-0.083057,0.450902,-0.022156,14.000566,188.495660,1586.555925,-1.759367,0
0.072917,-46.106594,187.354993,-126.700466,-2.151518,1.422139,-5.628755,3.768187,-1.205871,5.648754,-4.028435,-0.090349,0.475499,-0.018440,-42.842715,188.344903,1586.633080,-2.226878,0
0.073958,-101.510128,190.044600,-52.149960,-0.721587,3.418332,-5.607947,1.711407,-3.254883,5.534110,-1.930314,-0.024718,0.456414,-0.051890,-95.340283,188.420329,1585.919497,-2.790102,0
0.075000,-161.761330,163.571347,12.569843,0.528196,5.018222,-5.029495,-0.438159,-4.799980,4.938844,0.194461,0.015390,0.454140,-0.003573,-148.716000,188.420184,1586.049640,-2.133403,0
0.076042,-182.089895,104.106361,71.614816,1.620348,5.623685,-3.306621,-2.537466,-5.422464,3.161862,2.319237,0.037267,0.454347,-0.011006,-169.082309,188.495680,1586.495091,-2.281703,0
0.077083,-190.779538,30.065818,131.000036,2.791315,5.763125,-1.400641,-4.350679,-5.529917,1.279055,4.013727,0.077375,0.460824,-0.059323,-177.886319,188.344972,1587.195110,-2.687775,0
0.078125,-152.054694,-35.988119,169.302105,3.556947,4.853096,0.684285,-5.247620,-4.544316,-0.828630,4.923801,0.081021,0.453313,-0.025873,-138.583508,188.420289,1587.914406,-2.797648,0
0.079167,-77.362187,-86.374212,200.677721,4.176209,3.172478,3.181203,-5.877799,-2.939936,-3.293476,5.388358,0.106545,0.471985,-0.029590,-70.369319,188.420303,1587.406478,-3.893428,0
0.080208,-15.969693,-143.678117,176.021979,3.680800,1.242335,4.525377,-5.120038,-0.968734,-4.625109,4.577287,0.062790,0.448559,-0.003573,-13.131996,188.495624,1587.070063,-5.289568,0
0.081250,46.586694,-187.733650,126.528220,2.735018,-1.128145,5.669797,-3.817153,1.350763,-5.634858,3.286429,0.081021,0.482458,-0.025873,44.094068,188.345003,1586.246590,-5.631629,0
0.082292,101.594730,-190.282317,51.601013,1.327606,-3.128007,5.636505,-1.775839,3.325670,-5.617221,1.218771,0.033621,0.459721,-0.059323,95.949911,188.420291,1585.817987,-6.068378,0
0.083333,161.947631,-163.585909,-13.629161,0.066564,-4.753584,4.983145,0.354397,4.915230,-4.969041,-0.886966,-0.035656,0.457103,-0.033307,149.044170,188.420361,1586.136198,-6.079944,0
0.084375,182.129298,-103.463202,-71.641242,-1.025588,-5.285657,3.326856,2.507830,5.541420,-3.209697,-3.034588,-0.072118,0.458894,-0.007290,169.736971,188.495631,1586.301462,-5.913276,0
0.085417,190.898040,-29.892459,-130.722669,-2.174036,-5.447114,1.404230,4.321043,5.652578,-1.331300,-4.740502,-0.093995,0.463580,-0.033307,178.034356,188.344860,1587.461297,-5.655359,0
0.086458,151.845498,35.621207,-169.680929,-2.984706,-4.570110,-0.693181,5.272110,4.692914,0.846936,-5.722925,-0.101287,0.474604,-0.037023,138.348762,188.344921,1588.962595,-6.126695,0
0.087500,77.582389,86.371396,-200.534023,-3.547671,-2.933525,-3.169291,5.855895,3.103354,3.276506,-6.214136,-0.119518,0.456276,-0.037023,71.069014,188.420197,1590.601104,-6.276644,0
0.088542,16.517592,144.121611,-175.538035,-3.086040,-0.937332,-4.609180,5.063339,1.043226,4.652234,-5.361180,-0.104934,0.481976,-0.011006,13.966791,188.495817,1591.464232,-7.048241,0
0.089583,-46.377792,187.437208,-126.578949,-2.162777,1.440486,-5.720308,3.775919,-1.239218,5.745761,-4.020819,-0.079410,0.463648,-0.037023,-43.540731,188.344874,1592.629979,-7.602502,0
0.090625,-101.871725,190.173795,-50.910490,-0.699068,3.510069,-5.653724,1.672746,-3.317873,5.622298,-1.903659,-0.057533,0.453727,-0.048173,-95.542933,188.344831,1593.974567,-7.780244,0
0.091667,-161.433632,163.747522,14.550566,0.528196,5.157662,-5.025333,-0.503883,-4.929664,4.982937,0.240156,0.000805,0.454829,-0.037023,-148.096792,188.420253,1595.760986,-8.178463,0
0.092708,-182.372393,101.933534,71.870001,1.631607,5.708083,-3.310783,-2.653449,-5.496570,3.161862,2.410625,0.062790,0.455656,0.007577,-170.073042,188.496083,1596.755984,-8.515509,0
0.093750,-190.982936,28.926552,131.048642,2.780056,5.785142,-1.375672,-4.439600,-5.589201,1.323149,4.097499,0.070083,0.452349,-0.014723,-178.021419,188.420238,1598.248420,-8.098893,0
0.094792,-151.082900,-35.647514,170.492969,3.579466,4.805393,0.717577,-5.406131,-4.607306,-0.903590,5.026613,0.121129,0.466542,-0.044457,-138.583508,188.345135,1600.206636,-8.718898,0
0.095833,-77.802884,-86.303742,200.957210,4.153690,3.187155,3.226980,-5.978318,-2.973283,-3.377254,5.487362,0.095606,0.476119,-0.014723,-70.763360,188.420287,1602.245952,-9.319729,0
0.096875,-16.907587,-144.629463,175.572367,3.647022,1.161606,4.583638,-5.135503,-0.924271,-4.757391,4.642021,0.077375,0.472812,-0.025873,-13.503521,188.496132,1604.323234,-10.452291,0
0.097917,46.371995,-187.745395,126.941377,2.768796,-1.131814,5.736382,-3.832618,1.376700,-5.753912,3.294045,0.059144,0.459928,-0.055607,44.274201,188.420200,1605.894639,-11.168482,0
0.098958,102.340525,-190.223592,51.114946,1.293828,-3.194058,5.661474,-1.721713,3.399776,-5.648086,1.184500,0.026329,0.459790,-0.029590,96.366469,188.269794,1606.722049,-11.774202,0
0.100000,161.699033,-163.773829,-14.929390,0.055305,-4.815965,5.012276,0.454916,5.004156,-4.986679,-0.963123,0.004452,0.452418,-0.029590,148.402445,188.420292,1607.860659,-12.685676,0
0.101042,182.366596,-101.513530,-71.787062,-1.036847,-5.322352,3.289403,2.596750,5.585883,-3.156785,-3.156439,-0.057533,0.454278,-0.074190,170.795253,188.495864,1608.327519,-13.903739,0
0.102083,190.830240,-27.942787,-130.674063,-2.185296,-5.498487,1.375099,4.379035,5.678515,-1.282797,-4.782388,-0.097641,0.475499,-0.044457,178.113164,188.495580,1608.668588,-14.018252,0
0.103125,150.647706,36.466848,-170.142692,-2.973447,-4.544424,-0.755604,5.295307,4.722556,0.917486,-5.745772,-0.104934,0.440016,-0.018440,137.752070,188.269702,1609.196874,-14.106918,0
0.104167,77.186891,86.418376,-200.546175,-3.558930,-2.900500,-3.248360,5.917753,3.044070,3.320600,-6.217944,-0.090349,0.470056,-0.044457,71.620671,188.495705,1609.116858,-14.998947,0
0.105208,17.229488,144.415236,-175.270698,-3.108558,-0.937332,-4.629988,5.082670,1.017289,4.766878,-5.399258,-0.101287,0.474879,-0.022156,14.540966,188.495964,1610.620524,-16.017081,0
0.106250,-45.824096,187.672108,-126.809831,-2.151518,1.425808,-5.782731,3.783651,-1.261450,5.772217,-4.039859,-0.075764,0.470883,-0.029590,-43.236756,188.495745,1611.229804,-16.406685,0
0.107292,-102.165523,189.962385,-51.226433,-0.732846,3.513738,-5.687016,1.680478,-3.358631,5.657573,-1.873197,-0.053887,0.457861,-0.051890,-95.801874,188.343900,1611.819661,-17.052679,0
0.108333,-161.840429,163.641817,14.647779,0.539455,5.190688,-5.017010,-0.538678,-4.933369,4.969709,0.285850,0.004452,0.453382,-0.018440,-148.051759,188.420247,1611.847531,-17.559014,0
0.109375,-182.293294,101.346284,72.064428,1.609088,5.693405,-3.298298,-2.672780,-5.515096,3.148634,2.479167,0.029975,0.452624,-0.022156,-169.971717,188.495649,1612.197575,-18.205697,0
0.110417,-190.813438,27.434935,131.121552,2.791315,5.807159,-1.346541,-4.462797,-5.585496,1.226143,4.124154,0.102898,0.449593,-0.048173,-177.649894,188.495685,1611.992155,-18.966001,0
0.111458,-150.167606,-37.162620,170.249935,3.568207,4.904469,0.771677,-5.413864,-4.625832,-0.899180,5.041844,0.099252,0.419415,-0.040740,-137.345092,188.344943,1612.070748,-18.133980,0
