1-Time,2-VGERA,3-VGERB,4-VGERC,5-VN,6-IGERAN,7-IGERBN,8-IGERCN,9-IGERAT,10-IGERBT,11-IGERCT,12-IN,13-IFD,14-IFAULT,15-VFAULT,16-Speed (rad/s),17-FAULT 
0.000000,-157.522195,149.866506,-2.240909,2.837568,6.505125,-2.632673,-4.136764,-6.164103,2.809819,3.902833,-0.179582,0.303718,-0.031958,-5.268121,188.495700,0
0.001042,-203.153075,88.314300,49.672917,3.832848,6.025838,-0.194375,-5.829314,-5.689932,0.485186,5.692074,-0.227071,0.309074,-0.017021,-0.450062,188.495743,0
0.002083,-176.747733,34.747572,127.697538,5.314458,4.719335,2.000093,-6.714768,-4.377689,-1.726639,6.552432,-0.252642,0.320702,-0.020755,3.236998,188.495604,0
0.003125,-132.228419,-13.696853,189.964584,6.479388,2.919344,3.775479,-6.483609,-2.730953,-3.612129,6.514364,-0.241683,0.327104,-0.039427,9.717628,188.495716,0
0.004167,-73.939309,-71.950972,199.628410,6.694278,0.118175,5.459428,-5.339571,0.158187,-5.227688,5.307578,-0.227071,0.313190,-0.013287,16.367908,188.495573,0
0.005208,-20.720297,-149.957369,174.600948,6.207948,-2.228559,6.236636,-3.588253,2.551100,-6.146260,3.704874,-0.172276,0.317566,-0.043161,21.751468,188.495653,0
0.006250,25.398310,-193.146601,111.521402,5.054328,-4.259318,5.638491,-0.951480,4.499248,-5.574167,1.074309,-0.146705,0.309401,-0.028224,21.683608,188.495743,0
0.007292,94.893811,-197.362837,52.393561,3.923328,-5.988304,4.621263,1.806749,6.337123,-4.651566,-1.628587,-0.099216,0.296271,-0.017021,15.779788,188.495682,0
0.008333,156.551644,-149.848641,1.969318,2.973288,-6.396586,2.834448,3.992958,6.752483,-2.806364,-3.828973,-0.055380,0.302934,-0.054364,10.407538,188.495664,0
0.009375,202.783676,-87.221235,-49.316667,1.978008,-5.853393,0.407580,5.712934,6.267283,-0.477703,-5.656283,-0.018850,0.307702,-0.035692,5.238868,188.495655,0
0.010417,176.593842,-33.884044,-127.045834,0.485088,-4.546891,-1.756410,6.582716,4.925635,1.738151,-6.387207,0.003068,0.327561,-0.069301,1.359538,188.495669,0
0.011458,131.416663,14.270440,-190.113069,-0.713772,-2.807255,-3.527986,6.437752,3.212735,3.555151,-6.429082,0.014027,0.327169,-0.031958,-4.804411,188.495783,0
0.012500,73.116210,72.113808,-199.678410,-0.872112,-0.002535,-5.211935,5.250617,0.466950,5.186825,-5.149965,-0.026156,0.290914,-0.017021,-11.703511,188.495649,0
0.013542,20.464323,150.253095,-174.330872,-0.363162,2.361950,-5.989143,3.565903,-1.970073,6.125542,-3.589138,-0.007891,0.319396,-0.031958,-16.476331,188.495765,0
0.014583,-25.461462,192.765796,-111.472917,0.779148,4.350106,-5.387188,0.842936,-3.888814,5.517189,-0.992835,-0.102869,0.307245,-0.013287,-16.713841,188.495772,0
0.015625,-94.934277,197.851857,-51.975758,1.910148,6.082642,-4.446157,-1.836934,-5.726689,4.671136,1.687220,-0.132093,0.292547,-0.028224,-9.961771,188.495678,0
0.016667,-156.183780,150.373904,-1.662311,2.871498,6.480273,-2.602195,-4.062323,-6.105291,2.850107,3.845730,-0.205153,0.299275,-0.024490,-4.148431,188.495649,0
0.017708,-203.232472,87.577365,49.635985,3.844158,5.969033,-0.251523,-5.739201,-5.620092,0.420725,5.695881,-0.234377,0.306004,-0.035692,-0.291722,188.495604,0
0.018750,-176.985926,34.240174,126.712690,5.337078,4.637679,1.958185,-6.632491,-4.351959,-1.722610,6.445839,-0.267254,0.312928,-0.002084,3.293548,188.495682,0
0.019792,-131.559211,-13.696853,190.272349,6.490698,2.933545,3.722141,-6.483609,-2.631708,-3.519466,6.472488,-0.248989,0.307898,-0.046895,9.547978,188.495740,0
0.020833,-73.644404,-71.576464,199.271402,6.705588,0.157228,5.417520,-5.245541,0.121429,-5.183371,5.239053,-0.234377,0.305155,-0.017021,16.424458,188.495759,0
0.021875,-20.754324,-150.331877,174.588637,6.253188,-2.136252,6.198537,-3.639186,2.466558,-6.081799,3.739136,-0.161317,0.316848,0.001650,21.649678,188.495683,0
0.022917,25.409653,-191.938511,112.740152,5.122188,-4.188313,5.649920,-0.947562,4.429408,-5.493590,1.097151,-0.106522,0.297512,-0.005818,21.276448,188.495452,0
0.023958,94.825756,-197.713183,53.255303,3.991188,-5.952801,4.651742,1.732308,6.333447,-4.643508,-1.556256,-0.084604,0.298818,-0.024490,15.542278,188.495687,0
0.025000,155.848409,-150.790952,2.387879,2.973288,-6.357533,2.849687,3.985123,6.719401,-2.858738,-3.756642,-0.037115,0.308421,-0.024490,11.040898,188.495790,0
0.026042,202.908443,-88.018574,-49.132008,2.000628,-5.810790,0.441868,5.716851,6.230526,-0.469645,-5.572531,0.014027,0.305939,-0.028224,5.148388,188.495721,0
0.027083,176.798007,-35.490804,-126.836553,0.552948,-4.504288,-1.729741,6.551372,4.929310,1.677719,-6.417662,0.014027,0.321159,-0.039427,1.348228,188.495772,0
0.028125,132.482858,13.400615,-190.137690,-0.645912,-2.800154,-3.531796,6.425998,3.227438,3.514863,-6.402434,0.032292,0.337425,-0.031958,-4.781791,188.495689,0
0.029167,74.896983,72.041323,-199.309092,-0.838182,-0.052239,-5.200506,5.211437,0.489004,5.186825,-5.203262,0.032292,0.329129,-0.043161,-11.579101,188.495691,0
0.030208,21.961533,150.180610,-174.884849,-0.419712,2.329998,-6.008192,3.573739,-1.922288,6.101369,-3.672890,-0.037115,0.317175,0.012853,-16.781701,188.495749,0
0.031250,-25.211927,192.439612,-112.814773,0.779148,4.343006,-5.432906,0.874279,-3.896166,5.569564,-1.030904,-0.102869,0.312340,-0.002084,-16.860871,188.495691,0
0.032292,-95.070387,197.876019,-53.305303,1.887528,6.111044,-4.472826,-1.809509,-5.723013,4.642934,1.687220,-0.117481,0.298884,-0.009553,-10.402861,188.495749,0
0.033333,-156.637480,151.086678,-2.487121,2.803638,6.515776,-2.613624,-4.074077,-6.153076,2.850107,3.914254,-0.223418,0.306135,-0.035692,-5.483011,188.495734,0
0.034375,-203.209787,88.942507,49.463637,3.787608,6.025838,-0.224854,-5.797970,-5.682580,0.501302,5.646391,-0.223418,0.311099,-0.035692,-0.416132,188.495716,0
0.035417,-177.280831,35.617397,127.020455,5.314458,4.708684,1.996283,-6.663835,-4.403419,-1.674264,6.487715,-0.241683,0.320767,-0.039427,3.236998,188.495682,0
0.036458,-132.897627,-13.274021,189.915341,6.513318,2.951297,3.729761,-6.511035,-2.738304,-3.579898,6.480101,-0.252642,0.335662,-0.050629,9.638458,188.495705,0
0.037500,-74.653886,-71.516060,199.492993,6.682968,0.150127,5.470858,-5.339571,0.069969,-5.219630,5.303771,-0.216112,0.329456,-0.024490,16.288738,188.495801,0
0.038542,-21.378162,-149.957369,174.921023,6.241878,-2.193057,6.194728,-3.647022,2.488612,-6.114029,3.735330,-0.190541,0.322335,-0.017021,21.785398,188.495783,0
0.039583,25.341598,-192.385504,112.543182,5.099568,-4.230916,5.657540,-0.971070,4.436760,-5.533878,1.104764,-0.135746,0.314823,-0.050629,21.683608,188.495685,0
0.040625,94.553536,-197.846073,52.935227,3.968568,-5.963452,4.670791,1.740144,6.351826,-4.683796,-1.586711,-0.084604,0.299080,-0.024490,15.870268,188.495662,0
0.041667,155.916464,-150.899680,2.227841,2.961978,-6.400136,2.838258,3.981205,6.756158,-2.858738,-3.775676,-0.048074,0.303914,-0.050629,10.622428,188.495702,0
0.042708,202.817703,-87.934008,-49.021212,1.978008,-5.842743,0.460917,5.712934,6.256256,-0.517991,-5.583952,0.017680,0.309793,-0.017021,5.238868,188.495564,0
0.043750,177.070227,-34.512251,-126.331819,0.564258,-4.582394,-1.760220,6.543536,4.966068,1.657575,-6.432889,0.024986,0.321355,-0.024490,1.314298,188.495671,0
0.044792,131.949760,14.065064,-190.014584,-0.679842,-2.835657,-3.478458,6.449506,3.223762,3.563209,-6.444310,0.014027,0.327823,-0.028224,-4.725241,188.495852,0
0.045833,73.558568,71.715138,-199.653788,-0.826872,0.004566,-5.204316,5.187930,0.500032,5.166681,-5.176614,-0.022503,0.305547,-0.020755,-11.635651,188.495727,0
0.046875,20.770570,150.228933,-174.626326,-0.374472,2.358400,-5.977713,3.577657,-1.892882,6.093311,-3.669083,-0.029809,0.293919,-0.028224,-16.487641,188.495772,0
0.047917,-25.416092,192.270479,-112.322349,0.767838,4.328805,-5.390998,0.905623,-3.881463,5.537333,-1.049939,-0.069992,0.323642,-0.035692,-16.668601,188.495738,0
0.048958,-94.514605,198.286770,-52.271212,1.864908,6.128796,-4.453777,-1.786001,-5.675229,4.606675,1.664378,-0.157664,0.294441,-0.054364,-9.973081,188.495673,0
0.050000,-155.605313,151.219568,-1.613068,2.894118,6.483823,-2.644103,-3.972211,-6.105291,2.858164,3.860957,-0.183235,0.303848,-0.028224,-4.238911,188.495633,0
0.051042,-203.357240,88.036440,49.254356,3.844158,5.972583,-0.262952,-5.762709,-5.627444,0.485186,5.608322,-0.245336,0.310250,-0.031958,-0.246482,188.495714,0
0.052083,-177.439626,34.433469,126.084849,5.291838,4.694483,1.912467,-6.569804,-4.362986,-1.674264,6.434419,-0.227071,0.321421,-0.031958,3.327478,188.495689,0
0.053125,-131.842774,-13.539801,190.260038,6.524628,2.986799,3.703092,-6.448348,-2.734629,-3.531552,6.502943,-0.238030,0.339385,-0.013287,9.434878,188.495600,0
0.054167,-73.882596,-71.189875,199.320645,6.682968,0.238884,5.383231,-5.292556,0.084672,-5.106823,5.258088,-0.230724,0.299733,-0.028224,16.311358,188.495613,0
0.055208,-20.867749,-150.235230,174.773296,6.207948,-2.132702,6.175678,-3.662694,2.418773,-6.097914,3.735330,-0.168623,0.322597,-0.046895,21.706228,188.495609,0
0.056250,25.341598,-191.660650,113.257197,5.065638,-4.163461,5.596583,-0.982824,4.396327,-5.509705,1.139027,-0.128440,0.328606,-0.035692,21.276448,188.495586,0
0.057292,94.258631,-198.099772,53.169129,3.979878,-5.952801,4.708890,1.669621,6.296689,-4.687825,-1.533414,-0.088257,0.301170,-0.035692,15.564898,188.495781,0
0.058333,155.213229,-151.346673,2.141667,3.029838,-6.332681,2.845878,3.883256,6.741455,-2.890969,-3.707152,-0.051727,0.308878,-0.020755,11.142688,188.495694,0
0.059375,202.919786,-87.970251,-48.959659,1.989318,-5.846293,0.460917,5.669836,6.230526,-0.509933,-5.564917,0.006721,0.306200,-0.031958,5.159698,188.495712,0
0.060417,177.126940,-35.333752,-126.344129,0.552948,-4.593045,-1.733551,6.523947,4.899904,1.653546,-6.352945,0.024986,0.321617,-0.050629,1.314298,188.495636,0
0.061458,132.516885,13.195239,-189.977652,-0.645912,-2.853408,-3.474648,6.473014,3.234790,3.526949,-6.436696,0.006721,0.323119,-0.017021,-4.680001,188.420253,0
0.062500,74.953695,71.570167,-199.259849,-0.860802,-0.080641,-5.196696,5.262371,0.518410,5.154595,-5.233717,-0.022503,0.329978,-0.013287,-11.511241,188.495617,0
0.063542,21.916163,150.132286,-175.020266,-0.464952,2.258992,-6.046290,3.605083,-1.870827,6.145686,-3.699538,-0.044421,0.308160,0.012853,-16.826941,188.495783,0
0.064583,-25.075817,192.004700,-113.491856,0.756528,4.311053,-5.444336,0.901705,-3.837354,5.561506,-1.076587,-0.095563,0.315476,-0.020755,-16.860871,188.495627,0
0.065625,-94.718770,198.117637,-53.539205,1.853598,6.075541,-4.480446,-1.782083,-5.678904,4.695309,1.652957,-0.102869,0.298361,0.001650,-10.504651,188.495591,0
0.066667,-156.149753,151.569914,-2.597917,2.848878,6.547728,-2.602195,-4.030980,-6.127346,2.854136,3.834309,-0.179582,0.306592,-0.035692,-5.618731,188.495602,0
0.067708,-203.391267,89.848575,49.106629,3.821538,6.008086,-0.270572,-5.809724,-5.645823,0.513388,5.665426,-0.238030,0.310969,-0.005818,-0.506612,188.495734,0
0.068750,-177.609763,36.161038,126.577273,5.269218,4.719335,1.946755,-6.640327,-4.407095,-1.674264,6.506750,-0.245336,0.323772,-0.043161,3.214378,188.495714,0
0.069792,-133.192532,-13.008241,189.915341,6.490698,2.976149,3.733570,-6.518871,-2.753007,-3.527523,6.521977,-0.252642,0.339581,-0.024490,9.581908,188.495743,0
0.070833,-75.470547,-71.250280,199.456061,6.739518,0.221133,5.417520,-5.319982,0.033211,-5.147111,5.334226,-0.205153,0.327365,-0.028224,16.254808,188.495721,0
0.071875,-21.933944,-149.812398,175.056440,6.264498,-2.146903,6.232826,-3.674447,2.492288,-6.093885,3.773398,-0.172276,0.319265,-0.035692,21.796708,188.495819,0
0.072917,24.967295,-191.962673,113.220265,5.076948,-4.209615,5.630871,-1.014167,4.436760,-5.517763,1.131413,-0.143052,0.311426,-0.013287,21.672298,188.495604,0
0.073958,94.247288,-198.063529,53.267614,3.945948,-5.963452,4.705080,1.720554,6.307717,-4.695883,-1.571483,-0.088257,0.299733,-0.020755,15.949438,188.495660,0
0.075000,155.519476,-151.358754,2.203220,2.973288,-6.357533,2.838258,3.926353,6.730428,-2.878883,-3.779483,-0.048074,0.303914,-0.020755,10.746838,188.495645,0
0.076042,202.874416,-88.525972,-48.676515,2.000628,-5.849843,0.453298,5.720769,6.245229,-0.546193,-5.568724,-0.000585,0.310185,-0.013287,5.318038,188.495671,0
0.077083,177.194995,-34.826354,-125.900947,0.564258,-4.571743,-1.706882,6.574880,4.995474,1.625344,-6.383400,-0.007891,0.320963,-0.020755,1.325608,188.495626,0
0.078125,132.176610,13.702637,-190.002273,-0.657222,-2.828556,-3.493697,6.461260,3.304629,3.555151,-6.387207,0.003068,0.336641,-0.024490,-4.657381,188.495674,0
0.079167,74.227775,71.473520,-199.776895,-0.860802,-0.077091,-5.158598,5.270206,0.573547,5.126393,-5.233717,-0.026156,0.309662,-0.009553,-11.613031,188.495635,0
0.080208,21.076818,150.180610,-174.983334,-0.431022,2.266093,-5.977713,3.597247,-1.878179,6.089282,-3.699538,-0.044421,0.319134,-0.020755,-16.521571,188.495779,0
0.081250,-25.166557,192.040942,-112.900947,0.733908,4.286201,-5.398618,0.948720,-3.866760,5.577621,-1.061359,-0.084604,0.318938,-0.050629,-16.702531,188.495696,0
0.082292,-94.378495,198.552549,-52.480493,1.876218,6.142997,-4.503305,-1.758575,-5.711986,4.723511,1.622502,-0.168623,0.296401,-0.017021,-10.063561,188.495738,0
0.083333,-155.355777,151.702804,-1.834659,2.837568,6.522877,-2.674581,-4.027062,-6.200861,2.894424,3.800047,-0.216112,0.304697,-0.024490,-4.261531,188.495736,0
0.084375,-203.493350,88.483433,48.983523,3.821538,6.018737,-0.304861,-5.766627,-5.678904,0.501302,5.680653,-0.245336,0.308878,-0.024490,-0.223862,188.495734,0
0.085417,-177.632448,34.711329,125.789394,5.257908,4.754838,1.923896,-6.616819,-4.476934,-1.670235,6.449646,-0.234377,0.325536,0.001650,3.293548,188.495698,0
0.086458,-132.126336,-13.310264,190.272349,6.468078,3.008101,3.684043,-6.530625,-2.719926,-3.535581,6.548626,-0.205153,0.285492,-0.002084,9.423568,188.495747,0
0.087500,-74.132131,-70.948257,199.579167,6.694278,0.249535,5.425140,-5.394423,0.011157,-5.159198,5.338033,-0.212459,0.349968,-0.020755,16.288738,188.495674,0
0.088542,-21.037887,-150.054017,174.933334,6.253188,-2.118501,6.248065,-3.741052,2.459206,-6.122087,3.838116,-0.179582,0.298296,-0.020755,21.694918,188.495655,0
0.089583,25.171460,-191.757297,113.207955,5.088258,-4.135059,5.714688,-1.080772,4.418381,-5.618484,1.177095,-0.124787,0.296140,-0.024490,21.310378,188.495678,0
0.090625,94.156548,-198.377633,52.996780,3.968568,-5.959902,4.762227,1.665703,6.315068,-4.736171,-1.506766,-0.113828,0.301627,-0.009553,15.530968,188.495703,0
0.091667,155.065776,-151.455401,2.375568,2.984598,-6.424988,2.899215,3.895010,6.781889,-2.967517,-3.718573,-0.033462,0.307833,-0.039427,11.097448,188.495752,0
0.092708,203.203348,-88.550134,-48.504167,2.011938,-5.924399,0.521875,5.709016,6.296689,-0.570366,-5.583952,-0.004238,0.316521,0.012853,5.238868,188.495658,0
0.093750,177.206337,-35.176700,-126.110228,0.564258,-4.653399,-1.714502,6.578798,5.046934,1.629373,-6.459538,0.017680,0.334682,-0.024490,1.359538,188.495640,0
0.094792,132.460173,13.316048,-190.100758,-0.634602,-2.967017,-3.497507,6.555290,3.334035,3.522921,-6.569938,0.024986,0.337752,0.012853,-4.713931,188.495689,0
0.095833,74.749530,71.401035,-199.690720,-0.838182,-0.155197,-5.227175,5.356401,0.588250,5.219056,-5.336503,-0.004238,0.310642,-0.002084,-11.556481,188.495750,0
0.096875,21.746025,150.144367,-175.340341,-0.419712,2.258992,-6.080579,3.706949,-1.852449,6.210147,-3.787097,-0.004238,0.329260,0.001650,-16.781701,188.495640,0
0.097917,-24.985077,192.415450,-113.590341,0.756528,4.321704,-5.535772,1.030997,-3.855732,5.658198,-1.164145,-0.110175,0.306853,-0.039427,-16.849561,188.495723,0
0.098958,-94.525947,198.371336,-53.908523,1.830978,6.150097,-4.613790,-1.758575,-5.781825,4.820202,1.569206,-0.128440,0.304893,-0.028224,-10.504651,188.495899,0
0.100000,-156.319890,151.751127,-3.188826,2.814948,6.647136,-2.762208,-4.054488,-6.307458,2.995145,3.860957,-0.205153,0.311099,-0.039427,-5.652661,188.495725,0
0.101042,-203.538720,89.800252,48.848106,3.832848,6.157198,-0.339149,-5.848903,-5.803880,0.565763,5.749177,-0.205153,0.316391,-0.009553,-0.495302,188.495743,0
0.102083,-177.575736,36.813407,126.651137,5.325768,4.861346,1.935326,-6.773537,-4.568828,-1.690379,6.586695,-0.245336,0.326843,-0.024490,3.135208,188.495683,0
0.103125,-133.498779,-12.476682,189.939963,6.513318,3.121710,3.764049,-6.667753,-2.863280,-3.571841,6.662832,-0.227071,0.346048,-0.005818,9.615838,188.495734,0
0.104167,-75.969617,-71.081147,199.763826,6.682968,0.277937,5.508956,-5.508043,-0.047655,-5.239774,5.459853,-0.205153,0.338470,0.012853,16.288738,188.495702,0
0.105208,-22.433014,-149.872803,175.425758,6.174018,-2.154004,6.362361,-3.791986,2.426125,-6.198635,3.891412,-0.208806,0.323968,-0.009553,21.796708,188.495707,0
0.106250,24.354800,-192.578799,113.478788,5.054328,-4.266419,5.775645,-1.080772,4.436760,-5.682945,1.238006,-0.146705,0.319069,-0.024490,21.717538,188.495767,0
0.107292,94.167891,-198.280985,53.957008,3.968568,-6.048659,4.834614,1.681375,6.388583,-4.844949,-1.491539,-0.062686,0.304828,-0.043161,15.926818,188.495803,0
0.108333,156.029889,-151.407078,3.188068,3.007218,-6.492444,2.998271,3.989041,6.873782,-3.011834,-3.783290,-0.029809,0.311099,-0.031958,10.645048,188.495801,0
0.109375,203.282746,-89.093775,-48.368750,1.978008,-6.016706,0.559973,5.779538,6.414313,-0.590510,-5.637248,-0.007891,0.317175,-0.039427,5.340658,188.495689,0
0.110417,177.308420,-35.575370,-126.270266,0.530328,-4.731506,-1.664974,6.719844,5.127801,1.625344,-6.482379,0.035945,0.327300,-0.017021,1.416088,188.495734,0
0.111458,132.596283,12.953621,-190.174622,-0.668532,-2.970567,-3.516556,6.582716,3.374468,3.547094,-6.585165,-0.026156,0.340888,-0.009553,-4.702621,188.495653,0
0.112500,74.613420,71.219821,-200.084660,-0.838182,-0.155197,-5.272893,5.415170,0.588250,5.247258,-5.355538,-0.007891,0.334290,-0.013287,-11.646961,188.495649,0
0.113542,21.587230,150.265176,-175.328031,-0.431022,2.266093,-6.095818,3.750046,-1.881855,6.206118,-3.790904,-0.026156,0.321551,-0.050629,-16.498951,188.495770,0
0.114583,-24.565404,192.765796,-112.814773,0.779148,4.328805,-5.551011,0.983982,-3.903517,5.686400,-1.164145,-0.110175,0.318677,-0.002084,-16.793011,188.495738,0
0.115625,-94.219700,198.673359,-52.997538,1.864908,6.206902,-4.609981,-1.754658,-5.807556,4.812145,1.599661,-0.150358,0.300255,-0.043161,-10.040941,188.495667,0
0.116667,-155.990958,151.412862,-2.499432,2.837568,6.640036,-2.758398,-4.023144,-6.255997,2.999173,3.853343,-0.183235,0.309205,-0.028224,-4.193671,188.495647,0
0.117708,-203.742885,88.688808,48.601894,3.810228,6.157198,-0.358198,-5.864575,-5.833286,0.565763,5.730143,-0.227071,0.314039,-0.017021,-0.280412,188.495531,0
0.118750,-177.496338,35.327455,125.838637,5.246598,4.896849,1.912467,-6.769619,-4.568828,-1.670235,6.586695,-0.245336,0.314562,-0.024490,3.214378,188.495645,0
0.119792,-132.285131,-12.851190,190.407766,6.502008,3.114609,3.779289,-6.699096,-2.848577,-3.579898,6.697095,-0.208806,0.310773,-0.009553,9.423568,188.495772,0
0.120833,-74.404351,-70.634154,199.948485,6.705588,0.274387,5.489907,-5.488453,-0.040304,-5.243803,5.425591,-0.252642,0.324164,-0.005818,16.356598,188.495676,0
0.121875,-21.582327,-149.969450,175.154925,6.264498,-2.122051,6.377600,-3.842919,2.459206,-6.271153,3.918061,-0.197847,0.317566,-0.020755,21.672298,188.495627,0
0.122917,24.547623,-192.373423,112.850947,5.076948,-4.216715,5.794694,-1.084690,4.491896,-5.727262,1.257040,-0.164970,0.302999,-0.009553,21.378238,188.495693,0
0.123958,93.907013,-198.534684,53.193750,3.957258,-6.041558,4.868903,1.626524,6.425341,-4.840920,-1.464890,-0.102869,0.304828,-0.024490,15.542278,188.570968,0
0.125000,155.406051,-151.189622,3.015720,3.041148,-6.524396,3.032560,3.945943,6.859079,-3.007805,-3.771869,-0.026156,0.310642,-0.024490,10.984348,188.495557,0
0.126042,203.430198,-88.441406,-47.888637,2.045868,-6.059310,0.594262,5.775621,6.432692,-0.586481,-5.667703,-0.011544,0.318546,-0.009553,5.272798,188.495508,0
0.127083,177.036200,-35.092134,-126.011743,0.564258,-4.756357,-1.687833,6.743351,5.149855,1.621315,-6.588972,0.006721,0.325993,0.005384,1.404778,188.495855,0
0.128125,132.221980,12.953621,-190.125379,-0.623292,-2.988319,-3.512746,6.653239,3.436956,3.539036,-6.630848,0.014027,0.327365,0.005384,-4.680001,188.495606,0
