1-Time,2-VGERA,3-VGERB,4-VGERC,5-VN,6-IGERAN,7-IGERBN,8-IGERCN,9-IGERAT,10-IGERBT,11-IGERCT,12-IN,13-IFD,14-IFAULT,15-VFAULT,16-Speed (rad/s),17-Active Power,18-Reactive Power,19-FAULT 
0.000000,163.357144,-167.667975,-16.225758,2.588748,-4.869966,4.860021,0.535648,5.098395,-4.896308,-0.364355,-0.121134,0.448021,-0.054364,109.833746,188.647213,1576.660239,20.867378,0
0.001043,183.013697,-102.032423,-73.260796,1.502988,-5.512567,3.105907,2.770738,5.646082,-3.188254,-2.516852,-0.077298,0.448543,-0.046895,130.678076,188.496434,1576.718006,20.324882,0
0.002085,190.703913,-27.106656,-133.915152,0.315438,-5.558720,1.331950,4.285674,5.712245,-1.400463,-4.053842,-0.033462,0.456578,-0.073035,138.606385,188.495928,1576.736599,20.192937,0
0.003126,148.475783,39.350396,-174.183144,-0.431022,-4.514939,-0.834896,5.233442,4.745523,0.685293,-4.968208,-0.022503,0.456382,-0.058098,112.910066,188.496458,1576.962786,20.198490,0
0.004167,74.023610,90.307650,-203.950190,-0.962592,-2.853408,-3.120801,5.666281,3.076732,3.102589,-5.434286,-0.037115,0.442795,-0.046895,64.367547,188.647357,1577.075133,20.420635,0
0.005208,13.341232,151.098759,-177.211554,-0.521502,-0.772945,-4.466151,4.841649,1.099179,4.395170,-4.687138,-0.022503,0.436981,-0.031958,20.303788,188.496487,1578.103619,20.955696,0
0.006252,-48.078408,192.318803,-127.365909,0.473778,1.506333,-5.454328,3.457310,-1.268004,5.532474,-3.402756,-0.051727,0.450829,-0.054364,-25.399921,188.496561,1579.108101,20.408598,0
0.007292,-104.450635,194.348395,-50.658523,1.921458,3.537093,-5.410673,1.401325,-3.341127,5.490507,-1.406804,-0.102869,0.444362,-0.043161,-63.933090,188.495738,1579.629117,20.110609,0
0.008333,-163.329555,167.975781,16.643561,3.188178,5.060162,-4.736014,-0.639734,-4.851861,4.894576,0.564243,-0.143052,0.449392,-0.058098,-105.893189,188.646594,1580.321727,19.371154,0
0.009375,-183.700686,102.291906,73.013826,4.251318,5.670810,-2.962057,-2.867362,-5.454684,3.169736,2.688278,-0.190541,0.446387,-0.046895,-126.624419,188.495752,1581.215405,19.001254,0
0.010419,-191.118682,27.426544,133.717425,5.416248,5.635307,-1.144446,-4.434537,-5.476738,1.327387,4.328445,-0.227071,0.428684,-0.054364,-133.783649,188.571156,1581.222016,18.792674,0
0.011458,-148.470880,-38.704324,174.194697,6.196638,4.658980,0.954935,-5.341260,-4.498989,-0.716402,5.157424,-0.223418,0.446387,-0.080503,-110.145749,188.495655,1581.503180,18.427290,0
0.012499,-74.358981,-89.613254,203.986364,6.694278,2.965498,3.272588,-5.733054,-2.841225,-3.108517,5.680427,-0.296478,0.455598,-0.035692,-59.295990,188.646498,1582.318209,18.893344,0
0.013540,-13.926139,-150.621819,177.493940,6.264498,0.906336,4.625875,-4.938272,-0.808536,-4.459852,4.851449,-0.219765,0.443905,-0.061832,-14.949481,188.494773,1583.169861,18.669886,0
0.014582,47.368734,-192.192210,127.919129,5.314458,-1.348090,5.618021,-3.561397,1.466754,-5.530009,3.602645,-0.216112,0.453965,-0.046895,29.397028,188.494866,1583.737747,18.694940,0
0.015624,103.831701,-194.487581,51.433333,3.900708,-3.425003,5.558492,-1.449441,3.525174,-5.479648,1.610250,-0.175929,0.450699,-0.069301,68.970717,188.494864,1583.902646,18.656645,0
0.016665,163.073581,-167.849188,-15.868750,2.566128,-4.919670,4.867959,0.535648,5.061637,-4.879521,-0.378586,-0.132093,0.449458,-0.054364,109.743266,188.570332,1583.326767,18.375494,0
0.017707,183.081752,-102.261960,-72.682197,1.514298,-5.516117,3.129719,2.759544,5.671812,-3.175664,-2.449253,-0.066339,0.447759,-0.069301,131.492396,188.495151,1583.170833,18.710992,0
0.018749,190.817338,-27.275789,-133.287311,0.315438,-5.555170,1.343856,4.330451,5.741651,-1.371086,-4.075189,-0.080951,0.451025,-0.031958,139.726075,188.570352,1583.502859,18.089843,0
0.019790,148.906798,39.241668,-173.715341,-0.419712,-4.507838,-0.803148,5.237174,4.789632,0.672703,-4.918398,0.006721,0.430187,-0.017021,113.102336,188.494907,1583.281321,18.579908,0
0.020832,74.341200,90.041870,-203.888637,-0.973902,-2.888911,-3.124769,5.636430,3.084084,3.098392,-5.437844,-0.000585,0.433910,-0.084238,64.819947,188.570269,1583.327113,18.523640,0
0.021874,14.203262,150.555118,-177.593182,-0.532812,-0.843951,-4.434402,4.841649,1.066097,4.395170,-4.662233,-0.044421,0.443382,-0.046895,21.310378,188.494851,1583.025766,17.536922,0
0.022916,-47.182350,192.512097,-127.809091,0.462468,1.463730,-5.462265,3.502087,-1.194489,5.507294,-3.413429,-0.022503,0.443970,-0.073035,-24.348091,188.571373,1582.665120,18.097764,0
0.023959,-103.928880,194.324233,-51.200190,1.864908,3.551294,-5.370988,1.382669,-3.260261,5.473720,-1.442382,-0.091910,0.447629,-0.039427,-63.774750,188.495560,1581.960884,18.864553,0
0.025000,-163.839968,167.734163,16.409659,3.165558,5.042410,-4.728077,-0.617346,-4.793049,4.894576,0.542896,-0.143052,0.446845,-0.058098,-104.852669,188.571169,1581.427942,19.506722,0
0.026044,-183.178931,102.352311,73.075379,4.228698,5.603354,-2.946183,-2.844973,-5.388520,3.165539,2.645584,-0.172276,0.445799,-0.076769,-126.149399,188.495718,1580.258748,19.980707,0
0.027084,-191.334189,27.559434,133.261932,5.371008,5.653058,-1.168257,-4.412149,-5.484090,1.352568,4.243057,-0.238030,0.422740,-0.061832,-133.862819,188.495682,1579.615401,20.817997,0
0.028125,-149.151430,-39.115075,173.320644,6.207948,4.655430,0.923186,-5.296484,-4.532070,-0.657648,5.096940,-0.248989,0.452267,-0.028224,-108.731999,188.496018,1579.043780,21.899512,0
0.029168,-74.665229,-89.709901,204.047917,6.773448,2.990350,3.256714,-5.766636,-2.855928,-3.104320,5.637733,-0.238030,0.436654,-0.084238,-59.273370,188.571971,1578.686801,21.998693,0
0.030211,-14.402524,-150.464767,177.543182,6.264498,0.948940,4.610001,-4.934541,-0.867348,-4.396901,4.855007,-0.238030,0.461086,-0.069301,-15.809041,188.496510,1578.177783,22.909249,0
0.031251,46.869664,-192.663365,128.042235,5.337078,-1.344540,5.606115,-3.583785,1.426321,-5.546795,3.627549,-0.212459,0.451679,-0.046895,28.673188,188.496476,1578.588193,23.370880,0
0.032292,103.582166,-194.354692,51.728788,3.866778,-3.382400,5.578335,-1.509143,3.517822,-5.504828,1.617366,-0.161317,0.445930,-0.046895,69.219537,188.496463,1578.790516,23.411619,0
0.033332,163.152979,-167.764622,-15.733333,2.577438,-4.884167,4.915582,0.502065,5.061637,-4.883718,-0.378586,-0.095563,0.448804,-0.046895,109.607546,188.496235,1578.827171,23.423638,0
0.034374,182.718792,-102.672711,-72.497538,1.559538,-5.530318,3.169405,2.725962,5.682839,-3.200844,-2.452811,-0.044421,0.444101,-0.073035,130.135196,188.496433,1579.070100,23.427162,0
0.035415,191.055530,-27.070414,-133.065720,0.349368,-5.555170,1.339888,4.308063,5.774733,-1.366889,-4.117883,-0.040768,0.445865,-0.061832,139.013545,188.496539,1579.812259,23.145867,0
0.036457,149.247073,39.205426,-173.432198,-0.431022,-4.536240,-0.755525,5.244637,4.767577,0.681097,-4.932630,-0.022503,0.463764,-0.043161,113.679146,188.496538,1579.796112,22.718898,0
0.037499,74.772215,89.848575,-203.974811,-0.996522,-2.920864,-3.104926,5.684938,3.117166,3.098392,-5.487654,-0.004238,0.460955,-0.039427,65.294967,188.647264,1580.648016,22.891674,0
0.038540,14.929182,150.688008,-177.876326,-0.544122,-0.872353,-4.470119,4.845380,1.117558,4.365793,-4.662233,-0.040768,0.460955,-0.035692,21.694918,188.495834,1580.589590,23.408203,0
0.039582,-46.762678,192.439612,-128.338447,0.439848,1.449529,-5.454328,3.472236,-1.242274,5.528277,-3.452566,-0.048074,0.450307,-0.028224,-24.608221,188.495687,1581.356095,22.880007,0
0.040624,-103.826798,194.577932,-51.594129,1.853598,3.551294,-5.426548,1.438639,-3.289667,5.482113,-1.424593,-0.069992,0.445734,-0.061832,-63.401520,188.495428,1581.701716,22.262358,0
0.041665,-163.193445,168.108671,16.274242,3.154248,5.028209,-4.728077,-0.561375,-4.804076,4.873593,0.514434,-0.150358,0.445146,-0.061832,-105.644369,188.420347,1581.497867,22.166794,0
0.042707,-183.292356,102.533524,72.656818,4.217388,5.653058,-2.946183,-2.803928,-5.406899,3.190719,2.631352,-0.179582,0.442337,-0.054364,-126.115469,188.495740,1581.818706,22.373666,0
0.043751,-191.390902,27.221169,133.052652,5.393628,5.702762,-1.176195,-4.442000,-5.484090,1.339978,4.271520,-0.230724,0.420519,-0.024490,-134.089019,188.495280,1581.975459,22.064003,0
0.044793,-148.924580,-38.776810,173.751516,6.207948,4.676732,0.935092,-5.326334,-4.550449,-0.682828,5.146750,-0.270907,0.453051,-0.061832,-110.745179,188.494822,1582.810746,21.674947,0
0.045833,-75.221011,-89.371636,203.838637,6.739518,3.015202,3.272588,-5.762905,-2.866956,-3.095927,5.662638,-0.259948,0.445277,-0.073035,-60.212100,188.419618,1583.086528,21.620412,0
0.046876,-15.480061,-150.368120,177.740152,6.287118,0.963141,4.637781,-4.956929,-0.929835,-4.388508,4.847891,-0.227071,0.459844,-0.043161,-15.865591,188.494759,1583.103278,21.926647,0
0.047919,46.574759,-192.168048,128.460796,5.348388,-1.351641,5.625958,-3.539008,1.433672,-5.555189,3.634665,-0.190541,0.453965,-0.043161,29.306548,188.494938,1583.179920,21.633170,0
0.048959,103.514111,-194.475501,51.568750,3.844158,-3.414352,5.582304,-1.538994,3.528850,-5.513222,1.628040,-0.190541,0.445081,-0.061832,68.834997,188.488540,1583.412060,21.696919,0
0.050001,162.824046,-167.861269,-15.967235,2.554818,-4.880617,4.875896,0.554305,5.072665,-4.908898,-0.357239,-0.110175,0.443905,-0.013287,109.483136,188.417975,1583.698921,22.052188,0
0.051041,182.650737,-102.382769,-72.337500,1.525608,-5.484164,3.161468,2.748350,5.646082,-3.205041,-2.438579,-0.059033,0.442860,-0.039427,131.073926,188.494746,1583.122836,22.324891,0
0.052086,190.805995,-26.720068,-132.979546,0.394608,-5.548069,1.351793,4.289406,5.763706,-1.379479,-4.096536,-0.040768,0.435478,-0.050629,139.782625,188.494806,1582.704062,22.728571,0
0.053125,149.553321,38.915484,-173.161364,-0.374472,-4.522039,-0.727745,5.218517,4.763902,0.664310,-4.953977,-0.007891,0.454292,-0.020755,113.588666,188.495016,1582.859338,22.621201,0
0.054166,75.656930,89.788171,-203.679357,-0.962592,-2.917313,-3.061272,5.640162,3.124517,3.018655,-5.459191,-0.000585,0.463437,-0.035692,65.690817,188.495633,1582.099364,23.197759,0
0.055207,15.802555,150.059801,-178.159470,-0.510192,-0.854602,-4.422496,4.841649,1.146964,4.319629,-4.633771,-0.007891,0.462457,-0.050629,22.260418,188.496051,1581.336694,23.218213,0
0.056249,-46.308978,192.632907,-128.239963,0.417228,1.417576,-5.422579,3.475967,-1.172435,5.465327,-3.427661,-0.066339,0.453181,-0.043161,-24.054031,188.495685,1580.188776,23.815153,0
0.057290,-103.214303,194.698741,-51.692614,1.864908,3.487389,-5.406705,1.449833,-3.219828,5.469523,-1.438824,-0.088257,0.443970,-0.046895,-63.231870,188.495693,1579.520782,24.363961,0
0.058332,-163.295528,167.782487,15.744886,3.142938,4.985606,-4.720140,-0.591226,-4.748940,4.856806,0.535781,-0.106522,0.442337,-0.046895,-104.626469,188.420403,1578.725212,24.210799,0
0.059374,-182.634491,103.137570,72.533712,4.262628,5.574952,-3.017617,-2.733032,-5.351763,3.215899,2.560195,-0.161317,0.441161,-0.050629,-125.289839,188.488290,1577.774753,25.052557,0
0.060415,-191.368217,27.728567,132.658713,5.427558,5.638857,-1.207943,-4.382298,-5.476738,1.335781,4.211036,-0.197847,0.474281,-0.035692,-134.156879,188.420520,1577.082683,25.208224,0
0.061457,-150.228967,-38.378140,172.557387,6.162708,4.680282,0.887469,-5.285289,-4.513692,-0.640861,5.068477,-0.238030,0.442664,-0.043161,-109.682039,188.496111,1575.755364,25.221793,0
0.062499,-76.332577,-88.972966,203.543182,6.762138,3.029403,3.185279,-5.729322,-2.918416,-3.032976,5.605712,-0.241683,0.454488,-0.054364,-60.246030,188.420690,1575.000419,25.891966,0
0.063540,-16.353434,-149.353324,178.294129,6.264498,0.980892,4.534598,-4.897227,-0.922484,-4.342344,4.862122,-0.252642,0.443252,-0.050629,-16.770391,188.496094,1574.623209,25.585931,0
0.064583,45.950921,-192.506313,128.350000,5.314458,-1.305487,5.574367,-3.531546,1.411618,-5.475452,3.613318,-0.201500,0.440377,-0.039427,28.345198,188.495303,1573.493437,25.682465,0
0.065626,102.935644,-194.499662,51.605682,3.866778,-3.346897,5.526744,-1.497949,3.459010,-5.387321,1.596019,-0.146705,0.442141,-0.050629,68.834997,188.496586,1571.280156,25.504795,0
0.066667,162.869416,-167.510923,-15.770265,2.588748,-4.838014,4.875896,0.483408,4.999150,-4.858538,-0.360797,-0.110175,0.442272,-0.061832,109.426586,188.345652,1569.939595,25.556505,0
0.067708,182.231065,-102.733116,-72.288258,1.525608,-5.438011,3.177342,2.725962,5.572567,-3.167270,-2.420790,-0.066339,0.439920,-0.046895,129.626246,188.496516,1568.667007,25.339784,0
0.068750,190.976133,-27.299951,-132.536364,0.371988,-5.505466,1.355762,4.270749,5.712245,-1.358496,-4.036052,-0.044421,0.452920,-0.028224,139.149265,188.421342,1567.503256,25.113019,0
0.069794,149.746143,38.565138,-173.099811,-0.408402,-4.536240,-0.743619,5.170009,4.719793,0.639130,-4.914841,-0.022503,0.447955,-0.043161,114.108926,188.496306,1566.628467,25.084141,0
0.070834,76.564330,89.534472,-203.642425,-0.996522,-2.892461,-3.096989,5.614042,3.076732,3.043835,-5.452075,-0.018850,0.471472,-0.035692,66.041427,188.345028,1566.550316,23.998481,0
0.071875,16.426393,150.083963,-178.036364,-0.532812,-0.858152,-4.434402,4.800603,1.095503,4.357400,-4.637329,-0.018850,0.459452,-0.050629,22.011598,188.495785,1566.895380,22.975159,0
0.072917,-46.343005,192.463774,-128.252273,0.405918,1.435328,-5.418611,3.449848,-1.205517,5.477917,-3.406314,-0.073645,0.448674,-0.073035,-24.619531,188.420305,1566.923220,22.381631,0
0.073960,-103.452495,194.614175,-50.892424,1.887528,3.544193,-5.398768,1.378937,-3.241882,5.440146,-1.424593,-0.106522,0.439724,-0.035692,-63.367590,188.476913,1566.618271,22.288326,0
0.075000,-162.943910,167.927458,16.138826,3.142938,4.996257,-4.708234,-0.598689,-4.756291,4.827429,0.521549,-0.146705,0.438548,-0.061832,-105.418169,188.404365,1566.339058,22.265234,0
0.076041,-182.895369,102.968437,72.250568,4.228698,5.578502,-2.942214,-2.774077,-5.326032,3.152949,2.585100,-0.172276,0.439528,-0.046895,-125.674379,188.485569,1565.755975,21.392756,0
0.077082,-191.379559,28.066832,132.646402,5.416248,5.660159,-1.207943,-4.389761,-5.465711,1.373551,4.235941,-0.223418,0.450307,-0.035692,-134.326529,188.415459,1565.975455,21.482420,0
0.078124,-150.274337,-37.520396,173.000569,6.207948,4.658980,0.939061,-5.311409,-4.510016,-0.640861,5.082709,-0.245336,0.444036,-0.046895,-111.751769,188.489835,1566.212864,21.140294,0
0.079166,-77.171922,-88.622620,203.469319,6.762138,3.015202,3.256714,-5.725591,-2.881659,-3.095927,5.630617,-0.238030,0.459060,-0.046895,-60.969870,188.338535,1566.777514,19.798544,0
0.080207,-16.636996,-149.522457,178.146402,6.287118,0.973792,4.586189,-4.915884,-0.904105,-4.401098,4.826544,-0.219765,0.459910,-0.039427,-16.170961,188.483761,1566.965607,18.967486,0
0.081249,45.905551,-192.228452,128.657766,5.337078,-1.330339,5.582304,-3.535277,1.426321,-5.488042,3.588413,-0.227071,0.452332,-0.046895,28.854148,188.476365,1566.928357,18.434523,0
0.082291,102.595369,-194.620471,51.593371,3.889398,-3.350447,5.526744,-1.471829,3.539877,-5.429288,1.581788,-0.175929,0.441423,-0.080503,68.258187,188.477078,1567.911156,17.528190,0
0.083332,162.563169,-167.692136,-15.487121,2.600058,-4.823813,4.828273,0.453558,5.032231,-4.845948,-0.346565,-0.124787,0.437830,-0.061832,109.256936,188.325768,1568.063721,17.242868,0
0.084374,182.333147,-103.083462,-71.869697,1.548228,-5.445111,3.145593,2.699842,5.579918,-3.171467,-2.385212,-0.095563,0.446061,-0.065566,130.678076,188.488540,1568.039341,17.439294,0
0.085418,190.930763,-27.964401,-132.487122,0.371988,-5.540969,1.383542,4.293137,5.693866,-1.383676,-4.025379,-0.033462,0.449980,-0.061832,140.065375,188.415248,1567.830998,17.529837,0
0.086458,150.551461,37.719474,-172.632008,-0.419712,-4.536240,-0.759493,5.173740,4.756550,0.592966,-4.893494,-0.033462,0.452071,-0.050629,114.255956,188.488496,1567.867340,17.914957,0
0.087501,77.131455,89.329096,-203.383902,-0.962592,-2.853408,-3.132706,5.614042,3.080408,3.077408,-5.437844,-0.004238,0.460890,-0.061832,65.803917,188.420330,1567.919111,17.382625,0
0.088542,16.517133,149.479917,-178.344129,-0.532812,-0.829750,-4.394716,4.811798,1.091827,4.307039,-4.637329,-0.015197,0.456447,-0.043161,22.215178,188.420285,1567.348531,17.477763,0
0.089584,-46.184210,192.644987,-128.141478,0.417228,1.438878,-5.418611,3.419997,-1.198165,5.482113,-3.367177,-0.084604,0.437830,-0.054364,-24.087961,188.419943,1567.086007,17.194125,0
0.090625,-102.545095,194.831631,-51.323296,1.887528,3.480288,-5.343208,1.442371,-3.227179,5.402376,-1.403246,-0.102869,0.439855,-0.043161,-63.016980,188.495531,1566.381999,16.597992,0
0.091669,-163.023308,167.697921,15.954167,3.188178,4.925251,-4.700297,-0.546450,-4.756291,4.852609,0.532223,-0.110175,0.439202,-0.039427,-104.558609,188.344836,1566.590476,16.628024,0
0.092708,-182.521066,103.705372,72.164394,4.217388,5.610455,-3.017617,-2.725570,-5.344411,3.148752,2.563753,-0.190541,0.442533,-0.031958,-125.120189,188.420191,1566.672883,16.537622,0
0.093750,-191.470299,28.852091,132.707955,5.404938,5.681461,-1.223818,-4.318865,-5.484090,1.402928,4.200363,-0.234377,0.445865,-0.054364,-134.337839,188.420349,1566.753051,16.962815,0
0.094794,-151.102340,-37.459991,172.754357,6.162708,4.623478,0.903343,-5.244244,-4.557801,-0.598895,5.061362,-0.238030,0.465854,-0.024490,-109.964789,188.495531,1567.018974,17.664924,0
0.095835,-77.602937,-88.707186,203.629357,6.784758,3.011651,3.248776,-5.740517,-2.889010,-3.083337,5.627059,-0.256295,0.466181,-0.020755,-60.223410,188.345095,1567.087055,17.753564,0
0.096874,-16.557599,-148.990897,178.626516,6.321048,0.970241,4.530629,-4.882301,-0.918808,-4.346541,4.808755,-0.234377,0.467030,-0.091706,-16.645981,188.420318,1566.372183,18.047025,0
0.097915,45.882866,-192.675446,128.497728,5.348388,-1.262884,5.614052,-3.583785,1.404266,-5.471255,3.595529,-0.201500,0.451940,-0.031958,28.232098,188.419980,1566.279318,18.469522,0
0.098957,102.130326,-194.765442,51.716477,3.900708,-3.329146,5.530712,-1.542725,3.488416,-5.475452,1.620924,-0.143052,0.441945,-0.046895,68.348667,188.495530,1566.578029,19.293344,0
0.099999,162.710621,-167.595489,-15.068561,2.633988,-4.855765,4.879864,0.472214,4.995474,-4.883718,-0.325218,-0.143052,0.439332,-0.039427,109.415276,188.345015,1566.578197,19.905209,0
0.101040,182.208380,-103.832478,-71.758902,1.582158,-5.466413,3.185279,2.658797,5.620351,-3.267991,-2.395885,-0.055380,0.445277,-0.043161,129.445286,188.420247,1567.848672,20.429948,0
0.102082,191.180298,-28.906711,-132.327084,0.428538,-5.555170,1.371636,4.270749,5.719597,-1.429840,-4.078747,-0.033462,0.439594,-0.076769,139.375465,188.420462,1568.848489,20.248269,0
0.103124,151.175298,37.199996,-172.558144,-0.397092,-4.553992,-0.692027,5.211054,4.774929,0.605556,-4.936188,-0.004238,0.463111,-0.035692,114.719666,188.495685,1569.651503,19.743774,0
0.104165,77.641868,88.737132,-203.617804,-1.030452,-2.867609,-3.116832,5.658819,3.109814,3.039638,-5.444960,-0.018850,0.447825,-0.058098,66.143217,188.341435,1569.730692,20.085369,0
0.105207,16.437735,149.431594,-178.565720,-0.510192,-0.822649,-4.434402,4.815529,1.102855,4.361596,-4.648002,-0.000585,0.458211,-0.058098,22.045528,188.419786,1570.443135,19.877396,0
0.106249,-46.172868,192.560421,-128.584659,0.394608,1.492132,-5.458296,3.513281,-1.220220,5.515687,-3.456123,-0.059033,0.425287,-0.020755,-24.427261,188.420332,1571.681219,20.200965,0
0.107291,-102.499725,195.061168,-51.372538,1.898838,3.512241,-5.398768,1.423714,-3.322749,5.465327,-1.445940,-0.077298,0.439398,-0.050629,-62.632440,188.495673,1573.348910,19.896553,0
0.108333,-162.728403,168.156995,15.510985,3.188178,5.017559,-4.716171,-0.609883,-4.804076,4.894576,0.539338,-0.143052,0.441423,-0.061832,-105.463409,188.344849,1574.291977,19.522804,0
0.109376,-183.054164,103.814100,71.955114,4.217388,5.638857,-3.009680,-2.815123,-5.399547,3.182326,2.599332,-0.172276,0.443970,-0.039427,-125.832719,188.420312,1575.512943,19.328105,0
0.110417,-191.663122,29.444055,132.732576,5.393628,5.688561,-1.211912,-4.427074,-5.520847,1.381944,4.253730,-0.216112,0.455010,-0.028224,-134.496179,188.420278,1576.463317,18.558653,0
