1-Time,2-VGERA,3-VGERB,4-VGERC,5-VN,6-IGERAN,7-IGERBN,8-IGERCN,9-IGERAT,10-IGERBT,11-IGERCT,12-IN,13-IFD,14-IFAULT,15-VFAULT,16-Speed (rad/s),17-Active Power,18-Reactive Power,19-FAULT 
0.000000,-148.224019,173.625076,-8.768492,0.145379,0.534127,-4.697044,3.694730,-0.514371,4.786618,-3.753625,-0.090349,0.578160,-0.011006,3.034958,188.646820,1001.708671,1004.838412,0
0.001042,-168.620384,141.173613,70.010795,1.687904,2.251440,-5.028183,2.291326,-2.276600,4.937599,-2.245720,-0.039302,0.578022,0.011294,1.571376,188.495955,1001.741028,1005.466585,0
0.002083,-183.208588,62.552515,124.158644,2.701241,3.880686,-4.590753,0.192020,-4.027434,4.523478,-0.159022,0.000805,0.579332,0.007577,-0.511414,188.571545,1001.287085,1006.083619,0
0.003125,-165.592004,-12.815214,161.998950,3.523169,4.790715,-3.715892,-1.451084,-4.878165,3.596019,1.524044,0.051852,0.572579,-0.003573,-1.671022,188.496011,1001.538617,1006.914363,0
0.004167,-117.544722,-82.674534,180.992013,3.905986,4.834749,-1.778118,-3.357084,-4.984506,1.585807,3.435580,0.059144,0.576920,-0.040740,-3.190896,188.646862,1001.330773,1006.983641,0
0.005208,-38.253146,-132.626062,182.814764,3.951023,4.361387,0.196450,-4.567182,-4.430012,-0.260483,4.505584,0.070083,0.591734,-0.011006,-3.461095,188.496040,1000.937417,1007.937483,0
0.006250,33.648279,-172.970172,149.810823,3.297983,3.234859,2.011581,-5.112306,-3.324822,-2.132656,5.095799,0.121129,0.588702,0.011294,-4.012753,188.571489,1000.091146,1009.237967,0
0.007292,104.634410,-174.590983,96.951052,2.228350,1.436817,3.642746,-4.741158,-1.448656,-3.681296,4.642666,0.084667,0.587875,-0.007290,-3.562420,188.495998,999.556093,1009.983445,0
0.008333,148.534620,-173.580912,9.410409,0.561974,-0.511673,4.685220,-3.805555,0.533851,-4.776992,3.705937,0.081021,0.584637,-0.025873,-2.357780,188.646857,999.490311,1010.327115,0
0.009375,168.964885,-141.470055,-69.247362,-0.935513,-2.210639,5.020447,-2.421482,2.277089,-5.018562,2.163761,0.026329,0.586497,0.000144,-1.603472,188.495971,999.500075,1010.711374,0
0.010417,183.473989,-63.072112,-123.832671,-1.993888,-3.960978,4.587105,-0.279648,4.077297,-4.569931,0.061833,-0.024718,0.577678,-0.007290,1.121043,188.571415,999.628321,1011.148016,0
0.011458,165.631407,12.319107,-161.903859,-2.793298,-4.823304,3.659099,1.394385,4.912836,-3.651100,-1.575539,-0.079410,0.583121,0.011294,2.269392,188.496027,1000.016027,1011.672431,0
0.012500,117.866623,82.554268,-180.884770,-3.209892,-4.922380,1.749941,3.273323,5.057156,-1.632259,-3.490884,-0.086703,0.582708,-0.011006,3.924366,188.722224,999.817985,1011.857500,0
0.013542,39.162643,132.588011,-182.561701,-3.221151,-4.404984,-0.171482,4.514349,4.445693,0.283051,-4.572311,-0.083057,0.587462,-0.011006,4.104499,188.496053,1000.125006,1011.833515,0
0.014583,-33.145580,173.049570,-149.630670,-2.601890,-3.245430,-2.068375,5.047875,3.294928,2.150909,-5.113024,-0.090349,0.590838,-0.025873,4.385957,188.496143,999.736194,1010.852697,0
0.015625,-104.256010,174.458972,-96.770899,-1.611071,-1.443719,-3.654570,4.653530,1.452944,3.686608,-4.667507,-0.086703,0.586222,-0.025873,4.295890,188.495995,999.491180,1010.175230,0
0.016667,-148.642116,173.354941,-9.303166,0.122861,0.504771,-4.750190,3.714061,-0.514371,4.747794,-3.719354,-0.086703,0.585739,-0.029590,3.034958,188.646817,999.104678,1009.573697,0
0.017708,-168.925482,141.114888,69.451819,1.665385,2.222084,-5.036359,2.306791,-2.265206,4.989364,-2.188602,-0.017425,0.583397,-0.025873,1.886609,188.496044,999.697316,1009.326854,0
0.018750,-183.637985,63.045806,124.110038,2.712500,3.957745,-4.586664,0.172689,-4.023636,4.519164,-0.063826,-0.002841,0.575611,-0.007290,-0.522673,188.571456,1000.615105,1008.418797,0
0.019792,-165.456405,-12.145749,162.278439,3.489392,4.768698,-3.679099,-1.458816,-4.843984,3.565823,1.497389,0.033621,0.585808,-0.029590,-1.749830,188.496009,1000.137651,1007.917466,0
0.020833,-117.815920,-82.028559,181.320108,3.872208,4.878782,-1.724972,-3.337754,-4.965517,1.559924,3.424157,0.081021,0.580021,-0.011006,-3.067054,188.722237,1000.221879,1007.350940,0
0.021875,-39.044141,-132.790492,182.571730,3.827171,4.332031,0.229155,-4.478261,-4.376841,-0.260483,4.478929,0.110191,0.587737,-0.011006,-3.494870,188.496042,999.931723,1006.553044,0
0.022917,33.117183,-173.205072,149.835127,3.275465,3.205503,1.995229,-5.096841,-3.279247,-2.188735,5.050105,0.128422,0.590149,0.022444,-3.990237,188.571458,1000.358441,1005.384650,0
0.023958,104.645710,-174.038968,96.938900,2.284646,1.436817,3.618217,-4.714095,-1.425869,-3.685610,4.619819,0.110191,0.588220,-0.014723,-3.675004,188.495987,1000.290213,1004.806064,0
0.025000,148.681519,-173.627892,9.410409,0.561974,-0.515343,4.693396,-3.782358,0.541446,-4.794247,3.667859,0.081021,0.584086,-0.014723,-2.594204,188.646869,1000.526984,1004.437964,0
0.026042,168.772786,-141.047234,-69.356727,-0.958032,-2.232656,4.971389,-2.348025,2.330260,-4.945228,2.163761,0.033621,0.578022,0.007577,-1.614730,188.496089,1000.368916,1003.655105,0
0.027083,183.541789,-63.130838,-123.711155,-2.038925,-3.927952,4.542135,-0.225522,4.054509,-4.513852,0.058025,0.000805,0.577058,-0.033307,1.244884,188.571451,999.941220,1002.936844,0
0.028125,165.348909,12.436557,-161.830949,-2.838335,-4.797617,3.671363,1.386653,4.867261,-3.612276,-1.564116,-0.061180,0.582156,-0.037023,2.314425,188.495957,999.264294,1002.250256,0
0.029167,117.764923,82.425073,-181.091349,-3.131077,-4.863668,1.758117,3.261724,4.992592,-1.649515,-3.506115,-0.072118,0.580227,-0.007290,3.789266,188.722315,998.945481,1001.823118,0
0.030208,39.219142,132.646736,-182.513094,-3.164855,-4.327925,-0.187834,4.440893,4.438098,0.283051,-4.549464,-0.072118,0.586704,-0.003573,4.059465,188.495997,998.669805,1001.657420,0
0.031250,-33.179479,172.932120,-149.788642,-2.579371,-3.205066,-2.039758,5.036276,3.321513,2.125027,-5.132064,-0.101287,0.591734,-0.014723,4.408473,188.571449,998.538662,1002.192571,0
0.032292,-104.628907,174.130111,-96.369893,-1.577294,-1.458397,-3.625953,4.680593,1.471933,3.643471,-4.667507,-0.119518,0.581399,-0.025873,4.205824,188.496076,997.693230,1002.451210,0
0.033333,-148.540417,173.331451,-8.683430,0.145379,0.471746,-4.664339,3.756588,-0.506776,4.743480,-3.730778,-0.079410,0.579469,-0.011006,3.001183,188.722377,997.433526,1002.714228,0
0.034375,-168.789883,141.103143,70.205222,1.676644,2.218415,-5.069064,2.291326,-2.253812,4.933286,-2.226680,-0.035656,0.576231,0.000144,1.537601,188.495966,996.595705,1002.875686,0
0.035417,-183.219888,62.493790,124.353071,2.701241,3.913711,-4.586664,0.226815,-3.966668,4.497596,-0.101905,-0.017425,0.568376,-0.011006,-0.567706,188.571422,995.296720,1002.946792,0
0.036458,-165.524205,-13.038369,161.938192,3.455614,4.801723,-3.703628,-1.366029,-4.802207,3.561509,1.493581,0.000805,0.582501,0.015011,-1.682280,188.495989,994.639149,1002.776230,0
0.037500,-117.476922,-82.956415,180.967710,3.883467,4.871443,-1.782206,-3.310691,-4.957921,1.603062,3.408926,0.070083,0.560315,0.007577,-3.202154,188.722174,993.919926,1003.378474,0
0.038542,-38.162746,-132.743512,182.790460,3.905986,4.350378,0.167833,-4.493726,-4.365448,-0.269111,4.456082,0.102898,0.581605,-0.022156,-3.461095,188.495993,993.520457,1003.242917,0
0.039583,33.953377,-172.876212,149.652852,3.252946,3.242198,1.962524,-5.046582,-3.267853,-2.145597,5.042490,0.088314,0.582088,-0.011006,-4.046528,188.496000,992.734866,1003.337457,0
0.040625,104.984708,-174.590983,96.319165,2.183313,1.400122,3.610041,-4.737292,-1.410677,-3.655414,4.646474,0.102898,0.580503,-0.033307,-3.573679,188.495935,992.534483,1003.741988,0
0.041667,148.591120,-173.533932,8.353213,0.528196,-0.482317,4.668867,-3.763028,0.518659,-4.733854,3.679282,0.077375,0.577747,-0.059323,-2.324005,188.722168,991.415652,1003.926935,0
0.042708,168.738886,-141.117705,-70.170889,-0.958032,-2.203300,4.987742,-2.402151,2.277089,-4.988366,2.201840,0.033621,0.575611,-0.011006,-1.580955,188.571440,990.924942,1005.086484,0
0.043750,183.202791,-61.862376,-124.002795,-2.038925,-3.854563,4.546223,-0.240986,4.024126,-4.569931,0.058025,0.004452,0.550945,-0.003573,1.199851,188.496018,990.357086,1005.832539,0
0.044792,165.382809,13.763744,-161.660825,-2.759520,-4.746245,3.675451,1.375054,4.867261,-3.577766,-1.567924,-0.035656,0.549084,-0.007290,2.269392,188.495968,990.121867,1005.671405,0
0.045833,116.951329,83.517358,-180.824012,-3.232411,-4.882015,1.782646,3.253992,5.022975,-1.615004,-3.483268,-0.083057,0.580227,-0.037023,3.890591,188.722221,989.796667,1005.898595,0
0.046875,37.637153,132.752441,-182.707521,-3.232411,-4.309578,-0.196010,4.425428,4.487470,0.257168,-4.553272,-0.072118,0.574784,0.003860,4.059465,188.571485,989.367427,1006.969614,0
0.047917,-34.580670,172.849905,-149.448395,-2.601890,-3.194058,-2.047934,4.989883,3.298726,2.120713,-5.116832,-0.093995,0.560866,0.018727,4.374699,188.496208,988.826684,1006.921007,0
0.048958,-105.126104,174.411992,-95.543580,-1.543516,-1.454728,-3.609601,4.672860,1.445348,3.695236,-4.694162,-0.093995,0.577954,0.011294,4.284632,188.571473,989.509584,1007.258925,0
0.050000,-148.438718,173.472391,-7.480415,0.190417,0.523118,-4.664339,3.733392,-0.533361,4.773676,-3.742201,-0.093995,0.570375,-0.003573,3.046216,188.646873,989.849563,1007.596105,0
0.051042,-168.416986,140.574617,70.824957,1.687904,2.233092,-4.995478,2.310657,-2.238621,4.950541,-2.203833,-0.072118,0.573131,-0.018440,1.841575,188.496071,989.594449,1007.605569,0
0.052083,-183.604085,61.131369,124.304465,2.735018,3.902703,-4.541695,0.192020,-3.978061,4.488968,-0.132367,0.008098,0.570168,-0.022156,-0.567706,188.496069,989.161346,1008.050217,0
0.053125,-165.027008,-14.201125,161.950343,3.511910,4.757690,-3.687275,-1.451084,-4.821196,3.557196,1.489773,0.037267,0.575887,-0.003573,-1.761088,188.496103,988.915262,1008.364446,0
0.054167,-116.584228,-83.437960,181.137833,3.883467,4.849427,-1.741324,-3.310691,-4.954123,1.590120,3.408926,0.088314,0.566378,-0.018440,-3.033279,188.722246,988.656025,1008.401087,0
0.055208,-36.772856,-132.966668,182.523124,3.939764,4.324692,0.163745,-4.443466,-4.365448,-0.290680,4.497968,0.062790,0.557628,-0.003573,-3.449837,188.496053,988.851793,1008.626243,0
0.056250,35.105969,-173.005407,149.665003,3.309243,3.161469,1.991141,-5.069778,-3.245066,-2.158538,5.069145,0.113837,0.571959,-0.018440,-3.978978,188.496029,989.065603,1008.836678,0
0.057292,105.481904,-174.203398,95.845249,2.205831,1.425808,3.614129,-4.717961,-1.403081,-3.659727,4.608396,0.091960,0.581812,-0.025873,-3.652487,188.496073,988.682968,1008.479315,0
0.058333,148.523320,-173.862793,7.964360,0.561974,-0.489656,4.697484,-3.786224,0.568032,-4.738168,3.675474,0.062790,0.574991,-0.007290,-2.571688,188.722237,989.196636,1008.217081,0
0.059375,168.343389,-140.483474,-70.377468,-0.991810,-2.214309,5.008182,-2.375088,2.277089,-4.940915,2.186608,0.040913,0.575198,-0.011006,-1.614730,188.496071,988.592538,1007.598755,0
0.060417,183.417489,-61.592241,-123.990643,-2.038925,-3.902266,4.558488,-0.260317,3.997541,-4.539735,0.065640,0.004452,0.565483,-0.022156,1.233626,188.496022,988.082990,1007.362803,0
0.061458,165.032511,13.975154,-161.782342,-2.815817,-4.793948,3.663187,1.355724,4.874857,-3.646786,-1.548884,-0.035656,0.578091,-0.018440,2.348200,188.496031,987.787869,1008.365625,0
0.062500,116.781830,83.446888,-180.933377,-3.198633,-4.837982,1.762205,3.281055,5.015379,-1.671083,-3.494692,-0.097641,0.555837,-0.018440,3.823041,188.722320,987.576377,1008.885586,0
0.063542,37.535453,132.846401,-182.306516,-3.198633,-4.346272,-0.183746,4.456357,4.464683,0.226972,-4.530425,-0.075764,0.580916,0.011294,4.070724,188.495993,986.860842,1008.772516,0
0.064583,-34.580670,172.896885,-149.436244,-2.601890,-3.201397,-2.015229,5.009213,3.317715,2.077575,-5.154911,-0.115872,0.563140,0.000144,4.408473,188.571446,986.698944,1009.471461,0
0.065625,-105.216503,174.294541,-95.993192,-1.487219,-1.454728,-3.613689,4.676727,1.490923,3.613275,-4.701778,-0.104934,0.585050,0.018727,4.194565,188.496105,985.605246,1009.919189,0
0.066667,-148.495217,173.260981,-8.148757,0.156639,0.486423,-4.692956,3.721793,-0.495382,4.687401,-3.757433,-0.090349,0.578987,-0.033307,3.012441,188.722311,984.444089,1009.790461,0
0.067708,-168.518685,140.786028,70.436104,1.676644,2.214745,-5.032271,2.329988,-2.257610,4.933286,-2.249527,-0.046595,0.577954,-0.003573,1.571376,188.571431,984.487381,1010.023110,0
0.068750,-183.231188,62.000500,124.559650,2.712500,3.847661,-4.594841,0.203618,-3.989455,4.523478,-0.117136,0.008098,0.578780,-0.011006,-0.545189,188.496002,985.026941,1010.175148,0
0.069792,-165.173907,-13.367230,162.169074,3.500651,4.761359,-3.662747,-1.400824,-4.828792,3.613275,1.447887,0.015390,0.577540,0.007577,-1.682280,188.496006,984.878975,1010.983558,0
0.070833,-117.171824,-83.097355,181.040620,3.894726,4.831079,-1.827175,-3.318423,-4.942729,1.616003,3.363231,0.091960,0.569823,-0.040740,-3.157121,188.722103,984.337535,1011.049447,0
0.071875,-37.744649,-133.001903,182.571730,3.860949,4.357717,0.135128,-4.501458,-4.418618,-0.256170,4.429427,0.066437,0.577540,-0.003573,-3.494870,188.571670,983.696894,1011.543990,0
0.072917,34.269775,-173.064132,149.519183,3.309243,3.216511,1.942083,-5.096841,-3.267853,-2.119715,5.053913,0.066437,0.588771,-0.025873,-4.035270,188.496116,983.223981,1011.655017,0
0.073958,104.962108,-174.332593,96.501440,2.250869,1.451495,3.597777,-4.729559,-1.448656,-3.655414,4.638858,0.088314,0.591251,0.000144,-3.551162,188.496029,983.329215,1012.226925,0
0.075000,148.783218,-173.475207,8.802825,0.539455,-0.478648,4.693396,-3.805555,0.533851,-4.768364,3.747823,0.044560,0.580021,-0.029590,-2.346521,188.646911,983.480178,1013.323658,0
0.076042,168.851886,-140.906294,-69.696974,-0.980551,-2.217978,5.004094,-2.409883,2.292281,-4.971111,2.205648,0.048206,0.584017,-0.003573,-1.592214,188.571502,984.120569,1013.699681,0
0.077083,183.293190,-62.461372,-124.148615,-2.005147,-3.902266,4.578928,-0.283514,4.062105,-4.569931,0.058025,0.026329,0.573544,-0.014723,1.177334,188.496114,985.257301,1013.992606,0
0.078125,165.156810,12.777163,-162.146892,-2.714483,-4.790279,3.675451,1.394385,4.859665,-3.612276,-1.541269,-0.028364,0.580089,-0.014723,2.258133,188.496024,985.373105,1013.383196,0
0.079167,117.245127,82.988833,-180.957680,-3.142336,-4.885685,1.733588,3.257858,5.026773,-1.653828,-3.460421,-0.075764,0.580434,0.003860,3.901849,188.646862,985.329691,1013.196380,0
0.080208,38.586346,132.952106,-182.379426,-3.119818,-4.349942,-0.204187,4.452491,4.449491,0.283051,-4.568503,-0.079410,0.586290,0.007577,4.081982,188.571485,986.511337,1012.607493,0
0.081250,-33.642776,173.131785,-149.509154,-2.601890,-3.285795,-2.023405,5.005347,3.329109,2.150909,-5.128256,-0.119518,0.590769,0.000144,4.397215,188.496112,987.291612,1012.073873,0
0.082292,-104.956605,174.177091,-96.309135,-1.554775,-1.462067,-3.621865,4.684459,1.490923,3.634843,-4.705585,-0.064826,0.587600,-0.003573,4.284632,188.571987,987.653100,1011.986444,0
0.083333,-148.879415,173.178766,-8.732037,0.145379,0.504771,-4.729749,3.725659,-0.487786,4.765049,-3.757433,-0.083057,0.581536,0.011294,3.023700,188.646456,988.525951,1012.402999,0
0.084376,-168.891582,140.703813,70.010795,1.665385,2.203737,-4.999566,2.295193,-2.269004,4.963482,-2.200025,-0.017425,0.579400,0.003860,1.830317,188.570921,989.163056,1012.056350,0
0.085417,-183.796184,62.505535,124.425981,2.735018,3.950406,-4.598929,0.195886,-4.038828,4.514851,-0.124752,0.011744,0.577540,-0.007290,-0.545189,188.495723,989.920840,1012.128182,0
0.086458,-164.902709,-12.545079,162.557927,3.523169,4.768698,-3.650482,-1.454950,-4.809803,3.587392,1.562122,0.019036,0.584430,-0.003573,-1.738572,188.495788,991.085141,1010.996540,0
0.087500,-117.330023,-82.545339,181.502383,3.860949,4.886121,-1.753589,-3.322289,-5.003496,1.633258,3.439388,0.081021,0.584637,0.003860,-3.044537,188.646471,992.522951,1011.622130,0
0.088542,-38.513044,-133.178078,182.146422,3.849689,4.328361,0.167833,-4.528521,-4.392033,-0.269111,4.490353,0.124775,0.588426,0.000144,-3.483612,188.495743,993.345514,1011.326424,0
0.089583,33.614379,-173.287287,149.750065,3.275465,3.220181,2.011581,-5.085243,-3.233672,-2.201676,5.084376,0.073729,0.594076,-0.011006,-4.001495,188.495691,994.810377,1010.741766,0
0.090625,105.142907,-173.862793,96.598653,2.228350,1.400122,3.614129,-4.702496,-1.399283,-3.651100,4.654090,0.099252,0.586704,0.000144,-3.663745,188.495597,995.046803,1010.356655,0
0.091667,149.054416,-173.533932,8.985100,0.550714,-0.552037,4.697484,-3.805555,0.564234,-4.794247,3.664051,0.102898,0.580021,-0.022156,-2.582946,188.646556,995.598440,1009.336885,0
0.092708,168.772786,-140.718374,-69.782036,-0.958032,-2.254673,4.971389,-2.328695,2.318866,-4.927973,2.159953,0.070083,0.577402,0.022444,-1.625989,188.495754,995.643102,1008.388321,0
0.093750,183.790387,-62.590567,-123.893430,-2.016406,-3.935291,4.538047,-0.248719,4.088690,-4.569931,0.008523,0.004452,0.575955,-0.033307,1.244884,188.495723,996.492719,1007.993909,0
0.094792,164.987311,12.683203,-162.292712,-2.737001,-4.804956,3.659099,1.405983,4.901442,-3.551883,-1.560308,-0.039302,0.582019,-0.011006,2.314425,188.495769,997.116389,1007.451209,0
0.095833,117.380726,82.706953,-181.225017,-3.176114,-4.893024,1.749941,3.253992,5.007783,-1.576181,-3.509923,-0.108580,0.581467,-0.011006,3.778007,188.646491,998.076367,1006.379339,0
0.096875,38.834945,132.975596,-182.039179,-3.153596,-4.371959,-0.175570,4.425428,4.411512,0.209717,-4.507578,-0.101287,0.588702,0.011294,4.081982,188.495803,996.636897,1006.231563,0
0.097917,-33.665376,173.002590,-149.509154,-2.624408,-3.241761,-2.031582,5.032410,3.313918,2.129341,-5.105409,-0.104934,0.591596,0.011294,4.408473,188.495754,996.202651,1005.937413,0
0.098958,-105.114804,173.953936,-95.956737,-1.520997,-1.436380,-3.609601,4.696057,1.483327,3.652098,-4.667507,-0.068472,0.582501,-0.007290,4.172049,188.495647,996.074602,1005.504991,0
0.100000,-148.822915,173.354941,-8.209515,0.145379,0.479084,-4.692956,3.725659,-0.533361,4.765049,-3.734586,-0.104934,0.578574,-0.014723,2.956150,188.646496,996.413324,1005.036234,0
0.101042,-168.699484,140.562872,70.533317,1.687904,2.207406,-5.032271,2.275862,-2.272802,4.933286,-2.207641,-0.021072,0.577954,-0.011006,1.537601,188.570944,996.046542,1004.952449,0
0.102083,-183.581485,61.883050,124.450285,2.723759,3.906372,-4.574400,0.219083,-4.000849,4.519164,-0.090481,-0.002841,0.571201,0.022444,-0.567706,188.495694,995.662031,1004.667808,0
0.103125,-165.027008,-13.355485,162.327045,3.500651,4.768698,-3.658658,-1.454950,-4.824994,3.518372,1.501197,0.004452,0.579194,-0.007290,-1.716055,188.495636,995.037577,1004.417549,0
0.104167,-117.024925,-83.120845,181.247198,3.883467,4.842088,-1.745412,-3.295226,-4.965517,1.585807,3.401310,0.084667,0.578160,-0.007290,-3.179637,188.571049,994.346289,1003.713054,0
0.105208,-37.835049,-133.060628,182.510972,3.838430,4.306345,0.192362,-4.501458,-4.369246,-0.286366,4.478929,0.081021,0.576920,-0.007290,-3.472354,188.571223,994.216187,1003.389703,0
0.106250,34.586173,-173.052387,149.567790,3.252946,3.179816,2.011581,-5.062046,-3.264055,-2.158538,5.057721,0.102898,0.581054,-0.007290,-4.057787,188.495633,993.167160,1003.877304,0
0.107292,105.402805,-174.262123,95.784491,2.217091,1.389114,3.556895,-4.710229,-1.391688,-3.681296,4.635051,0.095606,0.581399,-0.025873,-3.573679,188.495696,993.291698,1003.863430,0
0.108333,148.760618,-173.486952,7.830691,0.505677,-0.496995,4.664779,-3.755295,0.568032,-4.707971,3.637396,0.059144,0.573268,0.015011,-2.335263,188.571087,992.101896,1003.252384,0
0.109375,168.716287,-140.542199,-70.462529,-0.969291,-2.221648,4.967301,-2.317096,2.280887,-4.962483,2.148530,0.044560,0.576369,0.000144,-1.547180,188.571006,991.833621,1003.698249,0
0.110417,183.677388,-61.216401,-124.185070,-2.050184,-3.938961,4.501254,-0.186861,4.069701,-4.492283,0.050409,0.000805,0.558868,-0.014723,1.222368,188.495658,990.555736,1003.445712,0
0.111458,164.953411,14.010389,-162.098286,-2.714483,-4.797617,3.614129,1.409850,4.912836,-3.547570,-1.609810,-0.010133,0.595936,-0.025873,2.269392,188.495676,990.883869,1003.447680,0
