1-Time,2-VGERA,3-VGERB,4-VGERC,5-VN,6-IGERAN,7-IGERBN,8-IGERCN,9-IGERAT,10-IGERBT,11-IGERCT,12-IN,13-IFD,14-IFAULT,15-VFAULT,16-Speed (rad/s),17-Active Power,18-Reactive Power,19-FAULT 
0.000000,118.612418,58.112902,-187.580341,-3.322485,-2.918903,-2.436513,5.113423,3.092488,2.391436,-5.185206,0.007591,0.429474,-0.019106,-54.450048,188.797293,1425.423818,-212.090900,0
0.001042,43.637413,116.368152,-193.072897,-3.356263,-1.025455,-4.222601,4.859832,1.210075,4.107796,-4.867267,-0.014286,0.418795,-0.067423,79.366399,188.797282,1423.805717,-211.893315,0
0.002083,-19.766468,161.339795,-159.303401,-2.804557,0.978077,-4.958760,3.576738,-0.657830,4.991340,-3.686348,-0.017932,0.408391,-0.045123,184.012526,188.797333,1423.106568,-211.287243,0
0.003125,-71.655725,193.098303,-86.162489,-1.419663,3.201777,-5.135759,1.695624,-2.674442,5.190032,-1.729506,-0.079917,0.408115,-0.048839,269.271819,188.571196,1422.257475,-210.520102,0
0.004167,-133.534116,178.769390,-21.163197,-0.136103,4.416373,-4.423738,-0.162780,-3.987416,4.551682,0.034302,-0.087210,0.408115,-0.048839,309.914370,188.797304,1421.317110,-209.639654,0
0.005208,-179.841210,130.673574,39.303521,1.012346,5.242004,-3.068080,-2.123378,-4.734578,3.253843,2.123619,-0.120025,0.407357,-0.033973,310.375962,188.721867,1420.225127,-208.392941,0
0.006250,-194.553713,60.755529,95.565761,2.070720,5.219987,-1.241764,-3.716837,-4.796237,1.414887,3.785232,-0.174718,0.409149,-0.067423,248.680343,188.721922,1419.228596,-207.665950,0
0.007292,-166.292600,0.256982,158.948881,3.365539,4.530127,0.648915,-4.795544,-4.088972,-0.377567,4.826105,-0.203887,0.419139,-0.019106,161.901177,188.571096,1418.096637,-206.875035,0
0.008333,-119.499609,-57.645918,187.809101,3.928504,2.985278,2.531549,-4.848533,-2.725220,-2.284164,5.030495,-0.214826,0.423135,-0.078573,54.789476,188.646569,1417.182325,-206.244161,0
0.009375,-43.586711,-116.570633,193.010016,4.007319,1.099169,4.241206,-4.640362,-0.777521,-4.068163,4.773115,-0.174718,0.405221,-0.067423,-80.254128,188.721967,1416.579300,-206.120910,0
0.010417,20.156168,-161.542277,159.167611,3.388058,-0.937388,4.977365,-3.334558,1.043233,-4.871385,3.542992,-0.211179,0.417003,-0.074856,-184.630055,188.571113,1415.368734,-205.470580,0
0.011458,72.022826,-193.112864,85.710755,1.969386,-3.120724,5.222751,-1.498863,3.128758,-5.061622,1.635354,-0.160133,0.403912,-0.041406,-269.360206,188.571207,1413.803209,-205.025103,0
0.012500,133.178021,-178.877912,19.909453,0.708344,-4.361006,4.510729,0.302767,4.401835,-4.533187,-0.166303,-0.105440,0.402121,-0.045123,-310.408058,188.571230,1413.384636,-204.355378,0
0.013542,179.360816,-130.147865,-39.876772,-0.462623,-5.208654,3.183230,2.357988,5.174386,-3.193073,-2.202630,-0.072625,0.399089,0.010628,-313.729264,188.721768,1412.249027,-203.812432,0
0.014583,194.514016,-58.984849,-95.033210,-1.498478,-5.138934,1.324733,3.906028,5.239672,-1.349889,-3.902093,-0.010640,0.401363,-0.059989,-247.057465,188.571194,1412.518805,-203.273835,0
0.015625,165.970405,1.290543,-158.635059,-2.748261,-4.504116,-0.509629,4.969595,4.536034,0.446792,-4.905117,0.000299,0.364364,-0.056273,-160.278299,188.495683,1412.554741,-202.189017,0
0.016667,118.465519,58.453507,-187.677555,-3.322485,-2.973945,-2.432490,5.098283,3.197671,2.395664,-5.158711,0.022176,0.366224,-0.019106,-53.661965,188.495682,1413.106923,-201.122093,0
0.017708,43.015917,116.544327,-192.829863,-3.378782,-1.054811,-4.186397,4.859832,1.206448,4.086658,-4.859697,0.003945,0.424375,-0.037689,80.154482,188.495703,1412.772645,-200.745215,0
0.018750,-20.534863,161.457245,-159.206188,-2.782039,0.923035,-4.930601,3.607018,-0.654203,5.008250,-3.671208,0.003945,0.411973,-0.007956,184.597959,188.495731,1412.860055,-200.609185,0
0.019792,-71.904323,193.074813,-85.907304,-1.352108,3.168752,-5.196100,1.672915,-2.703458,5.173122,-1.729506,-0.076271,0.403499,-0.089723,269.406918,188.495705,1412.828487,-200.757135,0
0.020833,-133.262918,178.534490,-20.774344,-0.124844,4.398025,-4.427760,-0.147641,-4.012805,4.568592,0.072152,-0.105440,0.409355,-0.059989,309.801787,188.495727,1413.026390,-201.202216,0
0.021875,-179.897710,130.650084,39.473644,1.023605,5.289707,-3.100262,-2.168797,-4.767221,3.245388,2.116049,-0.130964,0.404532,-0.041406,310.702453,188.344889,1413.331569,-201.236719,0
0.022917,-194.305115,60.661569,95.796643,2.115757,5.219987,-1.233719,-3.728192,-4.803491,1.436024,3.815511,-0.178364,0.410458,-0.059989,248.747893,188.495698,1413.687440,-201.203736,0
0.023958,-166.371699,0.550607,159.325582,3.297983,4.541135,0.632824,-4.765265,-4.070837,-0.394477,4.841245,-0.207533,0.417279,-0.063706,162.351510,188.495683,1413.774340,-201.650522,0
0.025000,-119.714307,-57.845583,187.626826,3.849689,2.988948,2.551663,-4.871243,-2.710712,-2.275709,5.087270,-0.189302,0.419070,-0.078573,54.710668,188.495781,1414.298807,-201.794245,0
0.026042,-44.309906,-116.876004,192.949258,3.973542,1.047797,4.269366,-4.610082,-0.766640,-4.059708,4.761760,-0.185656,0.395782,-0.059989,-79.961411,188.269545,1414.170397,-202.031089,0
0.027083,19.873670,-161.460062,159.325582,3.376799,-0.930049,4.989433,-3.334558,1.061368,-4.905205,3.580842,-0.178364,0.408046,-0.067423,-184.483697,188.344683,1414.892845,-202.270445,0
0.028125,72.056725,-193.382999,86.148215,1.958127,-3.150080,5.242864,-1.426950,3.150520,-5.099670,1.627784,-0.156487,0.405566,-0.063706,-269.551598,188.420229,1415.535804,-202.712760,0
0.029167,133.245821,-178.607777,20.334762,0.708344,-4.335320,4.510729,0.314122,4.354684,-4.512049,-0.151163,-0.123671,0.404877,-0.048839,-310.374283,188.345026,1414.860961,-202.357488,0
0.030208,179.575515,-130.441490,-39.791710,-0.462623,-5.197646,3.191276,2.369343,5.156251,-3.209983,-2.217770,-0.061686,0.402948,-0.048839,-314.235888,188.269617,1414.956663,-202.418240,0
0.031250,194.265418,-59.196259,-95.239788,-1.532256,-5.182968,1.304619,3.932523,5.272315,-1.396392,-3.886953,-0.017932,0.389236,-0.067423,-246.854815,188.194128,1415.433537,-201.763832,0
0.032292,166.275503,1.114368,-158.586453,-2.725742,-4.478429,-0.517674,4.977165,4.514272,0.434110,-4.897547,0.000299,0.413283,-0.030256,-160.176974,188.420405,1415.199566,-201.803405,0
0.033333,118.476819,58.606192,-187.531735,-3.333744,-2.929912,-2.384217,5.090714,3.121504,2.357616,-5.166281,-0.010640,0.406737,-0.071140,-52.896399,188.269570,1414.540968,-202.043883,0
0.034375,42.948118,116.426877,-192.854167,-3.446337,-0.985091,-4.170306,4.833338,1.228210,4.035928,-4.867267,0.040407,0.407150,-0.059989,80.661106,188.269507,1414.279732,-201.372665,0
0.035417,-20.952960,161.257580,-159.096823,-2.793298,0.959729,-4.934623,3.584308,-0.636068,4.944838,-3.663638,-0.017932,0.415487,-0.045123,184.935709,188.194146,1413.470158,-200.785041,0
0.036458,-72.073822,192.781187,-85.567057,-1.307070,3.128388,-5.123691,1.725904,-2.623664,5.118165,-1.778711,-0.087210,0.408735,-0.067423,269.463210,188.420182,1412.624217,-199.301979,0
0.037500,-133.206418,179.051271,-20.178912,-0.102325,4.335644,-4.439828,-0.075727,-3.914876,4.572819,0.019162,-0.090856,0.403843,-0.052556,310.162054,188.194220,1412.043403,-197.835280,0
0.038542,-179.106715,130.685319,39.874650,1.057383,5.223657,-3.164625,-2.081744,-4.701935,3.241161,2.089554,-0.160133,0.405428,-0.037689,310.387220,188.193969,1411.033978,-197.278834,0
0.039583,-194.598913,60.227003,95.808794,2.172053,5.230996,-1.294060,-3.660063,-4.832507,1.457162,3.770092,-0.171072,0.412249,-0.074856,249.232001,188.194123,1411.208151,-196.479772,0
0.040625,-166.326499,0.245237,159.070397,3.354280,4.555813,0.560415,-4.708491,-4.132496,-0.343748,4.727695,-0.196595,0.415556,-0.037689,162.486610,188.194029,1410.642178,-194.799796,0
0.041667,-119.861206,-57.786858,187.845556,3.928504,3.029312,2.443050,-4.863673,-2.761490,-2.246116,5.026710,-0.178364,0.417072,-0.089723,55.622592,188.194132,1410.287283,-193.981302,0
0.042708,-44.795803,-116.711574,192.572556,3.984801,1.124856,4.192934,-4.621437,-0.886331,-3.949793,4.795825,-0.200241,0.405635,-0.045123,-79.308428,188.118766,1410.116088,-191.803677,0
0.043750,19.726771,-161.777177,159.568616,3.410576,-0.856660,4.953228,-3.364838,0.985201,-4.896750,3.656542,-0.200241,0.415418,-0.063706,-184.438664,188.194078,1410.818483,-190.443234,0
0.044792,72.531322,-192.466889,86.767951,1.980645,-3.065682,5.198614,-1.506433,3.052591,-5.116580,1.699699,-0.138256,0.411147,-0.082290,-269.439015,188.043368,1410.797877,-188.758917,0
0.045833,133.618718,-179.148047,20.626402,0.708344,-4.287617,4.526820,0.264918,4.340176,-4.533187,-0.086818,-0.094502,0.410044,-0.059989,-311.500115,188.194047,1411.263589,-187.926337,0
0.046875,178.897519,-130.723371,-40.010440,-0.485141,-5.168290,3.187253,2.289859,5.087338,-3.214211,-2.123146,-0.047102,0.407633,-0.045123,-313.718005,188.118665,1410.162348,-186.621641,0
0.047917,194.672215,-59.807000,-95.470670,-1.509738,-5.160951,1.368983,3.890888,5.272315,-1.447121,-3.845318,-0.043455,0.384896,-0.074856,-247.721706,188.194293,1410.350702,-185.855183,0
0.048958,166.139904,0.938193,-158.671514,-2.793298,-4.489438,-0.465379,4.958241,4.470748,0.412973,-4.852127,0.022176,0.411973,-0.030256,-160.109424,187.967919,1409.441069,-185.587767,0
0.050000,119.053115,58.641427,-187.689706,-3.367522,-2.988623,-2.384217,5.132348,3.175909,2.349161,-5.173851,0.003945,0.412594,-0.059989,-53.121565,188.043314,1410.061787,-185.173792,0
0.051042,43.298415,116.579562,-192.744802,-3.390041,-1.084167,-4.142147,4.893897,1.260853,4.052838,-4.855912,0.014883,0.432988,-0.078573,80.942564,188.118631,1410.209047,-185.047449,0
0.052083,-21.077259,161.598186,-159.400615,-2.770779,0.941382,-4.942669,3.633512,-0.621560,4.999795,-3.686348,-0.032517,0.424169,-0.048839,185.892666,188.118707,1411.161803,-184.977909,0
0.053125,-72.491919,192.722462,-85.372631,-1.363367,3.110041,-5.167941,1.767538,-2.667188,5.139302,-1.786281,-0.068979,0.411216,-0.089723,269.643343,187.967897,1411.708922,-185.182508,0
0.054167,-133.206418,179.227446,-19.619935,-0.102325,4.331975,-4.472010,-0.037877,-3.911249,4.598184,-0.022473,-0.083563,0.405841,-0.067423,310.184570,187.892544,1412.078862,-184.414564,0
0.055208,-178.959816,130.509144,40.421475,1.091161,5.245674,-3.208875,-2.081744,-4.698308,3.287663,2.040349,-0.116379,0.406875,-0.056273,310.195829,188.043267,1412.279042,-183.279645,0
0.056250,-194.621512,59.674988,95.784491,2.160794,5.216318,-1.314173,-3.682773,-4.828880,1.533256,3.781447,-0.163779,0.412387,-0.067423,248.882993,188.118649,1412.613976,-182.437552,0
0.057292,-166.157001,-0.400739,159.119004,3.331761,4.555813,0.520188,-4.746340,-4.125242,-0.318383,4.784470,-0.192949,0.424789,-0.086006,162.419060,187.967861,1413.100259,-182.296592,0
0.058333,-119.567408,-58.186188,187.711887,3.838430,3.036651,2.435004,-4.893953,-2.815895,-2.258799,5.125120,-0.214826,0.420999,-0.086006,55.600076,187.892445,1414.659998,-181.945320,0
0.059375,-44.535904,-116.852514,192.511798,4.029838,1.172559,4.188911,-4.685781,-0.940736,-4.013206,4.803395,-0.211179,0.421275,-0.059989,-78.869354,187.892519,1415.433949,-181.730210,0
0.060417,19.930170,-161.636237,159.763043,3.433095,-0.783270,4.953228,-3.406472,0.967066,-4.934798,3.698177,-0.174718,0.421413,-0.063706,-184.314822,188.043195,1416.220096,-181.406287,0
0.061458,72.531322,-192.560849,87.448444,1.980645,-3.032657,5.258955,-1.536713,3.027202,-5.112352,1.733764,-0.134610,0.414661,-0.086006,-269.427756,187.892396,1416.358764,-181.013657,0
0.062500,133.641318,-179.218517,21.039558,0.719604,-4.254591,4.579115,0.223283,4.351057,-4.583916,-0.060323,-0.130964,0.412249,-0.078573,-311.680249,187.892604,1417.066313,-180.720583,0
0.063542,178.931419,-131.498541,-39.828165,-0.440104,-5.149943,3.271730,2.255795,5.083711,-3.273396,-2.055016,-0.047102,0.411147,-0.074856,-314.821321,187.892624,1417.478286,-179.708361,0
0.064583,194.468816,-60.511700,-95.580035,-1.543516,-5.153612,1.417255,3.853039,5.257807,-1.485169,-3.830178,-0.043455,0.396953,-0.063706,-248.138264,187.967939,1417.413153,-179.363507,0
0.065625,166.411102,0.256982,-158.452784,-2.714483,-4.544480,-0.445265,4.912821,4.507018,0.345333,-4.799137,-0.010640,0.426236,-0.082290,-160.829957,187.892562,1417.263903,-178.365576,0
0.066667,119.482512,58.476997,-187.604645,-3.266189,-3.025318,-2.339967,5.075574,3.204925,2.247702,-5.139786,0.022176,0.427131,-0.063706,-53.526865,187.892456,1416.697825,-177.126096,0
0.067708,43.682613,116.403387,-192.659740,-3.390041,-1.098845,-4.085829,4.882542,1.326139,3.980971,-4.848342,0.029468,0.427200,-0.056273,80.649848,187.892492,1416.236147,-175.980511,0
0.068750,-20.885161,161.504225,-159.680103,-2.827076,0.864323,-4.886351,3.633512,-0.527258,4.889881,-3.746908,-0.021578,0.397091,-0.059989,185.791341,187.892528,1415.604063,-174.107354,0
0.069792,-72.785718,191.759371,-86.113883,-1.419663,3.043990,-5.115646,1.790248,-2.572886,5.101255,-1.835486,-0.083563,0.408046,-0.056273,269.147977,187.892514,1414.806718,-172.756709,0
0.070833,-133.127319,179.779461,-19.376902,-0.124844,4.265924,-4.463965,0.022682,-3.864098,4.598184,-0.048968,-0.130964,0.406255,-0.086006,310.477287,187.892595,1414.579493,-172.114201,0
0.071875,-177.829823,130.955454,41.077665,1.068642,5.168615,-3.160603,-1.979550,-4.614887,3.283436,1.987359,-0.130964,0.406875,-0.048839,309.317679,187.892568,1413.312351,-171.243325,0
0.072917,-194.983110,59.310893,95.772339,2.183313,5.219987,-1.374514,-3.573009,-4.799864,1.554394,3.675467,-0.200241,0.413696,-0.063706,248.770409,187.817029,1412.424126,-169.951079,0
0.073958,-166.010102,-0.941009,158.244084,3.297983,4.533796,0.435711,-4.621437,-4.041821,-0.233833,4.640640,-0.203887,0.395437,-0.048839,161.698527,187.892535,1409.867829,-168.449622,0
0.075000,-119.273610,-58.456323,187.833404,3.939764,3.102702,2.350527,-4.822039,-2.797760,-2.178477,4.985075,-0.167425,0.430990,-0.071140,55.645109,187.817231,1407.806164,-167.338874,0
0.076042,-43.891808,-116.511908,192.183703,3.973542,1.231270,4.044093,-4.617652,-0.937109,-3.882154,4.784470,-0.207533,0.417279,-0.063706,-78.790545,187.892523,1406.323129,-166.180838,0
0.077083,20.427366,-161.906372,160.261261,3.399317,-0.724559,4.892887,-3.451891,0.883645,-4.812201,3.690607,-0.167425,0.416176,-0.063706,-184.461180,187.817175,1405.115337,-164.639724,0
0.078125,72.926820,-190.881312,88.311213,2.025683,-2.918903,5.146319,-1.585917,2.882122,-4.998210,1.798109,-0.134610,0.416521,-0.059989,-268.313182,187.817070,1403.083693,-162.589587,0
0.079167,133.720418,-179.970198,21.270440,0.753382,-4.177533,4.542911,0.117305,4.202350,-4.541642,0.038087,-0.087210,0.413696,-0.059989,-313.335222,187.817079,1401.743944,-160.681500,0
0.080208,177.620628,-132.261967,-40.107653,-0.462623,-5.080223,3.275753,2.149817,5.032933,-3.281851,-2.005811,-0.043455,0.415212,-0.048839,-313.954430,187.891539,1400.916042,-160.072169,0
0.081250,194.977313,-61.216401,-95.701552,-1.554775,-5.138934,1.497710,3.773555,5.188894,-1.523216,-3.727983,0.000299,0.425616,-0.108307,-249.286614,187.816677,1399.855660,-158.978396,0
0.082292,166.230303,-0.118858,-158.306964,-2.759520,-4.526132,-0.344697,4.795488,4.532407,0.239646,-4.712082,0.003945,0.425340,-0.078573,-160.931282,187.742063,1399.178441,-157.210428,0
0.083333,120.363906,58.430017,-187.726161,-3.333744,-3.069352,-2.255490,5.045294,3.223060,2.158924,-5.052732,-0.014286,0.430025,-0.063706,-54.314948,187.817512,1398.138412,-156.179306,0
0.084375,44.609207,116.332917,-191.942791,-3.446337,-1.146548,-4.005374,4.829553,1.380544,3.904876,-4.810492,-0.028871,0.418932,-0.045123,79.940573,187.893010,1397.141370,-155.263676,0
0.085417,-20.613962,161.703891,-160.190473,-2.793298,0.779925,-4.777737,3.633512,-0.458345,4.839151,-3.777188,-0.017932,0.418381,-0.056273,185.881408,187.817552,1396.999266,-154.208560,0
0.086458,-72.932617,190.620105,-86.915893,-1.419663,2.955923,-5.039214,1.805387,-2.471330,5.016705,-1.854411,-0.032517,0.392888,-0.030256,268.585061,187.666742,1395.380595,-153.126074,0
0.087500,-133.195118,180.084831,-19.437660,-0.136103,4.177857,-4.431783,0.064316,-3.795185,4.606639,-0.113313,-0.079917,0.409011,-0.041406,310.938878,187.817418,1395.089549,-151.881428,0
0.088542,-177.163128,131.331295,41.405760,1.079901,5.095225,-3.140489,-1.918991,-4.545974,3.287663,1.930584,-0.120025,0.406530,-0.071140,308.552113,187.817452,1394.130939,-150.999150,0
0.089583,-195.039610,59.381363,95.966766,2.093238,5.194301,-1.410718,-3.504880,-4.759967,1.562849,3.611122,-0.178364,0.412387,-0.052556,248.308818,187.892941,1393.339201,-150.314975,0
0.090625,-165.919702,-1.269869,157.964595,3.343021,4.519118,0.351234,-4.534384,-4.092599,-0.204240,4.591435,-0.171072,0.435468,-0.078573,160.730311,187.666679,1393.278594,-149.321433,0
0.091667,-119.126711,-59.043574,187.651129,3.928504,3.088024,2.262027,-4.769050,-2.768744,-2.055880,4.958580,-0.214826,0.404808,-0.030256,54.609343,187.817597,1392.251507,-148.021698,0
0.092708,-43.575411,-116.394458,191.843456,4.041097,1.216593,4.003866,-4.606297,-0.973379,-3.789149,4.739050,-0.160133,0.407288,-0.071140,-78.846837,187.817620,1390.979437,-146.864496,0
0.093750,21.218361,-161.612747,160.261261,3.455614,-0.621813,4.836569,-3.467031,0.836494,-4.723423,3.675467,-0.174718,0.408735,-0.041406,-184.630055,187.892842,1389.816293,-145.800785,0
0.094792,73.231918,-190.341042,88.639308,2.081979,-2.819828,5.081955,-1.627551,2.845852,-4.964390,1.813249,-0.138256,0.415487,-0.041406,-267.997949,187.666668,1389.253442,-145.272164,0
0.095833,133.336220,-180.134628,20.942345,0.764641,-4.096804,4.518774,0.090811,4.122556,-4.516277,0.110001,-0.101794,0.415763,-0.048839,-313.627939,187.742169,1388.368111,-143.937681,0
0.096875,176.603634,-132.813982,-40.532962,-0.473882,-4.959130,3.255639,2.074118,4.942258,-3.277623,-1.899831,-0.061686,0.416590,-0.067423,-313.414031,187.817602,1386.912291,-142.523133,0
0.097917,194.909513,-61.756671,-95.835220,-1.543516,-5.087562,1.497710,3.697856,5.127235,-1.557036,-3.603079,-0.028871,0.416865,-0.041406,-250.052180,187.892901,1385.569347,-141.166732,0
0.098958,166.332002,-0.835304,-157.869504,-2.748261,-4.427057,-0.268265,4.712220,4.438105,0.163551,-4.602317,-0.006994,0.426649,-0.082290,-161.663073,187.742236,1383.417045,-140.415401,0
0.100000,120.691604,58.265587,-187.726161,-3.277448,-3.017979,-2.158945,4.939316,3.226687,2.070147,-4.999742,-0.014286,0.430094,-0.037689,-54.934156,187.742238,1382.507629,-139.467742,0
0.101042,45.547100,115.992311,-191.468876,-3.412560,-1.186912,-3.896761,4.765209,1.453084,3.799189,-4.761287,-0.025225,0.419139,-0.056273,78.983616,187.817544,1381.227120,-138.226994,0
0.102083,-20.331464,161.868321,-160.433507,-2.827076,0.688188,-4.681192,3.607018,-0.371297,4.741919,-3.735553,-0.032517,0.413558,-0.063706,185.768825,187.892930,1379.828829,-137.183722,0
0.103125,-73.237715,189.234194,-88.434852,-1.453441,2.790796,-4.982896,1.812957,-2.344385,4.932155,-1.877121,-0.054394,0.412594,-0.071140,267.616845,187.893096,1378.142519,-135.965687,0
0.104167,-133.308118,180.789532,-19.583480,-0.158622,4.067773,-4.407647,0.166509,-3.675494,4.538999,-0.170088,-0.109087,0.409355,-0.048839,311.535569,187.742103,1376.706029,-134.809649,0
0.105208,-175.287340,132.494051,41.989040,1.057383,4.985141,-3.156580,-1.813013,-4.433537,3.258071,1.805679,-0.160133,0.406944,-0.067423,307.966680,187.817546,1374.643881,-133.461650,0
0.106250,-195.423807,60.121298,96.076131,2.070720,5.098895,-1.430832,-3.406472,-4.691054,1.575531,3.497572,-0.134610,0.418519,-0.059989,249.310809,187.892932,1373.351954,-132.519897,0
0.107292,-165.919702,-0.976244,157.016765,3.286724,4.456737,0.290893,-4.379201,-3.994670,-0.102781,4.394616,-0.192949,0.409769,-0.074856,160.212428,187.892707,1370.140314,-130.871625,0
0.108333,-119.567408,-58.879144,188.088589,3.838430,3.088024,2.197664,-4.727415,-2.754236,-2.017832,4.890450,-0.229410,0.399296,-0.082290,54.733185,187.742146,1369.285684,-130.616112,0
0.109375,-43.688410,-116.018618,191.284479,3.951023,1.319338,3.834912,-4.485179,-0.995141,-3.670779,4.633070,-0.196595,0.400260,-0.052556,-79.139554,187.892892,1366.986308,-129.728144,0
