1-Time,2-VGERA,3-VGERB,4-VGERC,5-VN,6-IGERAN,7-IGERBN,8-IGERCN,9-IGERAT,10-IGERBT,11-IGERCT,12-IN,13-IFD,14-IFAULT,15-VFAULT,16-Speed (rad/s),17-FAULT 
0.000000,-87.244062,-87.052102,189.939963,6.547248,2.393903,2.435217,-4.456925,-2.124454,-2.277572,4.267962,-0.212459,0.375640,-0.046895,5.272798,188.418965,0
0.001042,-18.236289,-140.824206,181.408713,6.366288,0.899236,3.494829,-3.908414,-0.705615,-3.381302,3.873041,-0.227071,0.391710,-0.005818,3.010798,188.495327,0
0.002083,45.213659,-179.434775,133.052652,5.450178,-0.854602,4.248860,-2.852436,1.003609,-4.061166,2.855497,-0.201500,0.397328,-0.035692,1.800628,188.495334,0
0.003125,97.593326,-195.297002,56.419129,4.047738,-2.519682,4.387760,-1.371082,2.760618,-4.354935,1.450147,-0.175929,0.395434,-0.054364,0.115438,188.495284,0
0.004167,153.772731,-162.944341,-7.657576,2.837568,-3.591866,3.768661,0.240869,3.701610,-3.733824,-0.072611,-0.124787,0.394454,-0.050629,-1.535822,188.419898,0
0.005208,181.176212,-111.515933,-68.139584,1.706568,-4.206064,2.582054,1.841627,4.436760,-2.663667,-1.709221,-0.128440,0.392560,-0.017021,-2.270972,188.421340,0
0.006250,183.887070,-32.941733,-125.703978,0.598188,-4.188313,1.153364,3.196114,4.392651,-1.152858,-2.975814,-0.088257,0.387922,-0.035692,-2.972191,188.495723,0
0.007292,155.712299,34.409307,-166.796781,-0.182202,-3.552813,-0.346761,3.852836,3.885397,0.324378,-3.765656,-0.018850,0.414443,-0.028224,-3.153151,188.495703,0
0.008333,87.146883,87.335747,-189.866857,-0.645912,-2.239210,-2.315178,4.315525,2.562127,2.225480,-4.117883,-0.077298,0.378907,-0.043161,-0.303032,188.420307,0
0.009375,18.320590,140.842071,-181.495644,-0.476262,-0.797797,-3.390664,3.793134,1.025664,3.362784,-3.701615,-0.018850,0.417448,-0.031958,1.755388,188.420282,0
0.010417,-44.936535,179.718420,-132.819508,0.428538,1.019945,-4.081198,2.748350,-0.683560,4.076221,-2.652050,-0.080951,0.400660,-0.031958,3.225688,188.495718,0
0.011458,-97.474997,195.556485,-56.456818,1.830978,2.685026,-4.188350,1.225951,-2.425866,4.344810,-1.211122,-0.077298,0.390208,-0.054364,4.933498,188.495779,0
0.012500,-154.232870,163.167582,7.669129,3.052458,3.703956,-3.668465,-0.397195,-3.366858,3.711109,0.293847,-0.161317,0.388771,-0.039427,6.392488,188.344869,0
0.013542,-181.511584,112.149924,68.089584,4.160838,4.289751,-2.430267,-1.994221,-4.072602,2.582199,1.901994,-0.186888,0.388901,-0.002084,7.184188,188.420345,0
0.014583,-184.506004,33.877747,125.752463,5.257908,4.300402,-0.957922,-3.307663,-4.024817,1.071389,3.182819,-0.230724,0.397132,-0.028224,7.874098,188.495769,0
0.015625,-156.115725,-33.545778,166.697538,6.094848,3.675553,0.538234,-3.979310,-3.477130,-0.397453,3.926409,-0.205153,0.396152,-0.050629,7.478248,188.495736,0
0.016667,-87.595680,-86.725918,190.100001,6.502008,2.337098,2.494746,-4.456925,-2.124454,-2.277572,4.299983,-0.234377,0.387203,-0.035692,5.250178,188.344862,0
0.017710,-18.678647,-140.594669,181.297917,6.445458,0.902786,3.502766,-3.859906,-0.694587,-3.423269,3.848136,-0.256295,0.405821,-0.046895,3.044728,188.495651,0
0.018752,44.533109,-180.159629,133.015720,5.472798,-0.929158,4.217111,-2.826317,1.040367,-4.103133,2.812803,-0.194194,0.391841,-0.043161,1.619668,188.495749,0
0.019792,97.366476,-195.055384,57.010038,4.036428,-2.512582,4.348074,-1.300186,2.767969,-4.396901,1.393222,-0.186888,0.394258,-0.028224,0.024958,188.495707,0
0.020833,153.863471,-163.306768,-6.918939,2.848878,-3.570565,3.764692,0.274452,3.771449,-3.708644,-0.101074,-0.164970,0.394585,-0.017021,-1.524512,188.345109,0
0.021875,181.006075,-111.745470,-67.819508,1.616088,-4.174112,2.514588,1.908792,4.451463,-2.604914,-1.712779,-0.091910,0.388771,-0.024490,-2.372762,188.495694,0
0.022917,184.159290,-34.077338,-125.543940,0.575568,-4.142159,1.042244,3.225965,4.359569,-1.089908,-2.997161,-0.084604,0.397459,-0.009553,-2.893021,188.495698,0
0.023959,155.950491,33.309944,-166.846023,-0.170892,-3.538612,-0.390415,3.897612,3.867019,0.366345,-3.698057,-0.055380,0.408238,-0.031958,-3.164461,188.495687,0
0.025000,88.349188,86.937077,-189.559091,-0.725082,-2.225009,-2.271524,4.281943,2.521694,2.179316,-4.075189,-0.026156,0.407454,-0.058098,-0.325652,188.344898,0
0.026042,19.262018,140.697100,-181.557198,-0.476262,-0.822649,-3.307324,3.755820,1.051394,3.354390,-3.655363,-0.059033,0.407846,-0.013287,1.664908,188.495758,0
0.027083,-44.085848,179.126456,-133.668940,0.394608,1.012845,-4.061355,2.722230,-0.679884,4.051041,-2.627145,-0.106522,0.399680,-0.031958,3.270928,188.495604,0
0.028125,-97.372915,195.363191,-57.589394,1.785738,2.617570,-4.188350,1.225951,-2.363378,4.281859,-1.239585,-0.124787,0.394519,-0.054364,4.944808,188.495716,0
0.029167,-154.028705,163.179663,6.499621,2.973288,3.672003,-3.616874,-0.371075,-3.366858,3.702716,0.265384,-0.146705,0.396283,-0.039427,6.392488,188.344956,0
0.030208,-182.124079,113.152639,67.461743,4.160838,4.240048,-2.414393,-1.930788,-4.061574,2.615772,1.880647,-0.212459,0.395238,-0.069301,7.297288,188.495819,0
0.031250,-184.222441,35.387860,125.296970,5.257908,4.257799,-0.930142,-3.289007,-4.017465,1.083979,3.104546,-0.212459,0.401836,-0.031958,7.851478,188.495562,0
0.032292,-156.569425,-31.939018,167.128410,6.083538,3.657802,0.542202,-3.960653,-3.488157,-0.317716,3.883714,-0.208806,0.406866,-0.013287,7.681828,188.495651,0
0.033333,-89.603302,-86.339329,189.028978,6.581178,2.315797,2.427280,-4.408417,-2.139157,-2.164261,4.228826,-0.212459,0.407976,-0.028224,5.272798,188.344838,0
0.034375,-20.561502,-140.534264,181.839584,6.366288,0.913437,3.463080,-3.863637,-0.723993,-3.402285,3.869483,-0.252642,0.408564,-0.054364,3.022108,188.495618,0
0.035417,43.671079,-178.456222,134.246781,5.472798,-0.879454,4.209174,-2.803928,0.992582,-4.069559,2.827034,-0.216112,0.400660,-0.050629,1.800628,188.495750,0
0.036458,97.321106,-195.284921,58.228788,4.070358,-2.484179,4.336168,-1.344963,2.731212,-4.329754,1.432358,-0.154011,0.399811,-0.020755,0.149368,188.495848,0
0.037500,153.647964,-163.149716,-5.564773,2.848878,-3.556363,3.768661,0.214750,3.697934,-3.712841,-0.083285,-0.128440,0.400268,0.005384,-1.535822,188.420216,0
0.038542,181.697967,-113.436796,-67.007008,1.683948,-4.167011,2.578086,1.845358,4.385299,-2.659471,-1.698547,-0.084604,0.396936,-0.013287,-2.293592,188.495870,0
0.039583,183.762302,-35.539127,-125.568561,0.564258,-4.174112,1.089867,3.173726,4.381624,-1.119284,-2.972256,-0.066339,0.400268,-0.058098,-2.938261,188.495682,0
0.040625,156.483589,31.920641,-167.166099,-0.216132,-3.567014,-0.330886,3.860298,3.870694,0.341165,-3.747867,-0.007891,0.410785,-0.050629,-3.198391,188.495736,0
0.041667,89.596863,86.586731,-189.029735,-0.657222,-2.249861,-2.263587,4.308063,2.503315,2.179316,-4.085862,-0.080951,0.405755,-0.039427,-0.348272,188.420298,0
0.042708,20.418953,140.576291,-181.815720,-0.510192,-0.836850,-3.350978,3.800596,1.084476,3.354390,-3.680268,-0.073645,0.406343,-0.058098,1.676218,188.494292,0
0.043750,-43.666175,178.909000,-134.185985,0.371988,1.002194,-4.097072,2.733425,-0.665181,4.063631,-2.676955,-0.102869,0.401378,-0.046895,3.191758,188.495736,0
0.044792,-97.134722,195.459838,-58.340341,1.797048,2.635322,-4.235973,1.237145,-2.400135,4.344810,-1.243143,-0.117481,0.396675,-0.043161,4.922188,188.495846,0
0.045833,-154.096760,163.397119,5.748674,2.984598,3.732358,-3.668465,-0.337493,-3.403615,3.685929,0.268942,-0.084604,0.399157,-0.028224,6.392488,188.420428,0
0.046875,-181.874544,113.575471,67.203220,4.160838,4.307503,-2.422330,-1.979296,-4.105683,2.619969,1.866415,-0.190541,0.395826,-0.061832,7.195498,188.495645,0
0.047917,-184.392579,35.738206,125.493940,5.280528,4.307503,-0.930142,-3.326320,-4.050547,1.092373,3.168587,-0.194194,0.401248,-0.013287,7.840168,188.495727,0
0.048958,-156.716878,-32.059827,166.943751,6.072228,3.675553,0.526328,-3.994235,-3.565348,-0.368076,3.937082,-0.223418,0.407976,-0.017021,7.478248,188.495783,0
0.050000,-89.047520,-86.097711,189.570645,6.524628,2.358400,2.474903,-4.434537,-2.150184,-2.252391,4.278635,-0.248989,0.403665,-0.013287,5.306728,188.420365,0
0.051042,-19.869609,-140.087271,181.975001,6.377598,0.902786,3.514672,-3.912145,-0.687236,-3.469432,3.915735,-0.212459,0.408630,-0.013287,3.101278,188.495683,0
0.052083,43.807189,-178.963620,134.271402,5.472798,-0.875903,4.272671,-2.830048,1.029340,-4.136707,2.841265,-0.201500,0.394846,-0.009553,1.630978,188.495645,0
0.053125,96.924119,-195.309083,57.908712,4.070358,-2.540984,4.352043,-1.389739,2.738563,-4.359131,1.428800,-0.157664,0.399811,-0.035692,0.058888,188.495645,0
0.054167,153.239633,-163.536305,-6.020265,2.848878,-3.584766,3.808347,0.229675,3.753070,-3.725431,-0.083285,-0.128440,0.399027,-0.065566,-1.547132,188.420320,0
0.055208,181.312322,-112.844832,-67.043940,1.683948,-4.177662,2.589992,1.841627,4.414705,-2.604914,-1.698547,-0.113828,0.397328,-0.028224,-2.384071,188.495765,0
0.056250,184.159290,-34.367280,-124.965341,0.575568,-4.181212,1.117647,3.181189,4.396327,-1.131874,-2.975814,-0.091910,0.386354,-0.069301,-2.881711,188.495698,0
0.057292,155.995861,33.140812,-166.784470,-0.193512,-3.595416,-0.354698,3.878955,3.885397,0.362148,-3.730078,-0.033462,0.413137,-0.024490,-3.164461,188.495741,0
0.058333,88.542011,86.574650,-189.300569,-0.679842,-2.249861,-2.271524,4.322988,2.543749,2.170923,-4.089420,-0.062686,0.401770,-0.050629,-0.303032,188.495662,0
0.059375,18.887715,140.298430,-182.111175,-0.476262,-0.808448,-3.323198,3.796865,1.058746,3.358587,-3.698057,-0.040768,0.396152,-0.058098,1.642288,188.495685,0
0.060417,-44.414780,178.474087,-134.112122,0.394608,0.952490,-4.089135,2.725962,-0.632100,4.004877,-2.684071,-0.113828,0.399549,-0.031958,3.304858,188.495655,0
0.061458,-96.817132,195.943074,-57.318561,1.819668,2.610470,-4.192318,1.225951,-2.400135,4.319629,-1.250258,-0.080951,0.390600,-0.054364,4.922188,188.495794,0
0.062500,-152.962510,163.324633,6.671970,2.995908,3.668453,-3.608936,-0.341224,-3.359506,3.664945,0.286731,-0.146705,0.392364,-0.020755,6.335938,188.420332,0
0.063542,-182.101394,112.741888,67.129356,4.206078,4.250698,-2.462016,-1.964370,-4.021141,2.607379,1.891320,-0.175929,0.389685,-0.020755,7.297288,188.495769,0
0.064583,-184.188414,34.421388,124.681440,5.257908,4.257799,-0.997608,-3.274081,-3.984384,1.109159,3.125893,-0.179582,0.393409,-0.020755,7.851478,188.495712,0
0.065625,-156.308548,-32.675953,166.808334,6.049608,3.643601,0.530297,-3.971847,-3.510212,-0.359683,3.862367,-0.183235,0.398635,-0.031958,7.704448,188.495691,0
0.066667,-89.126917,-86.242682,188.745834,6.558558,2.361950,2.415374,-4.386029,-2.098724,-2.210425,4.211036,-0.252642,0.390992,-0.024490,5.261488,188.495664,0
0.067708,-19.291142,-139.966462,182.541288,6.388908,0.899236,3.494829,-3.893488,-0.698263,-3.393892,3.869483,-0.219765,0.390535,-0.054364,3.010798,188.495658,0
0.068750,44.431026,-177.815934,134.480682,5.450178,-0.851051,4.193299,-2.815123,1.018312,-4.103133,2.823476,-0.223418,0.389228,-0.028224,1.744078,188.495662,0
0.069792,96.459076,-195.925209,57.502462,4.025118,-2.512582,4.308388,-1.330037,2.778997,-4.354935,1.407453,-0.164970,0.393343,-0.035692,0.160678,188.495729,0
0.070833,152.502371,-163.318849,-6.364962,2.848878,-3.559914,3.709132,0.225944,3.690583,-3.725431,-0.093958,-0.139399,0.389489,-0.035692,-1.501892,188.495607,0
0.071875,181.731995,-112.748185,-66.785417,1.661328,-4.170562,2.546337,1.864015,4.447787,-2.638487,-1.709221,-0.113828,0.391188,-0.017021,-2.270972,188.495702,0
0.072917,183.773645,-34.439765,-124.546781,0.586878,-4.145710,1.081930,3.173726,4.374272,-1.110891,-2.936678,-0.051727,0.388444,-0.073035,-2.938261,188.495731,0
0.073958,156.392849,32.826708,-166.870644,-0.238752,-3.638020,-0.366603,3.897612,3.889073,0.311788,-3.737193,-0.033462,0.402554,-0.058098,-3.187081,188.495738,0
0.075000,89.165848,86.574650,-188.918940,-0.679842,-2.242760,-2.259618,4.289406,2.521694,2.179316,-4.060957,-0.066339,0.397263,-0.028224,-0.303032,188.495597,0
0.076042,19.284703,140.238026,-182.431251,-0.510192,-0.815549,-3.323198,3.819253,1.095503,3.366980,-3.715846,-0.048074,0.393213,-0.013287,1.710148,188.495638,0
0.077083,-43.915710,178.377440,-134.358334,0.360678,0.995093,-4.093104,2.722230,-0.635775,4.080418,-2.634261,-0.099216,0.393409,-0.020755,3.203068,188.495693,0
0.078125,-96.635652,195.930993,-57.712500,1.808358,2.624671,-4.200255,1.199832,-2.436893,4.344810,-1.243143,-0.113828,0.392168,-0.043161,4.865638,188.495740,0
0.079167,-153.325470,163.517928,6.265720,2.984598,3.707506,-3.676402,-0.348687,-3.355830,3.706912,0.304521,-0.150358,0.392821,-0.061832,6.369868,188.495653,0
0.080208,-182.010654,113.563390,66.735417,4.149528,4.325254,-2.454079,-1.956907,-4.079953,2.611575,1.880647,-0.175929,0.392625,-0.043161,7.172878,188.495758,0
0.081250,-184.335866,35.532831,124.718372,5.291838,4.254249,-0.949985,-3.352440,-4.035844,1.146930,3.150798,-0.179582,0.400333,-0.043161,7.806238,188.495658,0
0.082292,-156.955070,-31.902775,166.771402,6.083538,3.700405,0.538234,-4.009161,-3.550645,-0.359683,3.919293,-0.205153,0.407715,-0.054364,7.466938,188.495769,0
0.083333,-90.011632,-85.699041,189.324432,6.513318,2.319347,2.474903,-4.434537,-2.153860,-2.231408,4.278635,-0.223418,0.396936,-0.065566,5.306728,188.420318,0
0.084375,-20.708954,-139.652358,182.442804,6.366288,0.863733,3.506734,-3.923339,-0.716642,-3.448449,3.937082,-0.216112,0.409544,-0.058098,3.101278,188.495810,0
0.085417,43.160666,-178.299170,134.899243,5.506728,-0.897205,4.244891,-2.833779,0.985231,-4.119920,2.848381,-0.208806,0.400137,-0.039427,1.619668,188.495667,0
0.086458,96.425049,-195.550701,58.364205,4.047738,-2.555185,4.399666,-1.300186,2.812078,-4.367525,1.432358,-0.146705,0.396871,-0.039427,0.092818,188.495541,0
0.087500,152.967413,-163.681276,-5.293939,2.860188,-3.574115,3.772629,0.252064,3.742043,-3.738021,-0.079727,-0.146705,0.396544,-0.035692,-1.535822,188.571131,0
0.088542,181.845420,-113.920033,-66.317614,1.672638,-4.135059,2.605866,1.871478,4.462490,-2.651077,-1.662969,-0.077298,0.395499,-0.039427,-2.384071,188.495987,0
0.089583,184.250030,-36.082768,-124.448296,0.586878,-4.184763,1.113678,3.177458,4.396327,-1.148661,-2.965141,-0.037115,0.402489,-0.046895,-2.893021,188.495725,0
0.090625,156.789836,31.485728,-167.018372,-0.193512,-3.577665,-0.342792,3.882686,3.900100,0.324378,-3.733635,-0.069992,0.410132,-0.058098,-3.153151,188.495694,0
0.091667,90.844538,85.861877,-188.931251,-0.645912,-2.296015,-2.231838,4.311794,2.540073,2.145743,-4.085862,-0.051727,0.410328,-0.061832,-0.370892,188.495633,0
0.092708,21.178900,140.129298,-182.554357,-0.544122,-0.815549,-3.362884,3.819253,1.091827,3.362784,-3.737193,-0.080951,0.404971,-0.050629,1.597048,188.495774,0
0.093750,-43.099050,178.027094,-135.121591,0.360678,0.945389,-4.093104,2.737156,-0.624748,4.034254,-2.680513,-0.066339,0.403338,-0.039427,3.270928,188.495716,0
0.094792,-96.612967,195.906832,-59.115909,1.751808,2.628221,-4.255816,1.252071,-2.385432,4.344810,-1.300068,-0.106522,0.399157,-0.028224,4.899568,188.495645,0
0.095833,-153.166675,163.662899,4.886932,2.950668,3.668453,-3.660528,-0.303911,-3.370533,3.736289,0.215574,-0.135746,0.397720,-0.080503,6.335938,188.495640,0
0.096875,-182.645834,114.529862,66.082955,4.126908,4.303953,-2.497733,-1.900937,-4.079953,2.640952,1.834395,-0.219765,0.400399,-0.058098,7.297288,188.495714,0
0.097917,-184.233784,36.740921,124.619887,5.257908,4.272000,-1.005545,-3.281544,-4.002762,1.146930,3.108104,-0.212459,0.401640,-0.050629,7.817548,188.495635,0
0.098958,-157.227290,-30.404743,167.288447,6.060918,3.725257,0.462831,-3.949459,-3.580051,-0.296733,3.901504,-0.216112,0.411373,-0.043161,7.738378,188.495702,0
0.100000,-91.599582,-85.421180,188.327273,6.535938,2.401003,2.419342,-4.430806,-2.205321,-2.176851,4.285751,-0.227071,0.410720,-0.035692,5.318038,188.570059,0
0.101042,-21.389504,-139.773167,182.799811,6.400218,0.913437,3.474986,-3.949459,-0.764427,-3.414875,3.933524,-0.256295,0.407715,-0.039427,3.078658,188.496159,0
0.102083,42.967844,-177.296455,135.748675,5.518038,-0.840401,4.240922,-2.844973,0.970528,-4.090543,2.841265,-0.201500,0.401574,-0.058098,1.789318,188.496228,0
0.103125,96.107458,-195.961452,59.582955,4.081668,-2.516132,4.399666,-1.393471,2.727536,-4.392705,1.460821,-0.186888,0.400399,-0.054364,0.183298,188.496071,0
0.104167,152.502371,-163.705438,-4.370644,2.928048,-3.556363,3.824221,0.184899,3.719989,-3.796774,-0.051264,-0.102869,0.398178,-0.028224,-1.524512,188.497017,0
0.105208,182.253750,-114.222055,-65.874432,1.695258,-4.198964,2.629677,1.800582,4.462490,-2.680454,-1.648737,-0.099216,0.397132,-0.024490,-2.327522,188.496082,0
0.106250,183.921097,-36.421033,-124.226705,0.575568,-4.191863,1.153364,3.184920,4.392651,-1.207415,-2.958025,-0.073645,0.394781,-0.009553,-2.926951,188.496063,0
0.107292,156.891919,31.159544,-166.993751,-0.193512,-3.669972,-0.342792,3.905075,3.903776,0.332771,-3.740751,-0.073645,0.409740,-0.035692,-3.187081,188.496177,0
0.108333,90.492921,85.982686,-188.537311,-0.657222,-2.296015,-2.259618,4.315525,2.506991,2.196103,-4.107209,-0.077298,0.408695,-0.009553,-0.336962,188.496187,0
0.109375,20.464323,139.851437,-182.775948,-0.555432,-0.865253,-3.382727,3.849104,1.121233,3.425734,-3.754983,-0.040768,0.399223,-0.054364,1.676218,188.496033,0
0.110417,-43.439325,177.954608,-135.158523,0.360678,0.924088,-4.112947,2.781932,-0.617397,4.067828,-2.698302,-0.059033,0.398178,-0.031958,3.180448,188.489571,0
0.111458,-96.068527,196.220935,-58.955871,1.785738,2.631772,-4.275658,1.274459,-2.433217,4.428743,-1.278721,-0.128440,0.396479,-0.058098,4.843018,188.495689,0
0.112500,-152.724317,163.747465,5.120833,2.995908,3.718157,-3.680371,-0.326299,-3.385236,3.753076,0.276058,-0.143052,0.396740,-0.013287,6.358558,188.495805,0
0.113542,-182.271531,114.082869,66.058334,4.172148,4.357207,-2.489796,-1.945713,-4.116711,2.632559,1.845068,-0.150358,0.395369,-0.035692,7.218118,188.495655,0
0.114583,-184.335866,35.750287,124.152084,5.257908,4.339455,-0.993640,-3.348708,-4.024817,1.172110,3.154356,-0.194194,0.386484,-0.046895,7.851478,188.495783,0
0.115625,-157.045810,-31.564510,166.660607,6.083538,3.735908,0.522359,-4.012892,-3.539618,-0.355486,4.001123,-0.201500,0.377731,-0.043161,7.534798,188.495664,0
0.116667,-89.943577,-85.312452,189.004357,6.513318,2.358400,2.415374,-4.483045,-2.157536,-2.197834,4.292867,-0.234377,0.415750,-0.039427,5.318038,188.495734,0
0.117708,-20.028404,-139.265769,182.898296,6.377598,0.899236,3.506734,-3.941996,-0.727669,-3.461039,3.929966,-0.245336,0.387791,-0.031958,3.157828,188.495740,0
0.118750,43.387516,-177.743449,135.293182,5.438868,-0.872353,4.284577,-2.874824,1.036691,-4.115723,2.869728,-0.186888,0.389881,-0.013287,1.676218,188.495649,0
0.119792,95.744498,-196.082261,58.511932,4.081668,-2.516132,4.415540,-1.344963,2.797375,-4.417885,1.446589,-0.168623,0.397720,-0.024490,0.115438,188.495678,0
0.120833,152.105383,-163.886652,-5.466288,2.905428,-3.613168,3.824221,0.196093,3.771449,-3.805168,-0.090400,-0.110175,0.395434,-0.050629,-1.547132,188.495807,0
0.121875,181.970187,-113.569686,-66.046781,1.740498,-4.209615,2.625709,1.834164,4.466166,-2.684651,-1.677200,-0.062686,0.393082,-0.009553,-2.384071,188.495870,0
0.122917,184.306742,-35.128377,-123.500379,0.598188,-4.202514,1.109710,3.207309,4.425733,-1.157055,-3.011393,-0.069992,0.395891,-0.009553,-2.870401,188.495664,0
0.123958,156.619699,32.162259,-166.612122,-0.227442,-3.616718,-0.350729,3.949851,3.940534,0.341165,-3.801235,-0.048074,0.374791,-0.054364,-3.164461,188.495676,0
0.125000,89.971166,85.753149,-188.820455,-0.657222,-2.267612,-2.231838,4.345376,2.536397,2.196103,-4.103652,-0.051727,0.413725,-0.043161,-0.336962,188.495741,0
0.126042,19.987938,139.501091,-183.145266,-0.532812,-0.851051,-3.386696,3.834179,1.102855,3.404750,-3.783445,-0.106522,0.389881,-0.039427,1.619668,188.495812,0
0.127083,-43.745573,177.543857,-135.170834,0.383298,0.956040,-4.108978,2.763276,-0.595342,4.034254,-2.691186,-0.106522,0.375575,-0.039427,3.248308,188.495830,0
0.128125,-95.909732,196.571281,-58.291099,1.819668,2.635322,-4.271690,1.278190,-2.385432,4.378383,-1.271606,-0.102869,0.393605,-0.017021,4.876948,188.495830,0
