1-Time,2-VGERA,3-VGERB,4-VGERC,5-VN,6-IGERAN,7-IGERBN,8-IGERCN,9-IGERAT,10-IGERBT,11-IGERCT,12-IN,13-IFD,14-IFAULT,15-VFAULT,16-Speed (rad/s),17-FAULT 
0.000000,-136.697364,-42.666861,187.416288,6.490698,4.474366,1.439102,-5.550217,-4.285795,-1.169645,5.324642,-0.234377,0.458146,-0.031958,100.525616,188.495550,0
0.001042,-66.385204,-97.091333,198.815910,6.716898,2.617570,3.542452,-5.550217,-2.517759,-3.372908,5.498977,-0.234377,0.460824,-0.009553,58.294077,188.721815,0
0.002083,-3.230161,-161.156367,170.366099,6.207948,0.604563,5.050513,-4.930809,-0.507124,-4.850144,4.890585,-0.223418,0.465070,-0.050629,13.845778,188.570982,0
0.003125,57.361477,-188.628343,119.326326,5.167428,-1.596610,5.586272,-3.203185,1.679947,-5.488042,3.296670,-0.186888,0.453769,-0.050629,-21.961681,188.571033,0
0.004167,115.707299,-196.106423,38.827273,3.685818,-3.659321,5.558492,-1.199439,3.830261,-5.467058,1.339854,-0.150358,0.443578,-0.058098,-55.812510,188.495653,0
0.005208,162.064099,-160.818102,-29.114962,2.396478,-4.841564,4.590158,0.819232,5.091043,-4.615130,-0.638309,-0.113828,0.445865,-0.073035,-90.036570,188.721871,0
0.006250,192.212465,-86.568866,-79.970076,1.423818,-5.548069,2.732861,3.166263,5.726948,-2.785371,-2.858405,-0.037115,0.440247,0.016587,-114.375689,188.571035,0
0.007292,182.662080,-18.577538,-140.390531,0.258888,-5.224994,0.974778,4.405078,5.476997,-0.955613,-4.164135,-0.033462,0.443121,-0.039427,-116.083499,188.571062,0
0.008333,135.828895,44.351891,-186.727652,-0.589362,-4.273520,-1.219849,5.382697,4.528654,1.130143,-5.138985,-0.000585,0.423066,-0.024490,-95.465369,188.495689,0
0.009375,64.257717,97.797810,-199.025948,-0.860802,-2.469978,-3.339073,5.442399,2.760618,3.320817,-5.313319,0.039598,0.425091,-0.054364,-52.713570,188.721808,0
0.010417,1.182072,160.872210,-170.169887,-0.363162,-0.506674,-4.811417,4.867768,0.772037,4.739299,-4.655118,-0.000585,0.452136,-0.028224,-8.548021,188.571085,0
0.011458,-58.263973,189.069040,-118.465341,0.688668,1.683847,-5.398768,3.199846,-1.370925,5.444343,-3.182169,-0.066339,0.422805,-0.054364,26.479048,188.571053,0
0.012500,-115.520916,195.822265,-37.880114,2.204208,3.743009,-5.339239,1.225951,-3.480806,5.398180,-1.196891,-0.055380,0.440182,-0.035692,60.646557,188.495673,0
0.013542,-162.342758,161.162152,29.877462,3.470928,4.943003,-4.430433,-0.830034,-4.793049,4.609201,0.695884,-0.128440,0.444493,-0.009553,94.633106,188.721871,0
0.014583,-191.889972,87.118291,80.486364,4.409658,5.656609,-2.589010,-3.169603,-5.377493,2.804623,2.990695,-0.183235,0.446322,-0.017021,119.085326,188.646554,0
0.015625,-183.133561,19.513552,140.808334,5.597208,5.393888,-0.799179,-4.423343,-5.241490,1.012636,4.310656,-0.234377,0.444297,-0.050629,121.584836,188.571073,0
0.016667,-136.765419,-43.548767,186.480682,6.468078,4.424662,1.399416,-5.423350,-4.238010,-1.173841,5.239254,-0.223418,0.455272,-0.043161,99.677366,188.495816,0
0.017708,-65.965531,-97.441680,198.975948,6.671658,2.677925,3.510703,-5.524097,-2.517759,-3.330942,5.438493,-0.230724,0.459256,-0.020755,58.927437,188.722050,0
0.018750,-3.094051,-160.769778,170.144508,6.185328,0.636515,4.943362,-4.908421,-0.503448,-4.707457,4.798081,-0.205153,0.452463,-0.058098,15.033328,188.571165,0
0.019792,57.508929,-188.894123,119.560228,5.178738,-1.518504,5.534681,-3.274081,1.650541,-5.433485,3.307343,-0.172276,0.459060,-0.035692,-21.667621,188.571073,0
0.020833,115.854752,-195.381568,39.048864,3.685818,-3.559914,5.487058,-1.240484,3.719989,-5.404108,1.357643,-0.132093,0.445081,-0.058098,-55.710720,188.495680,0
0.021875,162.495114,-161.132206,-29.324243,2.362548,-4.820262,4.578252,0.733410,5.006501,-4.577359,-0.602730,-0.095563,0.445212,-0.050629,-89.369280,188.721944,0
0.022917,191.361778,-87.197073,-80.487121,1.412508,-5.526768,2.776515,3.069248,5.668136,-2.793765,-2.801480,-0.037115,0.442207,-0.039427,-114.613199,188.571096,0
0.023958,182.888930,-18.927884,-140.476705,0.247578,-5.242746,0.974778,4.397616,5.506403,-1.005974,-4.142788,-0.011544,0.453116,-0.039427,-115.110839,188.571170,0
0.025000,135.953663,44.629752,-186.358334,-0.634602,-4.255768,-1.223818,5.378966,4.513951,1.117553,-5.085617,0.043251,0.449784,-0.065566,-94.832009,188.571116,0
0.026042,64.325772,97.991105,-199.247538,-0.838182,-2.469978,-3.303355,5.412548,2.760618,3.291440,-5.323993,0.006721,0.441684,-0.061832,-52.148070,188.721947,0
0.027083,1.363552,161.017181,-170.108334,-0.317922,-0.474722,-4.819354,4.837917,0.749983,4.722512,-4.672907,0.003068,0.422609,-0.031958,-8.932561,188.571103,0
0.028125,-58.490823,189.081121,-118.354546,0.677358,1.694498,-5.386862,3.203577,-1.466495,5.440146,-3.207074,-0.051727,0.460824,-0.065566,26.705248,188.571064,0
0.029167,-116.008643,195.749780,-37.621591,2.204208,3.725257,-5.367019,1.181175,-3.473454,5.473720,-1.164870,-0.099216,0.443448,-0.046895,61.653147,188.571138,0
0.030208,-162.206648,160.956776,30.197538,3.448308,4.946553,-4.402653,-0.807646,-4.804076,4.621791,0.720789,-0.124787,0.441815,-0.054364,93.864026,188.721985,0
0.031250,-192.003397,86.478003,80.683334,4.443588,5.713413,-2.608853,-3.188260,-5.421602,2.783640,2.994253,-0.168623,0.440900,-0.020755,119.413316,188.571218,0
0.032292,-182.849999,18.740374,140.869887,5.597208,5.440042,-0.815053,-4.445731,-5.274572,1.025226,4.335561,-0.205153,0.445277,-0.039427,120.465146,188.571160,0
0.033333,-136.141582,-44.007841,186.776137,6.456768,4.460165,1.403385,-5.497978,-4.252713,-1.161251,5.271275,-0.234377,0.446061,-0.046895,100.333346,188.571114,0
0.034375,-65.341694,-97.695379,198.717425,6.716898,2.653073,3.463080,-5.550217,-2.514084,-3.318351,5.481188,-0.234377,0.454814,-0.050629,58.350627,188.722000,0
0.035417,-2.560953,-161.156367,170.095266,6.174018,0.622314,4.959236,-4.949466,-0.496097,-4.753620,4.858564,-0.212459,0.457819,-0.054364,14.162458,188.571069,0
0.036458,57.951287,-188.459210,119.634091,5.201358,-1.518504,5.546586,-3.274081,1.650541,-5.404108,3.318017,-0.186888,0.455860,-0.050629,-22.244431,188.571102,0
0.037500,116.217712,-195.586944,39.270455,3.651888,-3.630919,5.534681,-1.292724,3.712637,-5.404108,1.382548,-0.095563,0.446257,-0.028224,-56.208360,188.495725,0
0.038542,162.393031,-160.999316,-29.373485,2.385168,-4.781209,4.582221,0.752067,5.010177,-4.606736,-0.517342,-0.110175,0.450307,-0.076769,-90.285390,188.721896,0
0.039583,191.702053,-87.474934,-80.696402,1.423818,-5.533868,2.768578,3.061785,5.646082,-2.802158,-2.805037,-0.055380,0.447367,-0.020755,-114.172109,188.571227,0
0.040625,182.696107,-19.133260,-140.772160,0.247578,-5.214343,0.994621,4.360302,5.532133,-1.064727,-4.153461,-0.007891,0.454684,-0.031958,-115.993019,188.571170,0
0.041667,136.203198,44.653913,-186.518372,-0.645912,-4.319673,-1.188100,5.412548,4.488220,1.096569,-5.092733,0.010374,0.468337,-0.043161,-95.465369,188.495761,0
0.042708,64.632020,98.365613,-198.828978,-0.883422,-2.452227,-3.287481,5.461056,2.775321,3.253669,-5.352456,-0.022503,0.462588,-0.058098,-52.781430,188.721920,0
0.043750,1.408922,161.137990,-170.071402,-0.329232,-0.492473,-4.791574,4.841649,0.786740,4.739299,-4.672907,-0.007891,0.465593,-0.013287,-8.423611,188.571160,0
0.044792,-58.865126,189.008635,-118.317614,0.654738,1.658995,-5.335270,3.203577,-1.374601,5.452737,-3.203516,-0.037115,0.437569,-0.058098,27.033238,188.571020,0
0.045833,-116.110726,195.665213,-37.387690,2.181588,3.732358,-5.343208,1.225951,-3.414642,5.427556,-1.200449,-0.073645,0.443840,-0.031958,60.917997,188.571060,0
0.046875,-162.444840,161.029262,30.714583,3.459618,4.946553,-4.382810,-0.788989,-4.770994,4.621791,0.749251,-0.143052,0.445995,-0.024490,94.542626,188.721828,0
0.047917,-191.674464,86.224304,81.101894,4.420968,5.685011,-2.592979,-3.128558,-5.359114,2.796230,2.926654,-0.161317,0.439528,-0.031958,118.926986,188.571145,0
0.048958,-182.895369,18.112167,140.956061,5.551968,5.400989,-0.842833,-4.434537,-5.252517,1.016832,4.271520,-0.168623,0.447041,-0.020755,121.528286,188.495741,0
0.050000,-136.016814,-44.781019,186.456061,6.490698,4.456615,1.355762,-5.449470,-4.278444,-1.060531,5.235696,-0.223418,0.458734,-0.043161,99.405926,188.571174,0
0.051042,-64.751884,-98.045725,198.963637,6.705588,2.663724,3.443237,-5.527828,-2.547165,-3.251204,5.424262,-0.205153,0.452528,-0.024490,58.599447,188.721853,0
0.052083,-1.778321,-160.999316,169.922917,6.219258,0.679119,4.919550,-4.923347,-0.514476,-4.703260,4.812312,-0.205153,0.440312,-0.054364,14.942848,188.571060,0
0.053125,58.393644,-188.761233,119.178599,5.212668,-1.458149,5.498963,-3.289007,1.573351,-5.441878,3.367827,-0.194194,0.463960,-0.065566,-21.950371,188.495731,0
0.054167,116.342479,-195.260759,39.073485,3.685818,-3.574115,5.546586,-1.266604,3.708961,-5.429288,1.368317,-0.132093,0.445212,-0.050629,-56.140500,188.571053,0
0.055208,162.710621,-161.047639,-29.496591,2.362548,-4.749257,4.562378,0.714753,4.988122,-4.648703,-0.556478,-0.062686,0.447563,-0.061832,-89.663340,188.721831,0
0.056250,191.622655,-87.245397,-81.065720,1.446438,-5.505466,2.800326,3.091636,5.664460,-2.818945,-2.819269,-0.029809,0.445277,-0.031958,-114.737609,188.571089,0
0.057292,182.673422,-19.024532,-141.129167,0.247578,-5.253396,1.006527,4.334182,5.480673,-1.064727,-4.128556,-0.018850,0.461739,-0.039427,-114.941189,188.495653,0
0.058333,136.067088,44.581428,-186.752273,-0.634602,-4.262869,-1.211912,5.371503,4.502923,1.134340,-5.114080,-0.011544,0.457819,-0.024490,-94.820699,188.571223,0
0.059375,64.858870,98.438098,-198.927463,-0.872112,-2.487730,-3.319230,5.453593,2.760618,3.341800,-5.299088,-0.004238,0.459779,-0.039427,-52.170690,188.646467,0
0.060417,1.431607,161.524579,-169.948296,-0.329232,-0.485373,-4.791574,4.867768,0.753658,4.764479,-4.712043,-0.011544,0.458734,-0.028224,-8.819461,188.571154,0
0.061458,-58.978551,188.948231,-118.046781,0.654738,1.683847,-5.335270,3.211040,-1.415034,5.461130,-3.157264,-0.048074,0.454422,-0.031958,27.067168,188.495689,0
0.062500,-116.575768,195.798103,-37.387690,2.181588,3.785612,-5.367019,1.207294,-3.499185,5.448540,-1.175544,-0.073645,0.439398,-0.020755,61.924587,188.571134,0
0.063542,-162.240675,160.666835,30.739205,3.482238,4.982056,-4.394716,-0.837496,-4.785697,4.588218,0.770599,-0.106522,0.441096,-0.046895,93.818786,188.646522,0
0.064583,-192.411727,85.644421,81.077273,4.432278,5.695662,-2.581073,-3.229305,-5.425278,2.792033,3.008484,-0.143052,0.442533,-0.002084,119.515106,188.571071,0
0.065625,-182.362271,17.580607,141.066856,5.563278,5.415190,-0.791242,-4.456925,-5.241490,0.995849,4.332003,-0.201500,0.444101,-0.020755,120.238946,188.495631,0
0.066667,-135.324922,-44.865585,187.145455,6.479388,4.421112,1.399416,-5.479321,-4.241686,-1.148661,5.278390,-0.216112,0.433192,-0.028224,100.084526,188.571169,0
0.067708,-63.991936,-98.202777,198.729735,6.660348,2.592718,3.506734,-5.550217,-2.492029,-3.335138,5.470514,-0.252642,0.437764,-0.020755,57.705957,188.646585,0
0.068750,-0.938976,-161.651684,170.070644,6.162708,0.650716,4.994953,-4.945735,-0.510800,-4.770407,4.855007,-0.234377,0.468337,-0.035692,13.325518,188.571192,0
0.069792,58.824659,-188.302159,118.723106,5.201358,-1.522054,5.554524,-3.247961,1.632163,-5.437681,3.350037,-0.168623,0.447106,-0.050629,-22.583731,188.495731,0
0.070833,116.762152,-195.901047,38.667235,3.674508,-3.613168,5.570398,-1.244216,3.764098,-5.467058,1.364759,-0.139399,0.447759,-0.080503,-56.638140,188.571214,0
0.071875,162.438401,-160.528160,-29.755114,2.396478,-4.791860,4.606032,0.774455,5.054286,-4.598343,-0.560036,-0.095563,0.449915,-0.035692,-90.624690,188.646418,0
0.072917,192.269178,-87.003779,-81.102652,1.412508,-5.558720,2.772546,3.091636,5.664460,-2.818945,-2.829942,-0.018850,0.448935,-0.028224,-114.432239,188.571132,0
0.073958,182.253750,-19.362797,-141.400000,0.247578,-5.267598,0.978746,4.412541,5.532133,-1.035351,-4.149904,-0.044421,0.456513,-0.024490,-115.721579,188.495765,0
0.075000,136.123800,44.291486,-187.207766,-0.623292,-4.284170,-1.227786,5.397623,4.477193,1.146930,-5.128311,0.003068,0.466834,-0.035692,-95.431439,188.495810,0
0.076042,65.085720,98.764282,-198.484281,-0.860802,-2.462878,-3.319230,5.442399,2.797375,3.304030,-5.313319,-0.022503,0.461673,-0.028224,-52.781430,188.646643,0
0.077083,1.318182,161.790359,-169.911364,-0.317922,-0.471172,-4.807449,4.871500,0.779389,4.768676,-4.704928,0.028639,0.464744,-0.043161,-8.208721,188.571056,0
0.078125,-59.182716,188.803260,-118.120644,0.677358,1.669646,-5.370988,3.188652,-1.407683,5.448540,-3.217748,-0.029809,0.455533,-0.054364,27.191578,188.495673,0
0.079167,-116.779933,195.834346,-37.375379,2.170278,3.743009,-5.359082,1.166249,-3.473454,5.452737,-1.186217,-0.073645,0.441749,-0.017021,61.245987,188.571100,0
0.080208,-162.626320,160.606430,31.108523,3.504858,4.960754,-4.434402,-0.826302,-4.785697,4.609201,0.745694,-0.139399,0.442729,-0.050629,94.700966,188.646446,0
0.081250,-192.320987,85.644421,81.323485,4.454898,5.670810,-2.612822,-3.188260,-5.414250,2.779443,2.976464,-0.201500,0.443252,-0.054364,119.277596,188.571185,0
0.082292,-182.509724,17.580607,141.140720,5.597208,5.354835,-0.822991,-4.427074,-5.248842,1.000045,4.303540,-0.201500,0.431167,-0.020755,121.313396,188.495810,0
0.083333,-135.279552,-45.324660,186.948485,6.456768,4.442413,1.403385,-5.471858,-4.274768,-1.094104,5.264159,-0.212459,0.461281,-0.031958,99.202346,188.571208,0
0.084375,-63.594948,-98.504799,198.852842,6.682968,2.642422,3.494829,-5.520366,-2.481002,-3.280581,5.470514,-0.245336,0.434760,0.009119,57.909537,188.571020,0
0.085417,-0.224398,-161.579199,169.836743,6.128778,0.632965,4.979079,-4.960660,-0.536530,-4.787194,4.858564,-0.175929,0.468990,-0.061832,13.834468,188.571084,0
0.086458,59.255674,-188.773314,118.341478,5.190048,-1.490101,5.526744,-3.300201,1.668920,-5.462861,3.364269,-0.172276,0.440704,-0.005818,-22.436701,188.495662,0
0.087500,117.011687,-195.671510,37.940909,3.708438,-3.588316,5.558492,-1.285261,3.701610,-5.429288,1.393222,-0.143052,0.449719,-0.050629,-56.547660,188.571203,0
0.088542,162.755991,-160.334866,-30.284470,2.396478,-4.791860,4.610001,0.729679,5.013853,-4.615130,-0.556478,-0.121134,0.454422,-0.039427,-89.991330,188.571203,0
0.089583,192.223808,-86.496381,-81.471970,1.412508,-5.537419,2.784452,3.110293,5.675488,-2.848322,-2.790806,-0.037115,0.455533,-0.013287,-115.144769,188.571040,0
0.090625,182.231065,-18.988289,-141.818561,0.224958,-5.267598,0.998589,4.375227,5.535809,-1.043744,-4.153461,-0.055380,0.455141,-0.035692,-114.692369,188.495689,0
0.091667,135.794868,44.472700,-187.355493,-0.679842,-4.301922,-1.223818,5.431205,4.524978,1.130143,-5.160332,-0.007891,0.460171,-0.058098,-94.843319,188.571123,0
0.092708,65.221830,98.836768,-198.508902,-0.872112,-2.544534,-3.358916,5.490907,2.756942,3.320817,-5.348898,-0.000585,0.465070,-0.005818,-52.351650,188.495731,0
0.093750,1.476977,162.164867,-169.714394,-0.317922,-0.488923,-4.847135,4.864037,0.761010,4.793856,-4.715601,-0.015197,0.464874,-0.043161,-8.717671,188.570655,0
0.094792,-59.318826,188.742855,-117.923675,0.677358,1.694498,-5.359082,3.188652,-1.444440,5.448540,-3.203516,-0.044421,0.457885,-0.039427,27.168958,188.496159,0
0.095833,-117.539881,195.846427,-37.375379,2.170278,3.785612,-5.370988,1.181175,-3.488157,5.456933,-1.225354,-0.059033,0.444558,-0.050629,62.365677,188.571440,0
0.096875,-162.637663,160.207760,31.071591,3.493548,4.985606,-4.386779,-0.878542,-4.840833,4.584021,0.756367,-0.113828,0.445408,-0.069301,94.124156,188.496054,0
0.097917,-192.978852,85.366560,81.446591,4.432278,5.692111,-2.541387,-3.233036,-5.436305,2.762656,3.022716,-0.139399,0.441553,-0.061832,119.899646,188.571409,0
0.098958,-181.965284,17.363151,141.473106,5.563278,5.415190,-0.763462,-4.479314,-5.219436,0.987455,4.356908,-0.194194,0.432669,-0.020755,120.069296,188.496047,0
0.100000,-134.939277,-45.312579,187.551705,6.456768,4.424662,1.443071,-5.512903,-4.274768,-1.178038,5.285506,-0.248989,0.457231,-0.061832,99.677366,188.571377,0
0.101042,-63.311386,-98.830984,198.618940,6.671658,2.585618,3.502766,-5.557679,-2.514084,-3.318351,5.427820,-0.241683,0.426398,-0.013287,56.902947,188.495924,0
0.102083,0.183932,-161.905383,169.898296,6.094848,0.632965,4.998922,-4.979317,-0.477718,-4.808177,4.844333,-0.197847,0.428815,-0.050629,12.262378,188.571545,0
0.103125,59.686689,-188.302159,117.836743,5.190048,-1.554006,5.546586,-3.300201,1.668920,-5.462861,3.342922,-0.161317,0.443252,-0.058098,-23.183161,188.496154,0
0.104167,117.125112,-196.082261,37.386932,3.708438,-3.630919,5.558492,-1.292724,3.749395,-5.441878,1.346970,-0.161317,0.448151,-0.050629,-56.943510,188.496154,0
0.105208,162.234236,-159.948277,-30.678409,2.385168,-4.806061,4.617938,0.763261,5.043259,-4.606736,-0.609846,-0.099216,0.450568,-0.039427,-90.636000,188.496183,0
0.106250,192.654823,-85.868174,-81.582765,1.401198,-5.572921,2.820169,3.076711,5.697542,-2.839928,-2.808595,-0.033462,0.442076,-0.013287,-114.658439,188.571473,0
0.107292,181.766022,-18.468810,-141.880114,0.247578,-5.256947,0.998589,4.382690,5.502727,-1.068924,-4.117883,-0.018850,0.455860,-0.050629,-115.506689,188.496069,0
0.108333,135.613388,44.774722,-187.614016,-0.657222,-4.316123,-1.180163,5.401354,4.510275,1.117553,-5.121196,0.017680,0.460759,-0.073035,-95.408819,188.496100,0
0.109375,65.051692,99.295842,-198.201137,-0.883422,-2.512582,-3.319230,5.498370,2.778997,3.283046,-5.316877,-0.000585,0.463176,-0.039427,-52.928460,188.495987,0
0.110417,1.306839,162.358161,-169.800569,-0.295302,-0.485373,-4.795543,4.878962,0.783064,4.756086,-4.722717,-0.007891,0.461151,-0.080503,-8.276581,188.571534,0
0.111458,-59.522991,188.464995,-117.935985,0.632118,1.666096,-5.339239,3.207309,-1.407683,5.440146,-3.210632,-0.048074,0.458081,-0.028224,27.327298,188.495893,0
0.112500,-117.675991,195.737699,-37.572349,2.181588,3.732358,-5.394799,1.173712,-3.429345,5.452737,-1.236027,-0.066339,0.446714,-0.035692,61.766247,188.496080,0
0.113542,-162.841828,160.425216,31.243939,3.482238,4.932352,-4.390747,-0.807646,-4.745264,4.646971,0.717231,-0.124787,0.447694,-0.024490,94.972406,188.496094,0
0.114583,-192.638577,85.861877,81.692803,4.420968,5.677910,-2.577105,-3.199454,-5.373817,2.766853,3.004926,-0.172276,0.443382,-0.028224,119.390696,188.571462,0
0.115625,-182.169449,17.689336,141.682387,5.551968,5.386787,-0.846802,-4.404686,-5.182678,1.025226,4.299983,-0.219765,0.435805,-0.002084,121.132436,188.496080,0
0.116667,-135.007332,-45.711249,187.453220,6.456768,4.396260,1.355762,-5.471858,-4.197577,-1.119284,5.242812,-0.219765,0.434564,-0.069301,98.896976,188.496087,0
0.117708,-63.436153,-99.120925,198.840531,6.705588,2.614020,3.498797,-5.539023,-2.488353,-3.297368,5.392241,-0.212459,0.429991,-0.002084,57.310107,188.496031,0
0.118750,0.512864,-161.893302,169.787501,6.162708,0.664917,4.947330,-4.930809,-0.470367,-4.741030,4.833660,-0.197847,0.424895,-0.031958,12.997528,188.496235,0
0.119792,60.004279,-188.628343,117.430493,5.201358,-1.511403,5.498963,-3.274081,1.628487,-5.408304,3.357153,-0.154011,0.452659,-0.050629,-23.036131,188.496029,0
0.120833,117.317934,-195.804400,36.759091,3.697128,-3.602517,5.562461,-1.281529,3.705286,-5.383124,1.357643,-0.143052,0.445930,-0.058098,-56.751240,188.571406,0
0.121875,162.393031,-159.936196,-31.183144,2.351238,-4.777659,4.586189,0.718485,4.999150,-4.623523,-0.528016,-0.117481,0.451025,-0.031958,-89.923470,188.495946,0
0.122917,192.348575,-85.167481,-81.964394,1.412508,-5.533868,2.808264,3.102830,5.690191,-2.818945,-2.794364,-0.044421,0.442337,-0.061832,-115.167389,188.496009,0
0.123958,181.890790,-17.828522,-142.015531,0.236268,-5.249846,1.006527,4.341645,5.502727,-1.026957,-4.121441,-0.037115,0.452397,-0.046895,-114.534029,188.496067,0
0.125000,135.171030,45.245878,-187.737122,-0.623292,-4.301922,-1.227786,5.408817,4.528654,1.096569,-5.135427,-0.015197,0.456839,-0.065566,-94.877249,188.571458,0
0.126042,64.495910,99.513298,-198.398107,-0.860802,-2.551635,-3.331136,5.490907,2.804727,3.283046,-5.316877,-0.000585,0.462719,-0.039427,-52.317720,188.495948,0
0.127083,1.079989,162.660184,-169.714394,-0.295302,-0.520876,-4.803480,4.882694,0.786740,4.760282,-4.683581,-0.015197,0.465593,-0.061832,-8.830771,188.496038,0
