1-Time,2-VGERA,3-VGERB,4-VGERC,5-VN,6-IGERAN,7-IGERBN,8-IGERCN,9-IGERAT,10-IGERBT,11-IGERCT,12-IN,13-IFD,14-IFAULT,15-VFAULT,16-Speed (rad/s),17-Active Power,18-Reactive Power,19-FAULT 
0.000000,158.593294,-163.318849,-9.159470,2.781018,-3.797782,3.844064,0.565499,4.010373,-3.691857,-0.328776,-0.099216,0.400987,-0.043161,215.627484,188.704359,1209.964570,-4.601919,0
0.001042,183.796330,-110.923968,-72.829924,1.559538,-4.167011,2.514588,2.031927,4.550708,-2.479013,-1.840861,-0.066339,0.398896,-0.043161,199.578594,188.629444,1210.539658,-5.280930,0
0.002083,185.656500,-31.226245,-129.495644,0.507708,-4.209615,0.986684,3.446116,4.561735,-0.922040,-3.235537,-0.040768,0.359636,-0.039427,158.692945,188.554340,1211.512054,-5.384607,0
0.003125,154.850269,37.973173,-169.652841,-0.238752,-3.581215,-0.445975,4.054329,3.977291,0.492246,-3.861718,-0.033462,0.410197,-0.039427,89.656706,188.506170,1212.301786,-5.163582,0
0.004167,85.354768,90.766724,-195.554357,-0.759012,-2.185956,-2.311210,4.408810,2.547424,2.301020,-4.142788,-0.007891,0.409871,-0.024490,6.449038,188.746177,1213.111496,-4.469865,0
0.005208,17.674068,145.022064,-180.461554,-0.476262,-0.652236,-3.358916,3.755820,1.029340,3.471898,-3.694499,-0.040768,0.414639,-0.031958,-72.664410,188.508623,1213.594896,-4.142067,0
0.006250,-47.715448,186.254189,-131.009849,0.428538,1.154856,-4.105009,2.714768,-0.712966,4.235696,-2.620029,-0.069992,0.404710,-0.043161,-141.451828,188.512849,1214.133068,-4.745663,0
0.007292,-100.469418,196.426310,-55.668940,1.864908,2.798635,-4.049449,1.009532,-2.447920,4.290253,-1.036788,-0.069992,0.393866,-0.039427,-188.365707,188.513946,1214.927287,-3.725171,0
0.008334,-158.633760,163.469604,10.291288,3.131628,3.984428,-3.620842,-0.557644,-3.583727,3.761469,0.542896,-0.121134,0.395434,-0.035692,-211.313697,188.674167,1215.051859,-3.600080,0
0.009375,-184.154386,111.412989,72.964584,4.307868,4.392710,-2.331052,-2.072580,-4.102008,2.586395,1.994498,-0.172276,0.403208,-0.017021,-197.605977,188.510136,1215.429120,-4.143554,0
0.010417,-186.286776,33.007922,130.048864,5.382318,4.438863,-0.779336,-3.520351,-4.035844,0.991652,3.406963,-0.194194,0.391057,-0.024490,-154.198198,188.515790,1215.409752,-5.481347,0
0.011458,-155.333092,-37.327101,169.799811,6.128778,3.789162,0.685071,-4.094982,-3.598430,-0.456207,4.040260,-0.219765,0.413202,-0.043161,-86.066760,188.503564,1215.861578,-5.724695,0
0.012500,-84.646629,-90.543483,196.046023,6.649038,2.386802,2.542369,-4.423343,-2.087697,-2.239801,4.285751,-0.238030,0.396152,-0.039427,-1.875122,188.721900,1215.080740,-4.876667,0
0.013542,-16.024501,-144.738419,180.325379,6.377598,0.870834,3.574200,-3.863637,-0.580639,-3.389695,3.826789,-0.197847,0.415358,-0.035692,80.427747,188.623675,1215.263086,-5.573055,0
0.014583,47.697666,-186.272567,131.452273,5.438868,-0.861702,4.340137,-2.774077,1.132261,-4.128313,2.851939,-0.143052,0.410720,-0.043161,145.460245,188.550935,1215.667129,-5.330252,0
0.015627,100.428951,-195.454054,56.726894,4.036428,-2.565836,4.272671,-1.027796,2.870890,-4.187067,1.201098,-0.146705,0.400333,-0.050629,192.453294,188.621033,1215.980437,-5.359570,0
0.016667,158.559266,-163.451739,-10.156629,2.747088,-3.744528,3.800410,0.528185,4.006697,-3.645693,-0.364355,-0.091910,0.396479,-0.046895,215.955474,188.705616,1215.540054,-5.807779,0
0.017709,183.274575,-110.235357,-73.285417,1.593468,-4.159911,2.550306,2.017002,4.506599,-2.424456,-1.826630,-0.048074,0.399419,-0.024490,200.404224,188.583709,1214.394179,-5.881955,0
0.018750,185.849322,-31.141678,-129.778788,0.530328,-4.220265,1.022401,3.446116,4.513951,-0.938827,-3.214190,-0.026156,0.394977,-0.054364,159.744775,188.501440,1213.826311,-5.598457,0
0.019792,155.122489,37.381209,-169.874432,-0.272682,-3.527961,-0.422164,3.994628,3.966264,0.471262,-3.843929,-0.015197,0.417840,-0.031958,89.668016,188.574139,1213.582831,-5.539483,0
0.020833,85.819811,90.790886,-195.775948,-0.770322,-2.154004,-2.275492,4.356570,2.540073,2.284233,-4.089420,-0.007891,0.414639,-0.043161,6.878818,188.649146,1212.937176,-5.571355,0
0.021875,16.517133,145.082468,-180.252273,-0.498882,-0.652236,-3.331136,3.767014,1.010961,3.488684,-3.666036,-0.048074,0.420780,-0.050629,-74.553180,188.564965,1212.672964,-5.681454,0
0.022917,-48.600163,186.447484,-130.591288,0.428538,1.137104,-4.069292,2.711036,-0.672533,4.113992,-2.612914,-0.015197,0.392886,0.001650,-141.881608,188.568182,1211.127794,-4.626687,0
0.023959,-100.582843,196.160531,-55.865909,1.887528,2.759582,-4.045481,1.016994,-2.462623,4.244089,-1.058135,-0.080951,0.401444,-0.024490,-185.221527,188.564802,1210.744732,-4.630336,0
0.025001,-159.098803,163.409200,9.725000,3.120318,3.973777,-3.573219,-0.546450,-3.616809,3.765666,0.510876,-0.139399,0.398700,-0.017021,-212.478627,188.703178,1211.188196,-4.490253,0
0.026042,-184.211099,111.412989,73.309281,4.273938,4.367858,-2.287398,-2.072580,-4.124062,2.594789,1.980266,-0.132093,0.402946,-0.024490,-193.805817,188.696012,1211.488755,-4.208223,0
0.027085,-186.173351,31.618618,130.085796,5.359698,4.449514,-0.819022,-3.524083,-4.087305,1.033619,3.399847,-0.157664,0.407911,-0.039427,-153.021958,188.556693,1212.001582,-3.142757,0
0.028125,-154.958790,-38.100279,169.799811,6.151398,3.778511,0.673166,-4.057669,-3.583727,-0.414240,4.058049,-0.154011,0.445408,-0.043161,-84.890520,188.636924,1211.923860,-2.566929,0
0.029167,-84.669314,-90.821344,195.824432,6.660348,2.393903,2.538400,-4.415880,-2.109751,-2.218818,4.317772,-0.194194,0.419865,-0.043161,-1.366172,188.722529,1212.280907,-2.061461,0
0.030209,-17.102039,-146.345179,180.017614,6.388908,0.892135,3.621823,-3.807667,-0.595342,-3.427465,3.851694,-0.183235,0.416665,-0.024490,79.262817,188.648320,1213.259439,-2.033748,0
0.031251,47.743036,-186.272567,131.095266,5.461488,-0.914956,4.359980,-2.766615,1.124909,-4.107330,2.787898,-0.143052,0.409740,-0.013287,146.557315,188.572358,1212.420766,-2.358779,0
0.032292,100.292841,-195.997694,56.148296,3.968568,-2.583587,4.276640,-1.080036,2.889269,-4.161887,1.233119,-0.154011,0.396740,-0.035692,189.885924,188.495674,1212.467384,-2.131921,0
0.033333,158.445841,-163.137636,-10.772159,2.769708,-3.790682,3.852001,0.520722,4.021400,-3.687660,-0.325218,-0.110175,0.394715,-0.017021,215.525694,188.721896,1212.939252,-1.306504,0
0.034375,183.660220,-110.476975,-73.113068,1.582158,-4.156360,2.601897,2.013270,4.524978,-2.525176,-1.769704,-0.051727,0.402228,-0.043161,199.691694,188.571103,1213.690916,0.175101,0
0.035417,185.622472,-32.204798,-130.234281,0.541638,-4.238017,1.018432,3.453579,4.572763,-0.930433,-3.199958,-0.029809,0.400268,-0.043161,159.348925,188.571085,1214.306454,0.181252,0
0.036458,155.281284,37.163753,-169.985228,-0.250062,-3.527961,-0.398352,4.035673,3.947885,0.500639,-3.883065,-0.000585,0.419016,-0.043161,89.588846,188.495622,1214.681300,-0.529143,0
0.037500,84.617505,91.104989,-195.972917,-0.781632,-2.129152,-2.283429,4.360302,2.536397,2.305217,-4.124999,-0.018850,0.405233,-0.043161,4.888258,188.721994,1215.124371,-0.413156,0
0.038542,15.745842,145.142873,-180.424622,-0.442332,-0.609632,-3.382727,3.793134,0.963176,3.476094,-3.690941,-0.018850,0.424112,-0.039427,-73.693620,188.571069,1215.212271,-0.553554,0
0.039583,-48.509423,186.652859,-130.665152,0.485088,1.130004,-4.116915,2.770738,-0.709290,4.172745,-2.662724,-0.051727,0.408499,-0.035692,-141.779818,188.547875,1216.461944,-0.720451,0
0.040625,-100.741638,196.027641,-56.666099,1.842288,2.841238,-4.053418,0.994606,-2.521435,4.252482,-0.990536,-0.059033,0.402816,-0.028224,-186.838857,188.696364,1216.741233,-2.149389,0
0.041667,-159.302968,163.530009,9.946591,3.075078,4.009280,-3.600999,-0.583763,-3.591078,3.702716,0.542896,-0.139399,0.400203,-0.046895,-211.505967,188.707482,1215.944163,-2.700203,0
0.042708,-184.063646,110.712296,73.407765,4.273938,4.414011,-2.275492,-2.050192,-4.094656,2.552822,2.005171,-0.172276,0.398178,-0.017021,-196.927377,188.569297,1215.297932,-3.161393,0
0.043750,-186.264091,31.147463,129.999622,5.371008,4.474366,-0.751556,-3.535277,-4.105683,0.974865,3.421194,-0.194194,0.392037,-0.043161,-153.553528,188.498134,1215.506986,-3.855892,0
0.044792,-154.902077,-37.870742,169.762879,6.128778,3.806914,0.677134,-4.139759,-3.565348,-0.389060,4.061607,-0.216112,0.409413,-0.031958,-86.406060,188.583633,1215.296226,-3.760021,0
0.045833,-85.485974,-90.470998,196.046023,6.615108,2.415205,2.518557,-4.453194,-2.117103,-2.235605,4.310656,-0.194194,0.412288,-0.039427,-2.791231,188.588915,1215.492813,-4.136608,0
0.046875,-17.351574,-144.919632,180.103788,6.332358,0.863733,3.649603,-3.815130,-0.628424,-3.389695,3.880157,-0.186888,0.419669,-0.017021,80.495607,188.516260,1215.212774,-3.667607,0
0.047917,48.060626,-186.610832,130.849053,5.404938,-0.907856,4.391729,-2.777809,1.198424,-4.195460,2.834150,-0.172276,0.402228,-0.024490,146.082295,188.514617,1216.886251,-4.169513,0
0.048959,100.315526,-195.756076,55.520455,4.025118,-2.569386,4.288545,-1.057647,2.914999,-4.161887,1.201098,-0.124787,0.396348,-0.028224,192.453294,188.503537,1216.823762,-4.585910,0
0.050000,158.661349,-163.415496,-10.316667,2.792328,-3.744528,3.852001,0.505797,4.061833,-3.683464,-0.339450,-0.099216,0.397394,-0.028224,216.283464,188.662052,1217.294318,-5.140992,0
0.051042,183.365315,-111.141425,-73.125379,1.582158,-4.149260,2.570149,2.017002,4.547032,-2.499996,-1.776820,-0.022503,0.406800,-0.002084,200.867934,188.586548,1217.434685,-5.647931,0
0.052083,186.030802,-32.168555,-130.074243,0.496398,-4.252218,1.006527,3.498355,4.550708,-0.913646,-3.210632,-0.062686,0.407192,-0.013287,159.733465,188.517589,1217.311110,-6.036013,0
0.053125,154.816241,38.154387,-169.665152,-0.182202,-3.531511,-0.461849,4.050598,3.944209,0.475459,-3.851044,-0.037115,0.415750,-0.017021,88.378677,188.508681,1216.727119,-5.320524,0
0.054167,83.891585,91.141232,-196.157576,-0.759012,-2.168205,-2.323115,4.401347,2.521694,2.351381,-4.142788,-0.004238,0.383218,0.001650,5.849608,188.566648,1217.086299,-5.748961,0
0.055208,16.199543,145.130792,-180.239963,-0.464952,-0.638035,-3.394633,3.774477,1.128585,3.463504,-3.669594,-0.018850,0.411177,-0.054364,-73.897200,188.558926,1216.967492,-3.972473,0
0.056250,-47.738133,186.568293,-130.923675,0.462468,1.133554,-4.108978,2.752081,-0.738696,4.218909,-2.634261,-0.066339,0.406082,-0.013287,-141.497068,188.502064,1217.330577,-4.936918,0
0.057292,-100.582843,195.894751,-56.419887,1.853598,2.802185,-4.017701,0.990875,-2.495705,4.239892,-1.040345,-0.099216,0.400137,-0.009553,-184.995327,188.723705,1217.132493,-4.145680,0
0.058334,-159.098803,163.385038,10.488258,3.109008,4.009280,-3.557345,-0.613614,-3.664593,3.782453,0.542896,-0.161317,0.397328,-0.043161,-212.071467,188.650778,1218.599481,-3.941674,0
0.059375,-184.018276,110.361950,73.383144,4.319178,4.392710,-2.311210,-2.042729,-4.102008,2.594789,1.987382,-0.175929,0.397524,-0.005818,-193.443897,188.562331,1218.814352,-3.289837,0
0.060417,-186.162009,31.594456,130.122728,5.359698,4.485017,-0.747587,-3.509157,-4.098332,1.025226,3.410521,-0.190541,0.410851,-0.054364,-153.700558,188.492975,1218.800862,-2.733756,0
0.061458,-155.378462,-36.795541,169.996781,6.140088,3.767861,0.728726,-4.102445,-3.569024,-0.397453,4.018913,-0.161317,0.416338,-0.031958,-85.987590,188.724614,1218.508099,-2.972058,0
0.062500,-85.542687,-90.495160,195.861364,6.626418,2.393903,2.578086,-4.430806,-2.102400,-2.235605,4.303540,-0.219765,0.417252,-0.013287,-1.128662,188.643854,1218.302051,-3.124707,0
0.063542,-16.523571,-144.919632,180.350001,6.343668,0.824680,3.625792,-3.792741,-0.558585,-3.431662,3.841020,-0.197847,0.395761,-0.039427,79.737837,188.559918,1218.195202,-4.203801,0
0.064584,48.412244,-186.369214,130.627463,5.438868,-0.893655,4.395697,-2.777809,1.176370,-4.128313,2.819918,-0.139399,0.411569,-0.005818,146.681725,188.470065,1217.162850,-3.774977,0
0.065625,100.326869,-196.058099,56.271402,4.059048,-2.565836,4.308388,-1.087498,2.992190,-4.187067,1.208214,-0.132093,0.402032,-0.013287,190.032954,188.630756,1218.167483,-4.555943,0
0.066667,158.865514,-163.318849,-9.442614,2.781018,-3.801333,3.859938,0.543110,4.039779,-3.725431,-0.335892,-0.113828,0.404253,-0.046895,215.955474,188.704603,1218.371038,-4.307486,0
0.067708,183.648877,-110.416570,-73.039205,1.559538,-4.170562,2.546337,2.065509,4.587466,-2.466423,-1.844419,-0.077298,0.397394,-0.031958,199.284534,188.549938,1218.880691,-5.271155,0
0.068751,185.792610,-31.141678,-130.025000,0.575568,-4.234467,0.966841,3.453579,4.569087,-0.892663,-3.253326,-0.022503,0.391449,-0.017021,158.478055,188.475891,1219.252958,-5.530090,0
0.069792,154.691474,38.408086,-169.726705,-0.216132,-3.545713,-0.449944,4.039404,3.936858,0.525819,-3.883065,-0.044421,0.414052,-0.031958,88.910246,188.637299,1219.633412,-6.211164,0
0.070833,84.322600,90.923776,-196.022160,-0.759012,-2.171755,-2.271524,4.378959,2.473909,2.334594,-4.124999,0.017680,0.413594,-0.035692,5.883538,188.706128,1219.039172,-6.676085,0
0.071875,17.186340,145.251601,-180.227652,-0.453642,-0.623834,-3.343041,3.785671,1.007285,3.480291,-3.666036,-0.048074,0.408303,-0.035692,-72.720960,188.573131,1219.042479,-8.452337,0
0.072917,-47.658735,186.749506,-130.702084,0.405918,1.186808,-4.081198,2.681185,-0.764427,4.210515,-2.602240,-0.066339,0.406017,-0.050629,-141.745888,188.495812,1218.767631,-8.956800,0
0.073959,-100.492103,196.124288,-55.398106,1.842288,2.827037,-4.041512,0.979681,-2.477326,4.231499,-1.029672,-0.095563,0.395107,-0.039427,-186.703137,188.573019,1218.464710,-8.693424,0
0.075000,-158.713158,163.481685,10.808333,3.154248,4.005729,-3.565282,-0.576301,-3.572700,3.799240,0.578475,-0.124787,0.392690,-0.039427,-211.325007,188.511278,1217.665233,-8.457369,0
0.076042,-183.802769,110.651892,73.247727,4.341798,4.382059,-2.287398,-2.109894,-4.090980,2.565412,2.019403,-0.139399,0.401509,-0.028224,-197.164887,188.591189,1217.461418,-9.171078,0
0.077084,-186.298119,32.633414,130.479735,5.382318,4.435313,-0.739650,-3.471844,-4.083629,1.021029,3.399847,-0.183235,0.407911,-0.024490,-154.051168,188.508840,1217.372419,-9.396371,0
0.078125,-155.208325,-37.230454,169.873675,6.128778,3.739458,0.669197,-4.050206,-3.491833,-0.418437,4.040260,-0.179582,0.415423,-0.024490,-86.032830,188.514161,1216.884683,-10.137290,0
0.079167,-84.385752,-90.676373,196.242993,6.660348,2.365501,2.578086,-4.393492,-2.117103,-2.264982,4.292867,-0.205153,0.429991,-0.024490,-1.354862,188.586903,1216.983689,-9.982353,0
0.080209,-15.695569,-144.810904,180.054546,6.343668,0.863733,3.578169,-3.796473,-0.521827,-3.393892,3.823231,-0.190541,0.389228,-0.046895,80.948007,188.590720,1216.242111,-9.981900,0
0.081250,48.105996,-186.538347,133.692803,5.472798,-0.893655,4.363948,-2.733032,1.132261,-4.073756,2.770108,-0.146705,0.407780,-0.046895,145.980505,188.515115,1215.612440,-10.469042,0
0.082292,100.428951,-195.369487,56.788447,4.059048,-2.551635,4.248860,-1.016602,2.870890,-4.136707,1.204656,-0.146705,0.400921,-0.046895,192.374124,188.653299,1214.032388,-9.571361,0
0.083334,158.876856,-163.355092,-10.144318,2.769708,-3.758729,3.772629,0.531916,4.006697,-3.591136,-0.396375,-0.110175,0.397982,-0.035692,216.102504,188.485771,1212.404575,-10.754701,0
0.084375,183.274575,-110.235357,-73.322349,1.593468,-4.127958,2.474903,2.031927,4.469842,-2.474816,-1.830187,-0.080951,0.400137,-0.046895,200.245884,188.573383,1210.949852,-10.251396,0
0.085417,185.940062,-30.634280,-130.098864,0.473778,-4.202514,0.986684,3.468504,4.528654,-0.926237,-3.203516,-0.026156,0.379233,-0.031958,159.179275,188.500372,1210.182252,-9.445669,0
0.086459,154.566706,37.973173,-169.726705,-0.238752,-3.531511,-0.473755,3.998359,3.922155,0.492246,-3.851044,-0.033462,0.413986,-0.024490,89.238236,188.646690,1209.583010,-9.116960,0
0.087500,85.513563,90.875452,-195.739016,-0.815562,-2.143353,-2.279461,4.322988,2.484937,2.317807,-4.107209,-0.022503,0.414639,-0.054364,6.833578,188.486272,1209.426822,-9.127792,0
0.088542,16.902778,145.239520,-180.104546,-0.464952,-0.630934,-3.295418,3.744626,0.988906,3.471898,-3.634016,-0.011544,0.414247,-0.002084,-74.485320,188.546974,1208.928689,-9.343953,0
0.089583,-48.475395,186.507888,-130.529735,0.462468,1.154856,-4.112947,2.684917,-0.731345,4.172745,-2.598682,-0.048074,0.404971,-0.028224,-141.972088,188.475894,1208.326692,-8.664054,0
0.090625,-100.662240,196.051802,-55.287311,1.898838,2.780883,-3.997858,0.998338,-2.433217,4.227302,-1.008325,-0.069992,0.395891,-0.005818,-185.198907,188.628605,1207.878669,-8.432425,0
0.091667,-158.951350,163.227986,10.242045,3.131628,3.998629,-3.505753,-0.546450,-3.569024,3.706912,0.535781,-0.091910,0.397851,-0.020755,-212.376837,188.626977,1206.884838,-8.565137,0
0.092709,-184.120359,111.376746,73.346212,4.307868,4.360757,-2.295335,-2.057654,-4.087305,2.569609,1.969593,-0.150358,0.402162,-0.005818,-193.851057,188.546132,1206.845567,-8.100228,0
0.093750,-186.093954,31.944802,130.208902,5.371008,4.431763,-0.743619,-3.475575,-4.021141,1.004242,3.350037,-0.183235,0.395956,-0.024490,-153.101128,188.481720,1205.520853,-7.929756,0
0.094792,-154.845365,-38.124441,169.922917,6.128778,3.743009,0.685071,-4.035281,-3.521239,-0.418437,3.972661,-0.194194,0.395499,-0.024490,-84.585150,188.636754,1205.012443,-7.142121,0
0.095833,-84.079504,-91.062962,195.762879,6.660348,2.347749,2.518557,-4.356178,-2.039912,-2.206228,4.250173,-0.190541,0.379952,-0.035692,-0.597092,188.571388,1203.574480,-7.166748,0
0.096885,-15.956446,-145.922347,179.032766,6.388908,0.842431,3.594043,-3.766622,-0.584315,-3.364515,3.812557,-0.183235,0.415881,-0.024490,80.212857,188.571400,1203.286850,-6.069145,0
0.097929,48.707149,-187.794761,129.519508,5.416248,-0.946909,4.328231,-2.706913,1.183721,-4.107330,2.738088,-0.157664,0.406931,-0.035692,147.903205,188.496666,1203.242060,-5.920444,0
0.098960,100.678486,-195.502377,55.926705,3.991188,-2.530333,4.236954,-1.016602,2.878242,-4.170280,1.186867,-0.117481,0.397459,-0.031958,189.942474,188.510293,1203.622461,-5.850789,0
0.100000,158.581951,-162.968503,-10.722917,2.735778,-3.769380,3.804378,0.520722,4.021400,-3.624710,-0.378586,-0.121134,0.393343,-0.017021,215.389974,188.514070,1203.957920,-5.356285,0
0.101042,183.456055,-109.872930,-73.383902,1.604778,-4.163461,2.534431,2.024464,4.477193,-2.441243,-1.805283,-0.091910,0.399680,-0.017021,199.182744,188.580657,1203.691439,-5.325351,0
0.102083,185.429650,-31.552429,-130.160417,0.485088,-4.202514,0.990652,3.475967,4.524978,-0.922040,-3.182169,-0.018850,0.404971,-0.043161,159.077485,188.516069,1203.390668,-5.407717,0
0.103125,155.179201,37.103348,-171.868751,-0.272682,-3.559914,-0.414226,4.017016,3.925831,0.467065,-3.826139,-0.026156,0.417318,0.001650,89.430506,188.583907,1203.738918,-5.151212,0
0.104167,84.912411,91.104989,-195.578978,-0.781632,-2.136252,-2.299304,4.382690,2.503315,2.330397,-4.110767,0.017680,0.402881,-0.031958,5.057908,188.513553,1203.868365,-4.894631,0
0.105208,15.870610,145.082468,-180.264584,-0.487572,-0.613183,-3.343041,3.755820,1.044043,3.480291,-3.623342,-0.029809,0.367540,-0.024490,-73.806720,188.501498,1203.874947,-4.134427,0
0.106250,-48.690903,186.399160,-130.394319,0.439848,1.119353,-4.108978,2.696111,-0.760751,4.143368,-2.623587,-0.033462,0.383283,-0.009553,-141.779818,188.496632,1203.786976,-4.093280,0
0.107292,-100.684925,195.894751,-56.136743,1.898838,2.777333,-3.989920,0.998338,-2.462623,4.202122,-0.951399,-0.091910,0.398439,-0.024490,-186.804927,188.710652,1203.488473,-5.240276,0
0.108334,-159.234913,163.300472,9.725000,3.097698,4.016380,-3.545439,-0.576301,-3.583727,3.736289,0.546454,-0.121134,0.396348,-0.028224,-212.388147,188.492032,1204.003741,-5.368191,0
0.109375,-183.836796,110.796863,73.321591,4.307868,4.339455,-2.239775,-2.072580,-4.083629,2.510855,1.966035,-0.132093,0.397720,-0.005818,-196.769037,188.571123,1203.368861,-5.786569,0
0.110417,-186.048584,31.256191,131.070644,5.404938,4.410461,-0.719807,-3.464381,-4.050547,1.000045,3.396289,-0.179582,0.393082,-0.039427,-153.101128,188.495716,1204.200425,-5.798914,0
