1-Time,2-VGERA,3-VGERB,4-VGERC,5-VN,6-IGERAN,7-IGERBN,8-IGERCN,9-IGERAT,10-IGERBT,11-IGERCT,12-IN,13-IFD,14-IFAULT,15-VFAULT,16-Speed (rad/s),17-Active Power,18-Reactive Power,19-FAULT 
0.000000,95.605770,100.359703,-183.327256,-3.243670,-5.619579,-0.486268,5.983477,5.733183,0.632465,-6.215826,-0.134103,0.604756,-0.014723,44.127843,188.797228,1665.044874,849.681978,0
0.001043,14.042909,145.014231,-185.380889,-3.266189,-4.085740,-2.841032,6.640719,4.270990,2.940328,-6.752732,-0.137749,0.609441,-0.011006,9.373395,188.571004,1664.322765,850.444263,0
0.002083,-57.395219,172.168695,-142.193847,-2.433000,-1.821675,-4.758366,6.076264,1.821341,4.868579,-6.097783,-0.145042,0.626528,-0.025873,-17.635326,188.495665,1663.198723,850.729349,0
0.003125,-110.324069,195.987575,-58.991351,-0.879217,0.934099,-6.275063,4.819773,-0.837193,6.300748,-4.795501,-0.086703,0.623290,-0.037023,-41.919532,188.721799,1661.649239,851.411858,0
0.004167,-159.241446,163.559602,9.592684,0.415603,3.014690,-6.516263,2.840316,-3.081756,6.443102,-2.784960,-0.046595,0.623152,-0.025873,-63.456707,188.797213,1660.106921,852.360583,0
0.005208,-185.818871,116.567817,78.249629,1.721681,5.168671,-5.829457,0.145626,-5.238966,5.770155,-0.089008,-0.028364,0.606203,-0.040740,-72.699792,188.571103,1659.525649,853.296051,0
0.006250,-185.988369,35.057447,131.765591,2.780056,6.126403,-4.341377,-2.212711,-6.260603,4.234456,2.271854,0.055498,0.615022,0.007577,-76.550139,188.571136,1658.152186,854.569808,0
0.007292,-160.179340,-37.303560,171.003339,3.534429,6.497020,-2.276870,-4.462797,-6.632797,2.120713,4.404245,0.077375,0.626252,-0.022156,-68.793153,188.721757,1656.831965,855.670289,0
0.008333,-97.295256,-100.245069,182.656792,3.770874,5.575982,0.400857,-5.986050,-5.675725,-0.622839,5.995923,0.110191,0.625839,-0.014723,-42.212249,188.722061,1655.082959,856.804656,0
0.009375,-14.873600,-145.204968,185.609648,3.849689,4.093515,2.808767,-6.678087,-4.171755,-2.865995,6.525213,0.102898,0.615711,-0.048173,-8.628666,188.571084,1653.854071,858.321781,0
0.010417,57.728420,-171.795671,142.556275,3.005242,1.814773,4.709749,-6.086570,-1.786670,-4.807188,5.870264,0.102898,0.603515,-0.037023,19.033037,188.571087,1651.980956,859.729845,0
0.011458,110.465171,-196.413212,58.272281,1.428940,-0.929993,6.234622,-4.799150,0.921237,-6.269553,4.552751,0.088314,0.617089,-0.037023,43.159627,188.721945,1650.832340,861.231891,0
0.012500,158.365555,-163.914769,-10.542636,0.111601,-3.036271,6.422676,-2.819693,3.135416,-6.420535,2.538403,0.037267,0.616193,-0.025873,64.280244,188.721808,1648.870649,862.908360,0
0.013542,185.406276,-115.290427,-78.543391,-1.205737,-5.190251,5.846249,-0.159798,5.304020,-5.799353,-0.119471,0.000805,0.605858,-0.011006,73.714720,188.571026,1648.571743,864.577617,0
0.014583,185.926073,-32.934417,-131.476073,-2.241592,-6.096611,4.362257,2.132815,6.329455,-4.233458,-2.449870,-0.039302,0.578987,-0.037023,76.247843,188.571176,1647.521432,865.296401,0
0.015625,159.766746,38.522225,-170.689518,-2.962187,-6.529609,2.363161,4.398365,6.682660,-2.205990,-4.627956,-0.093995,0.605651,-0.022156,68.468341,188.722038,1647.296654,866.076025,0
0.016667,96.950461,100.418428,-182.573852,-3.209892,-5.597563,-0.335007,5.944816,5.752173,0.524621,-6.151093,-0.101287,0.618880,-0.025873,44.060293,188.646491,1646.176557,866.964046,0
0.017708,15.263301,145.002486,-185.380889,-3.221151,-4.137112,-2.742917,6.605924,4.259596,2.858366,-6.691806,-0.141395,0.615366,-0.040740,9.576044,188.571174,1645.026475,866.700544,0
0.018750,-56.864123,171.898559,-142.667763,-2.421741,-1.865709,-4.656163,6.056934,1.832734,4.782304,-6.116822,-0.115872,0.608476,-0.007290,-17.860493,188.570998,1644.317000,866.868327,0
0.019792,-110.753467,195.682205,-59.562480,-0.901736,0.805668,-6.279151,4.850702,-0.799214,6.296434,-4.814540,-0.093995,0.623428,-0.018440,-43.349340,188.721960,1644.143796,867.401938,0
0.020833,-159.230146,163.665307,9.301044,0.404343,2.948640,-6.491734,2.886710,-3.058968,6.430161,-2.762113,-0.075764,0.618191,-0.044457,-63.434191,188.646522,1643.872509,867.068924,0
0.021875,-185.457273,116.591307,78.286084,1.744200,5.080603,-5.841721,0.188154,-5.197189,5.752900,-0.108048,0.008098,0.609785,-0.048173,-73.668008,188.571053,1643.062747,867.091689,0
0.022917,-185.830171,34.423216,131.862804,2.813834,6.064022,-4.349553,-2.154719,-6.218826,4.208574,2.218544,0.000805,0.604411,-0.037023,-75.987223,188.495649,1641.842676,867.316491,0
0.023958,-159.998541,-38.043496,170.663092,3.534429,6.489681,-2.317751,-4.424135,-6.568233,2.176792,4.328088,0.091960,0.601242,-0.033307,-69.142161,188.721945,1640.020716,868.020163,0
0.025000,-96.809359,-100.609165,182.559579,3.748356,5.568643,0.364064,-5.928059,-5.660534,-0.549505,5.912150,0.102898,0.614057,-0.011006,-44.486430,188.646549,1638.280412,868.804674,0
0.026042,-14.082605,-144.864363,185.548890,3.860949,4.086176,2.747445,-6.596898,-4.186946,-2.840113,6.468095,0.150299,0.619707,-0.055607,-8.853833,188.570960,1637.146223,869.021311,0
0.027083,58.349916,-171.596006,142.689944,2.993982,1.844128,4.623898,-6.063373,-1.847436,-4.759737,5.870264,0.106545,0.617778,-0.044457,19.280720,188.495725,1636.332243,870.017287,0
0.028125,110.702470,-196.190057,58.503162,1.428940,-0.808901,6.189652,-4.837811,0.879460,-6.226415,4.583214,0.102898,0.617571,0.000144,43.823868,188.721922,1635.653210,870.665623,0
0.029167,158.297755,-164.008729,-10.165934,0.156639,-2.922517,6.426764,-2.955007,3.063256,-6.407593,2.595520,0.055498,0.615504,-0.025873,62.951762,188.571069,1634.852712,871.519413,0
0.030208,185.168978,-115.748483,-78.348964,-1.183218,-5.058150,5.842161,-0.306711,5.171093,-5.769157,-0.012851,0.011744,0.608338,-0.029590,73.951145,188.571169,1632.665799,872.365554,0
0.031250,185.824373,-34.061938,-131.524680,-2.196555,-6.125967,4.456284,2.001367,6.280082,-4.306792,-2.339443,-0.046595,0.623083,-0.011006,77.666392,188.495747,1631.620122,873.622387,0
0.032292,159.608547,37.112824,-171.066219,-2.950928,-6.500253,2.408130,4.297846,6.652277,-2.249127,-4.464219,-0.090349,0.632040,-0.018440,69.492848,188.721973,1629.670676,874.188501,0
0.033333,98.724549,100.183528,-181.929814,-3.266189,-5.645266,-0.245068,5.824966,5.793950,0.438346,-6.082551,-0.115872,0.615711,-0.048173,45.309967,188.571170,1628.965455,874.913728,0
0.034375,16.201194,145.072956,-185.235069,-3.288707,-4.221510,-2.652978,6.555664,4.339352,2.750522,-6.676575,-0.112226,0.632660,-0.029590,9.722403,188.571234,1628.086968,876.243696,0
0.035417,-56.931922,170.794528,-143.566986,-2.511815,-1.983132,-4.562136,6.060800,1.977055,4.639950,-6.093975,-0.126811,0.629491,-0.011006,-17.860493,188.495772,1625.821232,877.684936,0
0.036458,-110.877766,195.459050,-59.793362,-0.890476,0.702922,-6.160595,4.870033,-0.700469,6.184276,-4.845003,-0.119518,0.626184,-0.007290,-41.953307,188.722025,1623.924816,878.693453,0
0.037500,-158.382652,163.876718,9.811414,0.438121,2.816539,-6.409972,2.933103,-2.899456,6.374082,-2.887772,-0.075764,0.618053,-0.014723,-63.186508,188.571156,1621.529058,880.655438,0
0.038542,-185.671972,116.004056,78.310387,1.755459,4.944833,-5.813104,0.273208,-5.064262,5.744273,-0.275593,-0.035656,0.607443,0.011294,-72.519659,188.571149,1618.965502,882.764335,0
0.039583,-185.886670,33.894691,131.315979,2.768796,6.038336,-4.398610,-2.003940,-6.135272,4.320731,2.085269,0.019036,0.591527,-0.018440,-75.987223,188.495626,1616.971699,884.840987,0
0.040625,-159.015448,-37.832086,171.137007,3.568207,6.434639,-2.399514,-4.250160,-6.541648,2.258753,4.229084,0.077375,0.579400,-0.044457,-68.624278,188.721860,1615.231277,886.125835,0
0.041667,-97.340455,-100.902790,181.478080,3.793393,5.546626,0.225067,-5.843004,-5.687119,-0.415779,5.813147,0.135714,0.630318,-0.025873,-42.628807,188.495580,1613.186674,887.545560,0
0.042708,-13.777507,-145.052283,185.548890,3.849689,4.163235,2.632977,-6.593032,-4.266702,-2.676190,6.445248,0.124775,0.618673,-0.059323,-8.696216,188.570859,1611.448392,889.663273,0
0.043750,58.824513,-170.444995,143.662078,3.039020,2.009255,4.533959,-6.067239,-1.942384,-4.630324,5.896919,0.124775,0.593663,-0.022156,19.055554,188.495808,1609.861741,891.062236,0
0.044792,111.018868,-195.837707,59.584661,1.462718,-0.709825,6.144683,-4.926732,0.731342,-6.140140,4.640331,0.095606,0.623083,0.007577,43.204660,188.719759,1608.234884,892.702996,0
0.045833,158.003957,-164.196649,-9.278862,0.111601,-2.852797,6.418588,-3.016865,2.953116,-6.403280,2.728795,0.029975,0.621912,-0.003573,64.347794,188.495866,1607.198672,894.468640,0
0.046875,185.530575,-116.370968,-77.862897,-1.149440,-5.014116,5.809456,-0.353104,5.144508,-5.825236,0.078537,-0.013779,0.612886,-0.022156,73.793528,188.495580,1607.185336,895.828667,0
0.047917,185.756574,-35.459594,-131.354556,-2.185296,-6.092941,4.472637,1.958840,6.207922,-4.302478,-2.251862,-0.042949,0.617158,-0.037023,75.797510,188.495700,1605.927538,895.788417,0
0.048958,159.574647,36.008793,-171.345708,-2.939669,-6.518600,2.473540,4.247586,6.713043,-2.331089,-4.429948,-0.108580,0.625495,-0.033307,68.423307,188.721969,1606.179369,896.995998,0
0.050000,99.470344,100.277488,-181.443747,-3.209892,-5.692969,-0.175570,5.809502,5.812939,0.360698,-5.972124,-0.115872,0.625495,-0.018440,44.758309,188.495720,1604.598276,897.758122,0
0.051042,16.291594,144.920271,-185.283675,-3.266189,-4.243527,-2.608008,6.540199,4.316565,2.733267,-6.665151,-0.137749,0.622394,-0.029590,9.272070,188.495774,1604.292633,897.470855,0
0.052083,-57.214420,170.594863,-143.530531,-2.523075,-2.052852,-4.533519,6.002808,2.026427,4.657205,-6.078744,-0.101287,0.628251,-0.033307,-18.400892,188.495595,1604.103120,897.922679,0
0.053125,-111.024665,195.435560,-59.125020,-0.901736,0.658889,-6.168772,4.835238,-0.689075,6.145453,-4.852618,-0.079410,0.619156,-0.022156,-43.439406,188.571024,1603.401348,898.280211,0
0.054167,-158.235753,163.876718,10.504059,0.471899,2.816539,-6.401795,2.944702,-2.850083,6.369768,-2.868733,-0.057533,0.615022,-0.011006,-63.197766,188.495631,1602.707246,898.520491,0
0.055208,-185.231274,115.733921,78.772151,1.766719,4.937494,-5.813104,0.292539,-5.075656,5.739959,-0.256553,-0.050241,0.599244,-0.048173,-73.510391,188.495763,1602.657320,898.371501,0
0.056250,-185.751071,33.413145,131.401041,2.768796,6.005311,-4.410875,-1.996208,-6.108686,4.286221,2.039575,0.026329,0.592354,0.007577,-75.784573,188.495513,1601.698745,898.428868,0
0.057292,-159.173647,-38.219671,170.736002,3.523169,6.456656,-2.366809,-4.254026,-6.545446,2.284636,4.213853,0.059144,0.578574,-0.051890,-68.939511,188.571024,1601.419661,898.843283,0
0.058333,-97.035357,-101.078965,181.623900,3.748356,5.634694,0.249596,-5.858468,-5.709906,-0.394210,5.782684,0.117483,0.597521,-0.007290,-45.173188,188.495651,1601.005774,899.440140,0
0.059375,-14.263404,-144.946578,185.475980,3.849689,4.155896,2.596184,-6.589166,-4.232521,-2.710700,6.460480,0.124775,0.619638,-0.022156,-9.495557,188.495593,1601.528845,898.680641,0
0.060417,58.203017,-170.750365,143.759291,3.027760,1.943204,4.538047,-6.113633,-1.961373,-4.651893,5.904535,0.106545,0.625563,-0.018440,18.864162,188.495694,1601.982847,898.731553,0
0.061458,111.278766,-195.532336,60.192245,1.473977,-0.680469,6.124242,-4.934464,0.746533,-6.127199,4.632716,0.088314,0.630249,-0.033307,43.936451,188.571127,1601.985134,898.378682,0
0.062500,158.354255,-164.161414,-8.707734,0.156639,-2.808763,6.398147,-3.063259,2.930329,-6.368770,2.721179,0.048206,0.621429,-0.018440,63.188186,188.495671,1601.557371,898.128840,0
0.063542,185.372376,-116.946474,-77.838594,-1.183218,-4.992100,5.870778,-0.364702,5.106529,-5.795039,0.063305,0.015390,0.615366,-0.029590,73.939886,188.495792,1601.134526,897.584138,0
0.064583,185.609675,-35.577044,-131.488225,-2.230333,-6.052577,4.452196,1.939509,6.211720,-4.354243,-2.240439,-0.028364,0.596212,-0.037023,77.553809,188.495767,1601.212611,898.279165,0
0.065625,159.393848,36.443358,-171.236343,-3.018484,-6.500253,2.477628,4.205059,6.633287,-2.309520,-4.422332,-0.097641,0.626321,-0.014723,69.278940,188.495707,1600.256252,897.621455,0
0.066667,99.007047,100.547623,-181.358685,-3.198633,-5.630588,-0.179658,5.821100,5.759769,0.369326,-5.991163,-0.104934,0.630111,-0.007290,45.152350,188.495861,1600.026422,897.172571,0
0.067708,15.489299,144.943761,-185.283675,-3.243670,-4.170138,-2.608008,6.532467,4.308969,2.707385,-6.604226,-0.119518,0.620947,-0.011006,9.114453,188.495808,1598.899366,897.232917,0
0.068750,-58.095815,170.266003,-143.603441,-2.433000,-1.979462,-4.480373,6.018272,2.003640,4.609753,-6.025434,-0.112226,0.621636,-0.007290,-18.412151,188.495763,1597.811482,896.889628,0
0.069792,-111.137664,195.553010,-58.736166,-0.845439,0.735948,-6.123802,4.846836,-0.681479,6.110942,-4.837387,-0.123164,0.615642,-0.025873,-42.043374,188.495774,1597.223240,896.895883,0
0.070833,-157.738556,163.935443,10.710638,0.438121,2.801861,-6.393619,2.936970,-2.880467,6.365454,-2.906811,-0.053887,0.614746,-0.011006,-63.096441,188.495213,1597.380115,897.035250,0
0.071875,-185.366874,115.428551,78.638482,1.766719,4.966850,-5.825369,0.277075,-5.045273,5.761528,-0.264169,-0.032010,0.598348,-0.025873,-72.553434,188.496147,1597.067956,897.402640,0
0.072917,-185.751071,33.495361,131.376737,2.768796,6.053014,-4.427227,-1.996208,-6.108686,4.329359,1.990073,0.033621,0.574233,-0.022156,-75.874639,188.496221,1596.780825,898.269456,0
0.073958,-158.902448,-37.503225,171.428647,3.545688,6.416292,-2.448571,-4.246293,-6.549243,2.293263,4.187198,0.095606,0.616124,-0.022156,-68.703087,188.420652,1596.682849,898.458768,0
0.075000,-98.278349,-100.808830,181.149985,3.759615,5.590660,0.184186,-5.823673,-5.675725,-0.424406,5.767452,0.095606,0.615917,-0.011006,-43.259273,188.496210,1596.759981,897.378261,0
0.076042,-15.495096,-145.251948,185.366615,3.838430,4.203599,2.588008,-6.581434,-4.300883,-2.715014,6.464287,0.084667,0.616262,-0.051890,-9.540591,188.496214,1597.277167,897.895347,0
0.077083,57.547621,-170.362780,144.245358,3.039020,1.954213,4.529871,-6.094302,-1.934788,-4.638951,5.881688,0.102898,0.636794,-0.048173,18.526413,188.496145,1597.173780,897.003224,0
0.078125,111.233566,-195.508846,60.508188,1.462718,-0.698816,6.144683,-4.938330,0.746533,-6.166023,4.644139,0.081021,0.630662,-0.037023,43.238435,188.345314,1597.756339,897.094970,0
0.079167,158.252556,-164.243629,-8.501155,0.122861,-2.834450,6.426764,-3.047794,2.979702,-6.373083,2.664061,0.040913,0.618605,-0.040740,64.325277,188.496071,1598.368049,896.039037,0
0.080208,185.632275,-116.746809,-77.838594,-1.183218,-4.981091,5.797192,-0.318309,5.171093,-5.708764,0.017611,0.011744,0.606409,-0.007290,73.748495,188.496197,1598.762258,894.724235,0
0.081250,185.801774,-34.895833,-131.476073,-2.275370,-6.059916,4.456284,1.947241,6.204124,-4.315419,-2.293749,-0.057533,0.618605,-0.040740,75.820027,188.496016,1598.914376,894.038268,0
0.082292,159.405148,37.312489,-171.041916,-2.962187,-6.511261,2.436747,4.247586,6.633287,-2.287951,-4.494681,-0.123164,0.620051,-0.029590,68.299466,188.345290,1599.585624,893.742676,0
0.083333,98.046554,100.770778,-181.650325,-3.209892,-5.623249,-0.232803,5.805635,5.767365,0.395208,-6.059704,-0.115872,0.598003,-0.029590,44.172876,188.496134,1600.365139,893.897264,0
0.084375,14.325407,144.920271,-185.417344,-3.299967,-4.181146,-2.612097,6.563396,4.331756,2.750522,-6.661343,-0.152334,0.601104,-0.022156,8.686637,188.496187,1601.176078,894.499306,0
0.085417,-58.502612,170.947214,-142.935099,-2.478038,-1.920751,-4.586664,6.064666,1.973257,4.678774,-6.093975,-0.152334,0.615917,-0.040740,-18.749900,188.496085,1602.522201,894.986348,0
0.086458,-110.990765,195.752675,-58.420223,-0.867958,0.779981,-6.176948,4.819773,-0.715660,6.223100,-4.852618,-0.104934,0.617984,-0.022156,-43.473181,188.269810,1604.111585,895.100515,0
0.087500,-158.269653,163.759267,10.467604,0.471899,2.911945,-6.438588,2.882844,-2.975414,6.391337,-2.838270,-0.028364,0.615435,-0.014723,-63.299091,188.496006,1605.433930,893.995260,0
0.088542,-185.253874,115.992311,78.699241,1.732941,5.029231,-5.837633,0.238413,-5.128827,5.757214,-0.237514,-0.028364,0.605514,0.000144,-73.634233,188.496020,1606.682989,893.436871,0
0.089583,-185.683271,34.200061,131.862804,2.802574,6.053014,-4.419051,-2.061932,-6.165655,4.251711,2.138579,0.044560,0.602206,0.007577,-75.829606,188.496125,1608.625162,891.470817,0
0.090625,-159.908142,-37.197855,171.039794,3.511910,6.489681,-2.395426,-4.350679,-6.594818,2.280322,4.324280,0.091960,0.616193,-0.003573,-69.175936,188.269917,1610.934407,890.787283,0
0.091667,-98.154050,-100.350774,182.024905,3.815911,5.616346,0.270037,-5.904862,-5.728896,-0.489113,5.885496,0.121129,0.624117,0.007577,-45.387096,188.496393,1613.316139,890.701030,0
0.092708,-16.003593,-145.087518,185.293705,3.849689,4.148557,2.722916,-6.678087,-4.236319,-2.840113,6.521405,0.128422,0.613644,-0.007290,-9.799532,188.495971,1615.106863,889.130705,0
0.093750,57.073024,-171.455066,143.382589,3.005242,1.880823,4.623898,-6.105900,-1.919596,-4.751109,5.862648,0.106545,0.626804,-0.025873,18.841646,188.495734,1616.334916,888.723344,0
0.094792,110.962368,-195.908177,59.888453,1.462718,-0.812570,6.226446,-4.884204,0.860470,-6.235043,4.617484,0.106545,0.626873,-0.003573,43.936451,188.269866,1617.803627,887.602720,0
0.095833,158.783652,-164.032219,-9.388227,0.111601,-2.940864,6.443117,-2.924078,3.082245,-6.420535,2.610752,0.051852,0.621292,-0.040740,63.030570,188.496069,1619.215003,887.184190,0
0.096875,185.428876,-116.136068,-78.409723,-1.183218,-5.087506,5.825809,-0.225522,5.216668,-5.756215,-0.058546,0.015390,0.604756,-0.003573,73.973661,188.420647,1620.144218,887.025821,0
0.097917,185.835673,-33.509922,-131.536831,-2.185296,-6.045238,4.419491,2.090288,6.302869,-4.259340,-2.423215,-0.068472,0.594558,-0.018440,77.655133,188.496083,1621.880914,886.070802,0
0.098958,159.506847,38.451755,-170.640911,-2.962187,-6.463558,2.354984,4.332641,6.659872,-2.193048,-4.574646,-0.072118,0.591665,-0.018440,69.312715,188.269895,1622.972380,885.129115,0
0.100000,96.814862,100.829503,-182.330819,-3.209892,-5.630588,-0.306390,5.855895,5.786354,0.503052,-6.143477,-0.123164,0.629560,-0.011006,44.533142,188.496125,1624.552397,884.644682,0
0.101042,13.771710,145.096446,-185.502405,-3.299967,-4.074731,-2.742917,6.621388,4.263394,2.828170,-6.726077,-0.112226,0.578367,-0.025873,9.001870,188.420790,1625.814728,883.856575,0
0.102083,-58.434812,171.252584,-142.764976,-2.444260,-1.902403,-4.647986,6.045335,1.904895,4.739166,-6.093975,-0.112226,0.607787,-0.044457,-18.063142,188.496049,1626.754209,882.991885,0
0.103125,-110.990765,195.893615,-58.651105,-0.901736,0.765303,-6.226006,4.835238,-0.803012,6.214473,-4.818348,-0.123164,0.623428,0.000144,-42.122182,188.269836,1627.262773,881.729907,0
0.104167,-158.540851,163.677052,9.872172,0.415603,2.937631,-6.450853,2.886710,-3.009595,6.464671,-2.826847,-0.057533,0.622601,-0.025873,-63.355382,188.420850,1628.467826,881.726612,0
0.105208,-185.751071,116.098016,78.492662,1.777978,5.076934,-5.837633,0.215217,-5.155412,5.778783,-0.191820,-0.010133,0.611990,0.003860,-72.688534,188.496237,1629.344783,881.422576,0
0.106250,-185.705871,34.834292,131.972169,2.780056,6.097047,-4.402699,-2.123790,-6.199836,4.299163,2.199505,0.026329,0.614333,-0.033307,-76.257422,188.496145,1630.578092,881.423294,0
0.107292,-160.043741,-36.786780,171.416496,3.523169,6.493350,-2.334104,-4.404805,-6.598616,2.181106,4.358551,0.077375,0.606134,-0.007290,-68.849445,188.270006,1631.397664,880.100535,0
0.108333,-98.334849,-100.303794,182.085663,3.782133,5.579652,0.351799,-5.947389,-5.709906,-0.536564,5.923574,0.088314,0.626184,-0.025873,-42.696357,188.420746,1632.118282,879.394913,0
0.109375,-15.596795,-145.404633,185.463828,3.815911,4.100854,2.776062,-6.651024,-4.209734,-2.896192,6.521405,0.091960,0.630662,-0.033307,-8.955158,188.496177,1632.633860,878.944716,0
0.110417,57.479822,-171.502046,142.981584,3.016501,1.862476,4.668867,-6.109766,-1.828447,-4.807188,5.885496,0.117483,0.629766,-0.029590,18.931712,188.420817,1633.562055,878.177201,0
