1-Time,2-VGERA,3-VGERB,4-VGERC,5-VN,6-IGERAN,7-IGERBN,8-IGERCN,9-IGERAT,10-IGERBT,11-IGERCT,12-IN,13-IFD,14-IFAULT,15-VFAULT,16-Speed (rad/s),17-Active Power,18-Reactive Power,19-FAULT 
0.000000,-172.278788,135.888900,-8.445455,2.713158,6.022287,-0.517410,-5.356185,-5.561280,0.723064,5.146750,-0.216112,0.194037,-0.013287,-144.007888,188.400992,1016.248767,-1295.835497,0
0.001042,-195.519572,81.585237,49.599053,3.844158,4.389159,2.078044,-6.121116,-4.039520,-1.815935,5.861877,-0.216112,0.199132,-0.005818,-169.919098,188.412958,1015.226692,-1295.426459,0
0.002083,-171.745691,34.034799,136.979735,5.461488,2.759582,4.062336,-6.247983,-2.315593,-3.868118,6.071790,-0.263601,0.203444,-0.061832,-177.247978,188.344616,1013.881112,-1295.160387,0
0.003125,-122.337759,-10.169229,189.779925,6.502008,0.395096,5.086231,-4.759166,-0.040304,-4.929881,4.751829,-0.205153,0.207755,-0.009553,-151.404628,188.261789,1012.885234,-1295.065191,0
0.004167,-67.576166,-76.227612,199.259092,6.660348,-2.228559,6.292680,-3.348708,2.679751,-6.121742,3.282438,-0.146705,0.192926,-0.028224,-109.546319,188.344256,1011.237730,-1295.057638,0
0.005208,-24.451979,-149.993612,163.164394,5.970438,-4.138609,5.907728,-1.027796,4.609520,-5.844761,1.137057,-0.143052,0.199328,-0.073035,-70.289310,188.419826,1009.875351,-1293.844709,0
0.006250,21.462463,-203.644907,97.339584,4.760268,-5.665229,4.637781,1.531923,6.098199,-4.606736,-1.289395,-0.099216,0.170585,-0.024490,-15.605461,188.344180,1009.065767,-1293.548806,0
0.007292,95.619731,-184.025519,51.975000,3.923328,-6.304279,2.780484,3.796865,6.859079,-2.860912,-3.505933,-0.055380,0.182278,-0.065566,68.393907,188.269964,1008.390883,-1293.520675,0
0.008333,171.682539,-135.544851,8.666288,3.086388,-5.913748,0.720789,5.222248,6.399610,-0.728992,-4.993113,-0.000585,0.192534,0.016587,148.615735,188.270024,1007.245395,-1292.412167,0
0.009375,195.150173,-80.782113,-49.107387,1.978008,-4.273520,-1.942131,6.009567,4.863147,1.843581,-5.750935,0.028639,0.195866,-0.031958,173.961445,188.423581,1007.044504,-1292.459042,0
0.010424,171.115414,-33.751154,-138.186932,0.281508,-2.580037,-3.954203,6.095389,3.109814,3.891567,-5.918153,0.003068,0.194494,-0.043161,181.324254,188.275142,1006.531912,-1292.652741,0
0.011471,121.276467,11.926744,-190.002273,-0.668532,-0.183599,-4.950318,4.595378,0.779389,4.965920,-4.576845,0.006721,0.214614,-0.013287,154.813615,188.274672,1004.970107,-1292.914468,0
0.012501,67.921345,76.692471,-199.013637,-0.838182,2.361950,-6.121050,3.222234,-1.837746,6.149388,-3.121686,-0.029809,0.198936,-0.024490,114.278576,188.272648,1004.606615,-1294.215509,0
0.013542,24.592993,150.096044,-163.128220,-0.182202,4.328805,-5.724192,0.871471,-3.822651,5.897586,-0.986978,-0.066339,0.192926,-0.031958,75.507897,188.424323,1004.047478,-1295.003704,0
0.014583,-21.457559,203.662772,-97.266478,1.027968,5.791519,-4.454245,-1.688249,-5.226787,4.621791,1.499957,-0.139399,0.181560,-0.073035,20.382958,188.349776,1003.112183,-1295.490652,0
0.015625,-95.853020,184.043384,-51.557197,1.876218,6.441220,-2.612822,-3.941996,-5.965613,2.875967,3.727169,-0.175929,0.177379,-0.024490,-66.138540,188.272953,1002.645817,-1295.984580,0
0.016667,-172.029253,135.574797,-7.866856,2.713158,6.050689,-0.509472,-5.363648,-5.550253,0.702080,5.128961,-0.230724,0.190771,-0.024490,-143.894788,188.336082,1002.414061,-1295.583159,0
0.017708,-195.372119,80.570441,49.475947,3.821538,4.389159,2.121699,-6.117385,-3.962329,-1.836919,5.929476,-0.223418,0.195866,-0.028224,-169.387528,188.405007,1001.777649,-1295.975075,0
0.018750,-171.654951,33.901909,136.770455,5.484108,2.734730,4.062336,-6.274102,-2.245754,-3.859725,6.021980,-0.234377,0.205012,-0.028224,-177.338458,188.345265,1000.578773,-1295.614269,0
0.019792,-122.303731,-10.000096,189.496781,6.456768,0.345392,5.117979,-4.774092,-0.021925,-4.950865,4.762503,-0.201500,0.217946,-0.046895,-150.771268,188.263803,1000.432219,-1295.966803,0
0.020833,-68.665046,-76.155127,198.951326,6.671658,-2.217909,6.296649,-3.326320,2.661373,-6.121742,3.293112,-0.168623,0.201157,-0.013287,-110.541599,188.265039,1000.418762,-1296.092772,0
0.021875,-25.223269,-149.643266,163.078220,5.993058,-4.191863,5.907728,-1.020334,4.672008,-5.865744,1.151288,-0.161317,0.190117,-0.039427,-67.970760,188.415535,1000.336931,-1296.996886,0
0.022917,21.280983,-203.403289,97.807387,4.771578,-5.675880,4.653655,1.554312,6.050414,-4.589949,-1.360552,-0.066339,0.192600,-0.020755,-14.293501,188.414667,999.285969,-1297.187812,0
0.023958,95.585703,-183.699334,52.184280,3.912018,-6.282977,2.772546,3.811790,6.829673,-2.823142,-3.569975,-0.051727,0.179665,-0.031958,68.654037,188.263421,998.300242,-1297.647672,0
0.025000,171.330922,-135.593174,8.173864,3.086388,-5.892446,0.665228,5.248368,6.373880,-0.682828,-5.035807,-0.007891,0.189595,-0.039427,148.819315,188.190210,997.668022,-1298.145900,0
0.026042,194.968693,-80.685466,-49.070455,1.966698,-4.234467,-1.958006,5.938671,4.800659,1.868761,-5.747377,-0.011544,0.194755,-0.050629,175.137685,188.415817,996.751041,-1298.173760,0
0.027083,171.330922,-32.990057,-136.401894,0.338058,-2.576487,-3.894674,6.061807,3.062029,3.866387,-5.914596,0.003068,0.213765,-0.046895,181.607004,188.416536,995.838381,-1297.711080,0
0.028125,121.934332,10.803220,-189.522160,-0.623292,-0.272356,-4.906663,4.647617,0.871282,4.932347,-4.573287,0.021333,0.192208,-0.054364,155.854135,188.269058,996.027156,-1297.058946,0
0.029167,67.456302,76.052183,-199.050569,-0.826872,2.358400,-6.081364,3.158801,-1.812015,6.107421,-3.132359,-0.062686,0.186786,-0.031958,114.482156,188.193642,995.867630,-1296.278974,0
0.030208,24.536280,149.745697,-163.386743,-0.238752,4.307503,-5.704349,0.837889,-3.760163,5.855619,-1.015441,-0.117481,0.187112,-0.035692,76.819857,188.422376,995.768068,-1295.234015,0
0.031250,-21.083257,202.937918,-98.103599,1.005348,5.780868,-4.426465,-1.688249,-5.190030,4.563038,1.510631,-0.172276,0.179731,-0.035692,21.208588,188.348425,994.521403,-1294.987617,0
0.032292,-96.000472,184.309164,-52.357387,1.864908,6.430569,-2.604885,-3.923339,-5.969289,2.867574,3.705822,-0.172276,0.179012,-0.028224,-64.080120,188.272001,994.468207,-1295.135888,0
0.033333,-171.326018,136.094276,-8.273106,2.690538,6.015187,-0.481692,-5.412156,-5.495117,0.702080,5.136076,-0.223418,0.189660,-0.065566,-143.521558,188.197971,993.573912,-1295.096148,0
0.034375,-195.803134,81.331538,49.377462,3.844158,4.318154,2.109793,-6.076340,-3.980708,-1.874689,5.854762,-0.230724,0.194233,-0.061832,-170.032198,188.424129,993.185729,-1295.084122,0
0.035417,-171.598238,33.889828,136.241099,5.472798,2.670825,4.086148,-6.203206,-2.216348,-3.851331,5.972170,-0.241683,0.201615,-0.043161,-177.033088,188.347870,992.278229,-1294.622478,0
0.036458,-122.315074,-10.241714,189.644508,6.479388,0.341842,5.070356,-4.710658,-0.025601,-4.925685,4.709135,-0.219765,0.204358,-0.024490,-151.517728,188.273852,991.815625,-1294.102478,0
0.037500,-67.655564,-75.611486,198.902084,6.637728,-2.239210,6.229183,-3.259156,2.709157,-6.088169,3.243302,-0.197847,0.166012,-0.035692,-109.478459,188.210064,990.710525,-1293.899766,0
0.038542,-24.451979,-149.570780,163.447538,5.993058,-4.167011,5.828356,-0.983020,4.653629,-5.861547,1.183309,-0.146705,0.202203,-0.046895,-70.266690,188.425073,991.229212,-1293.426427,0
0.039583,21.156215,-202.799243,97.622728,4.805508,-5.597773,4.582221,1.531923,6.039387,-4.564769,-1.317858,-0.069992,0.181625,-0.013287,-15.910831,188.347597,991.051080,-1292.702973,0
0.040625,95.347511,-184.424188,52.245833,3.934638,-6.265226,2.768578,3.737163,6.844376,-2.856715,-3.534396,-0.033462,0.178424,-0.024490,68.009367,188.263237,991.683196,-1292.646671,0
0.041667,170.729769,-135.919359,8.703220,3.097698,-5.888896,0.669197,5.222248,6.348150,-0.699615,-5.007345,-0.011544,0.190771,-0.028224,148.038925,188.189146,991.206072,-1292.226240,0
0.042708,195.388365,-81.313673,-48.922727,2.011938,-4.223816,-1.973880,5.961060,4.855795,1.814204,-5.708240,0.024986,0.194560,-0.046895,174.040615,188.412321,991.972106,-1291.741759,0
0.043750,171.217497,-34.234390,-136.475758,0.326748,-2.597788,-3.878800,6.050612,3.087760,3.841206,-5.864786,0.024986,0.198871,-0.050629,181.245084,188.468417,991.605622,-1291.332729,0
0.044792,122.648910,10.464955,-189.534470,-0.702462,-0.204901,-4.906663,4.595378,0.812470,4.944937,-4.612424,-0.018850,0.216182,-0.039427,156.012475,188.252186,991.441373,-1292.368569,0
0.045833,68.170880,76.148830,-198.828978,-0.894732,2.386802,-6.085333,3.155069,-1.845097,6.086437,-3.121686,-0.033462,0.197630,-0.028224,114.346436,188.347518,990.910732,-1292.681384,0
0.046875,24.536280,149.830264,-163.399054,-0.227442,4.346556,-5.692443,0.864008,-3.789569,5.859816,-0.986978,-0.099216,0.192404,-0.039427,75.564447,188.414662,990.644868,-1293.178314,0
0.047917,-21.298764,202.986241,-97.414205,1.016658,5.784419,-4.418528,-1.662129,-5.201057,4.554644,1.521304,-0.117481,0.180188,-0.031958,20.597848,188.340589,990.653152,-1293.090167,0
0.048958,-95.580800,184.272921,-51.692614,1.932768,6.409268,-2.600916,-3.941996,-5.961937,2.850787,3.705822,-0.175929,0.175223,-0.035692,-65.799240,188.248977,990.393407,-1292.852558,0
0.050000,-171.178566,135.768091,-8.039205,2.724468,6.022287,-0.493598,-5.386036,-5.517171,0.693687,5.185886,-0.241683,0.187635,-0.013287,-143.340598,188.192222,990.553796,-1293.403227,0
0.051042,-195.678367,81.041596,49.205114,3.855468,4.382059,2.133604,-6.121116,-3.962329,-1.866296,5.879666,-0.234377,0.193318,-0.013287,-169.398838,188.410976,990.455967,-1293.432913,0
0.052083,-171.802403,34.191850,136.425758,5.472798,2.716978,4.058368,-6.218132,-2.271484,-3.868118,6.043327,-0.238030,0.200635,-0.024490,-177.304528,188.484347,991.624723,-1294.182677,0
0.053125,-122.825486,-9.879287,189.509091,6.445458,0.352493,5.086231,-4.766629,-0.018249,-4.955062,4.758945,-0.190541,0.201811,-0.009553,-150.895678,188.256516,991.997369,-1294.988036,0
0.054167,-68.880554,-75.841023,198.926705,6.694278,-2.239210,6.332366,-3.281544,2.683427,-6.163709,3.300228,-0.212459,0.201027,-0.035692,-110.507669,188.258918,993.162580,-1295.878578,0
0.055208,-25.416092,-149.486214,163.201326,6.015678,-4.195413,5.923602,-1.027796,4.649953,-5.916104,1.140615,-0.124787,0.194755,-0.050629,-68.061240,188.406698,992.921827,-1296.568531,0
0.056251,21.235613,-203.209994,97.832008,4.760268,-5.658128,4.629844,1.554312,6.076144,-4.585753,-1.324973,-0.084604,0.187896,-0.046895,-14.304811,188.406295,993.331958,-1297.230170,0
0.057296,95.823896,-183.518121,51.839583,3.912018,-6.279427,2.764609,3.822985,6.840701,-2.827338,-3.559301,-0.037115,0.179731,-0.028224,69.208227,188.263273,992.999396,-1297.090661,0
0.058333,170.877222,-135.762307,8.321591,3.097698,-5.885346,0.681103,5.192397,6.414313,-0.720599,-5.021576,0.028639,0.188680,-0.061832,148.547875,188.264719,994.007167,-1297.375050,0
0.059375,195.150173,-80.915003,-48.861174,1.955388,-4.255768,-1.930225,5.975985,4.870498,1.805810,-5.750935,0.017680,0.194233,-0.009553,175.148995,188.194143,994.375381,-1297.558048,0
0.060416,171.376292,-33.279998,-136.069508,0.326748,-2.594238,-3.906580,6.114046,3.065705,3.904157,-5.903922,0.017680,0.206841,-0.050629,181.584384,188.420224,994.419026,-1298.353568,0
0.061458,121.888962,10.440793,-189.399054,-0.645912,-0.240404,-4.906663,4.643886,0.845552,4.974314,-4.583961,-0.022503,0.206971,-0.054364,156.091645,188.344959,994.398249,-1298.015029,0
0.062500,67.830605,75.919293,-199.136743,-0.838182,2.365501,-6.097238,3.214771,-1.804664,6.124207,-3.167938,-0.015197,0.200308,0.001650,114.674426,188.269601,995.391752,-1297.944625,0
0.063541,25.103405,149.685293,-163.583713,-0.216132,4.328805,-5.708317,0.919979,-3.785893,5.897586,-1.011883,-0.102869,0.194690,-0.046895,77.136537,188.269433,995.807552,-1298.244687,0
0.064583,-20.935804,203.010403,-98.042046,1.016658,5.802170,-4.458213,-1.677055,-5.234139,4.600808,1.478610,-0.157664,0.175877,-0.035692,21.287758,188.420423,996.560917,-1298.646799,0
0.065625,-95.887047,184.417892,-52.505114,1.876218,6.430569,-2.612822,-3.908414,-5.976640,2.888557,3.634665,-0.190541,0.180515,-0.031958,-63.910470,188.344833,997.326317,-1298.231795,0
0.066674,-172.380871,135.369422,-7.940720,2.701848,5.990335,-0.438038,-5.427081,-5.531874,0.697884,5.175213,-0.238030,0.190967,-0.043161,-144.324568,188.269409,997.962165,-1298.158360,0
0.067708,-195.859847,81.778531,49.278977,3.798918,4.396260,2.121699,-6.094997,-3.995411,-1.841116,5.915245,-0.216112,0.196454,-0.065566,-170.088748,188.194071,998.655152,-1298.653064,0
0.068750,-171.757033,33.998556,136.290341,5.472798,2.716978,4.078210,-6.229326,-2.260457,-3.855528,6.050443,-0.238030,0.202203,-0.031958,-177.146188,188.402463,998.616438,-1298.519360,0
0.069792,-122.258361,-10.072582,189.755304,6.445458,0.384445,5.098136,-4.781554,-0.018249,-4.959258,4.730482,-0.227071,0.215659,-0.013287,-151.596898,188.252065,998.449616,-1298.248286,0
0.070833,-67.893756,-75.526920,199.172917,6.660348,-2.260512,6.296649,-3.333783,2.668724,-6.083972,3.264649,-0.205153,0.196781,-0.017021,-109.625489,188.255398,997.711274,-1297.098630,0
0.071875,-24.780912,-149.607023,163.459849,5.993058,-4.206064,5.943445,-1.027796,4.668332,-5.911908,1.193982,-0.164970,0.176138,-0.058098,-70.594680,188.417402,998.429755,-1296.944449,0
0.072917,21.076818,-203.125428,97.733523,4.805508,-5.668779,4.689372,1.520729,6.101875,-4.627720,-1.296510,-0.077298,0.175746,-0.073035,-15.990001,188.424064,999.109923,-1297.052359,0
0.073958,95.438251,-184.267137,52.541288,3.957258,-6.300728,2.847949,3.804328,6.888485,-2.928059,-3.513049,-0.011544,0.181756,-0.013287,68.145087,188.266629,1000.553675,-1297.247348,0
0.075000,171.296894,-135.895197,8.912500,3.086388,-5.910198,0.736663,5.259562,6.436368,-0.762566,-4.975324,-0.000585,0.193122,-0.035692,148.355605,188.267605,1001.114312,-1296.812218,0
0.076042,195.320310,-81.072055,-48.836553,1.978008,-4.262869,-1.981817,5.983448,4.863147,1.856171,-5.761608,0.032292,0.194037,-0.031958,174.051925,188.410670,1000.785703,-1297.476080,0
0.077083,171.353607,-34.463927,-136.512690,0.326748,-2.587137,-3.910549,6.158822,3.091435,3.878977,-5.911038,0.054210,0.202268,-0.017021,181.222464,188.415427,1001.057983,-1297.558970,0
0.078125,122.376690,10.283741,-189.534470,-0.611982,-0.240404,-4.950318,4.677468,0.849228,4.944937,-4.630213,-0.040768,0.209062,-0.024490,155.854135,188.338759,1001.525902,-1297.646204,0
0.079167,68.272962,76.100506,-199.075190,-0.792942,2.393903,-6.140893,3.248354,-1.819367,6.124207,-3.182169,-0.051727,0.198936,-0.039427,114.572636,188.259250,1001.604105,-1297.918538,0
0.080208,24.955953,149.818183,-163.288258,-0.182202,4.357207,-5.775783,0.905053,-3.822651,5.931159,-1.022556,-0.095563,0.195801,-0.043161,75.847197,188.344608,1002.040254,-1298.347849,0
0.081261,-21.933944,204.556759,-96.540152,1.050588,5.880276,-4.489962,-1.755413,-5.300302,4.592414,1.563998,-0.150358,0.170063,-0.017021,19.512088,188.425790,1002.418258,-1299.394888,0
0.082301,-96.193295,183.125235,-51.249432,1.910148,6.473173,-2.604885,-3.968116,-6.006046,2.800427,3.766305,-0.208806,0.175354,-0.005818,-67.020720,188.214058,1001.288457,-1300.412115,0
0.083352,-174.104931,134.088846,-7.423674,2.769708,6.079092,-0.461849,-5.393499,-5.583335,0.639130,5.242812,-0.219765,0.192208,-0.017021,-145.432948,188.279323,1002.013255,-1301.466021,0
0.084384,-195.065872,80.655007,50.165341,3.844158,4.378508,2.165353,-6.143505,-4.006438,-1.933443,5.922361,-0.212459,0.196585,-0.024490,-169.387528,188.201187,1001.795523,-1301.725851,0
0.085423,-171.847773,34.276417,137.779925,5.506728,2.738280,4.133771,-6.255446,-2.300890,-3.910085,6.114484,-0.248989,0.208016,-0.046895,-177.575968,188.427751,1003.124503,-1302.939025,0
0.086462,-122.553266,-9.879287,189.706061,6.468078,0.366694,5.173540,-4.826331,-0.010898,-5.001225,4.780292,-0.219765,0.205599,-0.024490,-150.443278,188.351320,1003.600401,-1303.786883,0
0.087503,-68.778471,-76.674606,199.148296,6.615108,-2.271163,6.360146,-3.352440,2.701806,-6.167906,3.321575,-0.175929,0.188942,-0.017021,-110.451119,188.284122,1004.877517,-1305.145489,0
0.088541,-25.937847,-149.522457,163.078220,5.981748,-4.238017,5.967256,-1.057647,4.672008,-5.958071,1.186867,-0.132093,0.193122,-0.035692,-68.524950,188.198193,1004.856717,-1305.700806,0
0.089583,20.929365,-203.681149,97.868940,4.760268,-5.690081,4.705247,1.539386,6.109226,-4.690670,-1.349878,-0.055380,0.187962,-0.024490,-14.587561,188.351760,1005.247960,-1306.584415,0
0.090625,95.177373,-183.687253,52.578220,3.934638,-6.339782,2.808264,3.815522,6.851728,-2.894485,-3.569975,-0.011544,0.180776,0.001650,68.314737,188.426244,1004.189009,-1306.760624,0
0.091666,171.614484,-135.593174,8.826326,3.097698,-5.970553,0.681103,5.255831,6.476801,-0.775156,-5.053597,-0.007891,0.190444,-0.035692,148.762765,188.276218,1004.864133,-1307.710630,0
0.092708,195.116145,-80.951246,-48.701137,1.966698,-4.294821,-1.926257,6.020761,4.896229,1.835187,-5.793629,0.014027,0.194429,-0.046895,175.069825,188.325672,1005.416560,-1307.805860,0
0.093750,171.342264,-33.714911,-136.315720,0.349368,-2.633291,-3.926423,6.155091,3.095111,3.950320,-5.960848,0.014027,0.200700,-0.009553,181.652244,188.403980,1005.805593,-1308.715767,0
0.094791,121.673455,10.199175,-189.546781,-0.645912,-0.247504,-4.950318,4.688662,0.904364,4.978510,-4.612424,-0.011544,0.198283,-0.024490,156.057715,188.483520,1006.124629,-1308.378806,0
0.095833,67.955372,75.967617,-199.185985,-0.849492,2.351300,-6.148830,3.263279,-1.823043,6.140994,-3.196401,-0.037115,0.179535,-0.046895,115.092896,188.249516,1006.382168,-1308.488097,0
0.096875,25.647845,149.745697,-163.239016,-0.250062,4.328805,-5.799595,0.919979,-3.796920,5.931159,-1.065250,-0.091910,0.197956,-0.046895,77.407977,188.261616,1006.645595,-1308.178472,0
0.097916,-20.697612,203.505720,-98.029735,0.982728,5.837673,-4.485993,-1.703174,-5.219436,4.617595,1.503515,-0.168623,0.183258,-0.024490,21.638368,188.401124,1006.270077,-1307.375817,0
0.098958,-95.558115,184.067546,-52.714394,1.887528,6.466072,-2.640602,-3.956922,-6.046479,2.875967,3.730727,-0.186888,0.180711,-0.024490,-63.695580,188.482520,1007.108759,-1307.976768,0
0.100001,-172.085966,135.756010,-9.073295,2.701848,6.047139,-0.521378,-5.442007,-5.579659,0.723064,5.235696,-0.208806,0.190379,-0.054364,-145.240678,188.250786,1006.643566,-1308.058789,0
0.101041,-195.678367,81.633561,48.921970,3.414378,4.431763,2.149479,-6.136042,-4.024817,-1.878886,5.929476,-0.219765,0.195017,-0.039427,-169.760758,188.256294,1006.837305,-1308.255292,0
0.102083,-171.881801,34.203931,136.635038,5.438868,2.731179,4.137739,-6.270371,-2.249430,-3.893298,6.082464,-0.227071,0.201680,-0.039427,-177.191428,188.410059,1005.664747,-1307.864768,0
0.103125,-122.099566,-9.685993,189.792235,6.468078,0.348943,5.129885,-4.751704,0.003805,-4.971848,4.751829,-0.201500,0.216117,-0.028224,-151.393318,188.473814,1005.129922,-1307.402485,0
0.104167,-67.825701,-75.696052,199.332955,6.716898,-2.249861,6.344272,-3.330052,2.716509,-6.142726,3.293112,-0.194194,0.201353,-0.043161,-109.840379,188.279128,1004.371072,-1307.062223,0
0.105209,-25.019104,-149.872803,162.918182,6.015678,-4.209615,5.951382,-1.024065,4.701414,-5.932891,1.119267,-0.135746,0.188746,-0.076769,-70.888740,188.264491,1003.762109,-1307.251654,0
0.106250,20.838625,-203.524098,97.635038,4.805508,-5.686530,4.685404,1.494610,6.065117,-4.644506,-1.349878,-0.091910,0.192077,-0.065566,-16.182271,188.345290,1003.072499,-1306.562641,0
0.107292,95.245428,-183.916790,52.750568,3.934638,-6.307829,2.828107,3.830447,6.899513,-2.890289,-3.580648,-0.044421,0.181299,-0.035692,67.941507,188.428120,1003.337522,-1307.228466,0
0.108334,171.932074,-135.629417,9.343371,3.086388,-5.942150,0.700946,5.270756,6.436368,-0.749975,-5.057154,0.014027,0.192665,-0.039427,149.396125,188.345489,1002.667610,-1307.358128,0
0.109375,195.127488,-81.917718,-48.799621,1.978008,-4.284170,-1.950068,5.990910,4.870498,1.856171,-5.804302,-0.004238,0.198087,-0.046895,174.753145,188.269984,1002.238291,-1307.973132,0
