1-Time,2-VGERA,3-VGERB,4-VGERC,5-VN,6-IGERAN,7-IGERBN,8-IGERCN,9-IGERAT,10-IGERBT,11-IGERCT,12-IN,13-IFD,14-IFAULT,15-VFAULT,16-Speed (rad/s),17-FAULT 
0.000000,101.506489,75.774322,-187.540152,-0.645912,-3.513760,-2.275492,5.490907,3.701610,2.145743,-5.267067,-0.062686,0.463176,-0.039427,49.110357,188.495309,0
0.001042,29.424898,132.010930,-192.304357,-0.725082,-1.745722,-3.993889,5.267025,1.951953,3.925140,-5.128311,-0.029809,0.462065,-0.076769,11.086138,188.721523,0
0.002083,-33.764172,172.179936,-148.934091,0.089238,0.547758,-5.077312,4.035673,-0.264524,5.037264,-3.982685,-0.059033,0.453377,-0.058098,-26.711881,188.495291,0
0.003125,-85.474632,202.019769,-71.992803,1.491678,2.816386,-5.537668,2.229690,-2.617005,5.628998,-2.228666,-0.099216,0.450503,-0.065566,-57.214950,188.495298,0
0.004167,-143.956564,171.914156,-9.811932,2.690538,4.328805,-4.882852,0.132660,-4.057899,4.986904,-0.232714,-0.113828,0.445342,-0.039427,-92.094990,188.495206,0
0.005208,-186.286776,124.569093,51.802652,3.878088,5.429391,-3.692277,-2.020341,-5.237814,3.866387,1.816605,-0.139399,0.444624,-0.058098,-110.496359,188.721498,0
0.006250,-187.852041,46.405644,110.056440,4.975158,5.550100,-1.807199,-3.785279,-5.359114,2.024038,3.542161,-0.219765,0.447237,-0.054364,-107.928989,188.495269,0
0.007292,-163.590433,-18.988289,164.617046,6.026988,5.134718,0.149312,-5.102452,-5.024621,0.047396,4.851449,-0.230724,0.457231,-0.076769,-87.865050,188.495267,0
0.008333,-102.238848,-75.587324,187.379357,6.411528,3.544193,2.387594,-5.624844,-3.513888,-2.105507,5.342432,-0.256295,0.444754,-0.046895,-43.767361,188.495246,0
0.009375,-29.215829,-131.896418,192.365152,6.513318,1.850710,4.054399,-5.341260,-1.709094,-4.006609,5.285506,-0.230724,0.445081,-0.028224,-6.105061,188.649512,0
0.010417,34.460968,-171.702997,148.748675,5.687688,-0.410817,5.185445,-4.136027,0.485329,-5.043192,4.093627,-0.252642,0.432016,-0.031958,32.552518,188.502289,0
0.011458,85.422823,-202.171036,70.957955,4.262628,-2.707847,5.681518,-2.367358,2.870890,-5.626532,2.400092,-0.168623,0.443774,-0.084238,63.304407,188.495387,0
0.012500,143.485083,-171.715077,8.838636,3.120318,-4.198964,5.058451,-0.244209,4.260324,-5.030602,0.421930,-0.154011,0.442011,-0.046895,96.352226,188.495267,0
0.013542,185.679185,-123.608918,-52.012690,1.955388,-5.306651,3.836127,1.860284,5.524782,-3.847135,-1.716336,-0.062686,0.440312,-0.054364,116.823326,188.646138,0
0.014583,187.391902,-45.252174,-110.118750,0.835698,-5.473514,1.978830,3.696118,5.631379,-2.025770,-3.456123,-0.080951,0.441423,-0.043161,113.656526,188.495369,0
0.015625,163.425199,19.247772,-164.494697,-0.204822,-5.040380,0.014381,4.979709,5.223370,-0.061718,-4.797432,-0.059033,0.462915,-0.050629,92.529446,188.495289,0
0.016667,102.107641,75.846807,-187.601705,-0.702462,-3.481808,-2.295335,5.524489,3.712637,2.154136,-5.277741,-0.037115,0.461412,-0.080503,51.372357,188.495425,0
0.017708,30.377668,132.312953,-192.107387,-0.747702,-1.685367,-4.017701,5.248368,1.907844,3.979697,-5.163890,-0.048074,0.462653,-0.080503,11.855218,188.646303,0
0.018751,-33.560007,172.928952,-148.121591,0.021378,0.579711,-5.113030,3.994628,-0.275552,5.037264,-3.993358,-0.066339,0.457885,-0.050629,-27.220831,188.495423,0
0.019796,-86.132497,201.935203,-70.712500,1.559538,2.894492,-5.577354,2.173719,-2.650086,5.599621,-2.207319,-0.106522,0.449131,-0.035692,-58.300710,188.501232,0
0.020833,-144.557717,171.624214,-8.962500,2.690538,4.378508,-4.890789,0.035644,-4.120386,4.991100,-0.222041,-0.150358,0.441423,-0.073035,-91.676520,188.495385,0
0.021875,-185.708309,123.844239,52.442803,3.889398,5.411639,-3.628779,-2.020341,-5.259869,3.824420,1.901994,-0.168623,0.438091,-0.043161,-111.141029,188.570731,0
0.022917,-187.772644,44.835127,110.610417,4.975158,5.574952,-1.787356,-3.856175,-5.384844,1.998858,3.631107,-0.212459,0.448804,-0.050629,-108.539729,188.495273,0
0.023958,-163.658488,-20.558806,164.309281,5.981748,5.134718,0.169155,-5.098721,-4.973160,-0.019751,4.940395,-0.234377,0.444689,-0.054364,-88.849020,188.495338,0
0.025000,-100.673583,-75.913509,188.167235,6.468078,3.583246,2.443154,-5.636038,-3.429345,-2.164261,5.410031,-0.238030,0.436001,-0.069301,-44.378101,188.495459,0
0.026042,-28.399169,-131.884337,192.180493,6.524628,1.797456,4.121865,-5.359917,-1.602498,-4.019199,5.214349,-0.238030,0.431885,-0.087972,-6.353881,188.570785,0
0.027083,34.506338,-172.923168,147.911553,5.687688,-0.449870,5.268786,-4.169610,0.536789,-5.076766,4.050933,-0.227071,0.458473,-0.054364,32.167978,188.495383,0
0.028125,85.672358,-201.784447,70.957955,4.273938,-2.746900,5.685487,-2.344970,2.892945,-5.651713,2.321820,-0.186888,0.451091,-0.054364,62.591877,188.495452,0
0.029171,144.880211,-171.316408,8.530871,3.097698,-4.230916,5.066388,-0.244209,4.311784,-5.005422,0.379235,-0.132093,0.448412,-0.069301,97.155236,188.495360,0
0.030209,185.463677,-123.935102,-52.406629,1.910148,-5.317301,3.772629,1.878941,5.502727,-3.830348,-1.741241,-0.117481,0.443513,-0.054364,115.002416,188.570772,0
0.031250,187.584725,-45.832058,-110.734281,0.801768,-5.484164,1.970892,3.699849,5.620351,-2.029967,-3.441892,-0.066339,0.449915,-0.069301,114.165476,188.495452,0
0.032292,163.527281,19.380662,-164.568561,-0.204822,-5.015528,-0.045148,4.934933,5.201316,-0.040734,-4.783200,-0.051727,0.460302,-0.061832,91.375826,188.495293,0
0.033333,101.846764,75.895131,-187.774054,-0.634602,-3.432104,-2.311210,5.513295,3.683231,2.183513,-5.281299,-0.033462,0.461412,-0.050629,48.601407,188.495387,0
0.034375,29.504296,132.518328,-191.935038,-0.725082,-1.660515,-3.989920,5.188666,1.896817,3.954517,-5.110522,-0.033462,0.461804,-0.043161,10.317058,188.517006,0
0.035417,-34.490092,172.928952,-148.060038,0.077928,0.569060,-5.077312,4.005822,-0.260849,5.007887,-3.939991,-0.066339,0.452071,-0.035692,-27.300001,188.440147,0
0.036458,-86.019072,202.164740,-70.687879,1.548228,2.858989,-5.549574,2.166256,-2.594950,5.645784,-2.225108,-0.128440,0.440965,-0.058098,-57.452460,188.522722,0
0.037500,-144.342210,171.624214,-8.310038,2.713158,4.350106,-4.910632,0.102809,-4.094656,4.944937,-0.200694,-0.110175,0.439463,-0.043161,-92.434290,188.509995,0
0.038542,-185.935159,123.107304,52.824432,3.900708,5.415190,-3.684340,-2.027803,-5.252517,3.832813,1.901994,-0.194194,0.435870,-0.035692,-110.145749,188.517614,0
0.039583,-187.693246,44.170677,110.548864,4.963848,5.571402,-1.795294,-3.815130,-5.359114,2.007252,3.538603,-0.219765,0.445538,-0.035692,-107.804579,188.501177,0
0.040625,-163.216130,-20.486321,164.666288,5.970438,5.095665,0.129470,-5.031556,-4.965809,0.047396,4.869238,-0.248989,0.447433,-0.039427,-87.763260,188.500864,0
0.041667,-101.138625,-76.106803,187.625569,6.434148,3.565495,2.439185,-5.606187,-3.447724,-2.164261,5.378010,-0.227071,0.436719,-0.054364,-43.880461,188.495264,0
0.042708,-29.238514,-132.415897,192.082008,6.524628,1.818758,4.098053,-5.296484,-1.709094,-3.981429,5.207233,-0.256295,0.457035,-0.046895,-6.693181,188.570631,0
0.043761,34.551708,-174.046692,146.606629,5.642448,-0.478272,5.217194,-4.113639,0.540465,-5.051586,4.015355,-0.223418,0.455925,-0.035692,32.801338,188.495265,0
0.044802,86.795266,-201.289130,69.874621,4.228698,-2.739799,5.673581,-2.277805,2.881918,-5.655909,2.318262,-0.190541,0.446518,-0.035692,64.220517,188.495311,0
0.045838,144.936923,-171.135194,8.826326,3.075078,-4.227366,5.034639,-0.240477,4.297081,-4.984438,0.332983,-0.143052,0.447629,-0.035692,97.211786,188.495275,0
0.046879,185.679185,-123.367300,-53.059091,1.910148,-5.278248,3.736912,1.897598,5.476997,-3.826151,-1.734126,-0.121134,0.443840,-0.050629,116.404856,188.570807,0
0.047921,187.414587,-44.503158,-111.399053,0.745218,-5.452212,1.903427,3.684924,5.616676,-2.000590,-3.473913,-0.062686,0.449327,-0.073035,113.396396,188.569094,0
0.048963,163.175664,21.120312,-164.605493,-0.238752,-4.983575,-0.013399,4.972246,5.208667,-0.023948,-4.822337,-0.033462,0.457297,-0.035692,91.975256,188.495738,0
0.050004,99.907196,77.006574,-187.995645,-0.679842,-3.417903,-2.346927,5.520758,3.664852,2.196103,-5.288415,-0.007891,0.473171,-0.024490,49.393107,188.495025,0
0.051053,27.167740,133.472720,-191.233334,-0.759012,-1.607261,-4.025638,5.237174,1.874762,4.051041,-5.074944,0.003068,0.440182,-0.028224,10.226578,188.570591,0
0.052094,-35.613000,175.079353,-145.671781,0.145788,0.629415,-5.120967,3.964777,-0.352743,5.079231,-3.918644,-0.066339,0.441096,-0.035692,-28.091701,188.570435,0
0.053134,-86.881102,201.850636,-68.915152,1.559538,2.944196,-5.521794,2.158794,-2.679492,5.679358,-2.203761,-0.139399,0.447237,-0.028224,-58.719180,188.495700,0
0.054177,-145.952845,170.838956,-6.783523,2.724468,4.399810,-4.938412,0.076689,-4.138765,4.965920,-0.193578,-0.095563,0.445734,-0.043161,-92.875380,188.495036,0
0.055212,-185.515486,123.312679,53.464583,3.912018,5.443592,-3.664497,-2.001684,-5.281923,3.803436,1.845068,-0.179582,0.442468,-0.024490,-110.903519,188.495003,0
0.056255,-187.749959,44.665994,111.755303,5.031708,5.589153,-1.838948,-3.844981,-5.410575,1.948498,3.627549,-0.208806,0.450438,-0.046895,-108.471869,188.494556,0
0.057296,-163.681173,-20.619211,164.678599,6.015678,5.138268,0.137407,-5.080064,-5.006242,0.026413,4.890585,-0.267254,0.462849,-0.050629,-89.143080,188.494391,0
0.058333,-101.218023,-76.143046,188.117993,6.479388,3.583246,2.431248,-5.669621,-3.473454,-2.147474,5.417146,-0.238030,0.463176,-0.035692,-44.762641,188.494985,0
0.059375,-29.953092,-132.464220,191.798864,6.547248,1.801006,4.125833,-5.307678,-1.701743,-3.968839,5.246370,-0.234377,0.468925,-0.043161,-6.625321,188.569230,0
0.060417,34.007268,-173.466808,147.677652,5.698998,-0.453420,5.264817,-4.124833,0.514735,-5.072569,4.050933,-0.219765,0.460236,-0.058098,32.360248,188.495651,0
0.061458,86.341566,-201.434101,70.748674,4.285248,-2.722048,5.677550,-2.326313,2.845160,-5.647516,2.368072,-0.197847,0.446518,-0.046895,62.829387,188.495627,0
0.062500,145.039006,-171.256003,8.457008,3.086388,-4.238017,4.998922,-0.173313,4.352218,-5.001225,0.350773,-0.135746,0.445016,-0.024490,96.929036,188.495645,0
0.063542,185.361595,-122.908225,-53.231440,1.853598,-5.271148,3.768661,1.893866,5.465970,-3.830348,-1.719894,-0.121134,0.440704,-0.065566,114.855386,188.495664,0
0.064583,187.630095,-43.669576,-111.140531,0.779148,-5.462863,1.951050,3.681193,5.664460,-2.008983,-3.445450,-0.051727,0.411047,-0.031958,114.097616,188.498912,0
0.065625,162.880759,21.772681,-164.457766,-0.250062,-5.008427,-0.037211,4.961052,5.164558,-0.036538,-4.758295,-0.015197,0.459714,-0.054364,90.878186,188.496040,0
0.066667,99.532894,77.139464,-187.909470,-0.702462,-3.492458,-2.279461,5.509564,3.690583,2.158333,-5.270625,-0.004238,0.452659,-0.043161,47.753157,188.496156,0
0.067708,27.848291,132.687461,-191.725758,-0.736392,-1.688917,-3.946266,5.214786,1.896817,3.937730,-5.114080,-0.040768,0.468663,-0.039427,10.124788,188.571471,0
0.068750,-35.329437,173.291379,-147.333713,0.111858,0.551309,-5.101124,4.017016,-0.253497,5.007887,-3.982685,-0.044421,0.445016,-0.035692,-27.424411,188.495683,0
0.069792,-86.688279,201.838555,-70.146212,1.536918,2.823487,-5.541637,2.218495,-2.598626,5.616408,-2.239340,-0.117481,0.449458,-0.013287,-57.893550,188.496170,0
0.070833,-145.238267,171.273868,-8.236174,2.735778,4.307503,-4.906663,0.140122,-4.087305,4.978510,-0.257619,-0.124787,0.446257,-0.061832,-93.033720,188.496087,0
0.071875,-185.980529,123.723430,53.242993,3.912018,5.415190,-3.640685,-1.964370,-5.226787,3.841206,1.823721,-0.150358,0.448151,-0.046895,-110.032649,188.571395,0
0.072917,-187.704589,45.463334,111.533712,4.986468,5.564301,-1.831011,-3.818861,-5.388520,2.036629,3.552835,-0.212459,0.452005,-0.028224,-107.838509,188.496092,0
0.073960,-163.499693,-20.111813,165.010985,6.026988,5.092114,0.161218,-5.072601,-5.006242,0.043199,4.865680,-0.212459,0.461608,-0.058098,-87.672780,188.496103,0
0.075000,-101.297420,-76.590039,187.748675,6.456768,3.576146,2.431248,-5.617381,-3.473454,-2.160064,5.349547,-0.256295,0.464613,-0.035692,-43.235791,188.496016,0
0.076042,-28.875554,-132.935376,191.725001,6.558558,1.836509,4.098053,-5.333797,-1.683364,-3.947855,5.225023,-0.263601,0.465266,-0.017021,-5.754451,188.496060,0
0.077084,35.118833,-172.983572,147.517614,5.687688,-0.432119,5.185445,-4.087520,0.503707,-5.043192,4.018913,-0.241683,0.446453,-0.005818,33.038848,188.496116,0
0.078125,86.534388,-201.808609,69.960796,4.228698,-2.750450,5.661675,-2.318850,2.878242,-5.618139,2.318262,-0.172276,0.443970,-0.017021,63.847287,188.496150,0
0.079167,144.687388,-171.050628,7.718371,3.052458,-4.216715,5.038608,-0.221820,4.278703,-4.955062,0.354330,-0.121134,0.440769,-0.050629,97.008206,188.496154,0
0.080208,185.395622,-122.340423,-53.674621,1.887528,-5.274698,3.788504,1.864015,5.473321,-3.826151,-1.744799,-0.150358,0.443252,-0.043161,116.382236,188.496073,0
0.081250,187.255792,-43.113854,-111.472917,0.790458,-5.452212,1.982798,3.673730,5.642406,-2.046754,-3.427661,-0.059033,0.437438,-0.058098,113.373776,188.496138,0
0.082292,162.869416,21.688115,-164.580872,-0.227442,-5.015528,-0.025305,4.961052,5.271155,-0.011358,-4.744064,-0.059033,0.434498,-0.039427,92.088356,188.496101,0
0.083334,99.805114,77.163626,-187.872538,-0.702462,-3.453405,-2.299304,5.528221,3.679555,2.183513,-5.299088,-0.011544,0.456774,-0.050629,50.150877,188.496044,0
0.084375,28.562868,133.122373,-191.430304,-0.736392,-1.713769,-3.958172,5.211054,1.889465,4.017468,-5.135427,-0.000585,0.469055,-0.046895,11.346268,188.496067,0
0.085417,-34.705600,174.064557,-147.038258,0.111858,0.569060,-5.101124,4.002090,-0.290255,5.070837,-3.979127,-0.055380,0.457950,-0.069301,-27.673231,188.496141,0
0.086459,-87.039897,201.572775,-70.207765,1.502988,2.862540,-5.494014,2.184913,-2.661114,5.641588,-2.235782,-0.069992,0.449523,-0.084238,-58.775730,188.495857,0
0.087500,-146.145667,171.068493,-8.088447,2.701848,4.389159,-4.906663,0.065495,-4.109359,5.016280,-0.232714,-0.150358,0.446583,-0.028224,-92.513460,188.495928,0
0.088542,-185.674281,123.481812,53.772349,3.900708,5.397438,-3.620842,-2.027803,-5.237814,3.774059,1.891320,-0.205153,0.443905,-0.046895,-110.846969,188.496111,0
0.089584,-187.727274,44.339810,112.136932,4.997778,5.585603,-1.838948,-3.818861,-5.399547,1.994662,3.609760,-0.252642,0.448021,-0.073035,-108.370079,188.496096,0
0.090625,-163.488350,-21.392389,164.457008,6.004368,5.053061,0.165187,-5.091258,-4.973160,-0.040734,4.919048,-0.256295,0.460432,-0.043161,-88.724610,188.496069,0
0.091667,-99.199058,-77.012871,188.376516,6.445458,3.544193,2.455060,-5.654695,-3.425670,-2.243998,5.381568,-0.256295,0.441227,-0.039427,-43.224481,188.496063,0
0.092709,-27.480427,-132.838728,191.478788,6.524628,1.783255,4.153614,-5.333797,-1.595146,-3.998216,5.260601,-0.256295,0.429468,-0.054364,-5.426461,188.496174,0
0.093750,35.527163,-174.034611,146.520455,5.676378,-0.439219,5.225131,-4.087520,0.551492,-5.043192,4.026028,-0.230724,0.447629,-0.058098,32.914438,188.496063,0
0.094792,86.761238,-201.518668,69.406818,4.273938,-2.739799,5.669613,-2.255417,2.885593,-5.613942,2.293357,-0.208806,0.450111,-0.054364,63.146067,188.496232,0
0.095834,145.401966,-170.869414,7.336742,3.086388,-4.209615,5.022733,-0.221820,4.326487,-5.009619,0.322310,-0.132093,0.443513,-0.076769,97.437986,188.496073,0
0.096875,185.112060,-122.654526,-53.970076,1.887528,-5.299550,3.752787,1.856553,5.451267,-3.788381,-1.727010,-0.139399,0.444036,-0.039427,114.685736,188.495939,0
0.097917,187.528012,-43.983679,-112.113069,0.779148,-5.473514,1.939144,3.666267,5.583594,-2.046754,-3.434776,-0.088257,0.449915,-0.080503,114.097616,188.496127,0
0.098958,162.982841,21.241121,-164.740910,-0.216132,-4.965824,-0.033242,4.927470,5.175586,-0.040734,-4.744064,-0.037115,0.460628,-0.054364,91.047836,188.495998,0
0.100000,100.281499,77.079060,-188.032576,-0.679842,-3.449855,-2.263587,5.509564,3.679555,2.149939,-5.274183,-0.055380,0.464613,-0.099175,48.081147,188.496150,0
0.101042,29.118651,133.291506,-191.159470,-0.736392,-1.699568,-3.981983,5.192397,1.882114,3.996484,-5.117638,-0.007891,0.462457,-0.054364,10.113478,188.496226,0
0.102084,-34.875737,174.064557,-146.742803,0.100548,0.551309,-5.093187,3.961045,-0.293930,5.045657,-3.936433,-0.044421,0.455533,-0.054364,-27.673231,188.496130,0
0.103125,-87.232720,201.572775,-69.579924,1.559538,2.830587,-5.541637,2.173719,-2.631708,5.591227,-2.196646,-0.106522,0.446714,-0.039427,-58.108440,188.496024,0
0.104167,-145.828077,170.838956,-7.239015,2.735778,4.364307,-4.890789,0.084152,-4.079953,4.965920,-0.222041,-0.132093,0.440247,-0.054364,-93.339090,188.496098,0
0.105209,-185.799049,122.467016,54.178599,3.923328,5.408089,-3.581156,-1.990490,-5.226787,3.748879,1.866415,-0.179582,0.438810,-0.084238,-109.749899,188.496136,0
0.106250,-187.613849,43.071315,112.087690,5.020398,5.543000,-1.815137,-3.803936,-5.362790,1.990465,3.567066,-0.186888,0.447694,-0.050629,-107.714099,188.496080,0
0.107292,-162.717060,-22.286376,164.727841,6.026988,5.077913,0.165187,-5.072601,-4.936403,0.009626,4.908374,-0.208806,0.451091,-0.058098,-87.220380,188.496177,0
0.108334,-99.017578,-77.435703,188.081061,6.490698,3.576146,2.435217,-5.598724,-3.440373,-2.172654,5.349547,-0.238030,0.460628,-0.035692,-42.398851,188.496214,0
0.109375,-27.355659,-133.261560,191.343372,6.524628,1.801006,4.098053,-5.322603,-1.631904,-3.968839,5.239254,-0.270907,0.454422,-0.039427,-5.584801,188.496098,0
0.110417,35.640588,-173.684265,146.643561,5.676378,-0.449870,5.205288,-4.150953,0.503707,-5.076766,4.068722,-0.252642,0.444689,-0.024490,33.084088,188.571513,0
0.111459,86.931376,-201.337454,69.689962,4.217388,-2.722048,5.669613,-2.341239,2.856187,-5.647516,2.336051,-0.186888,0.449654,-0.073035,64.254447,188.496033,0
0.112500,145.764926,-170.724443,7.792235,3.075078,-4.269969,5.014796,-0.195701,4.337515,-4.988635,0.361446,-0.139399,0.446845,-0.065566,97.709426,188.496109,0
0.113542,185.486362,-123.029034,-53.859280,1.898838,-5.306651,3.756755,1.886404,5.491700,-3.834545,-1.755473,-0.084604,0.442076,-0.043161,116.167346,188.496036,0
0.114584,187.312505,-44.346106,-112.507008,0.756528,-5.438011,1.943112,3.725969,5.613000,-2.034163,-3.466797,-0.066339,0.452071,-0.039427,113.305916,188.571504,0
0.115625,163.039554,21.615629,-164.925569,-0.227442,-4.994226,-0.033242,4.957321,5.182937,-0.044931,-4.779642,-0.033462,0.460694,-0.065566,91.873466,188.495942,0
0.116667,99.419469,77.513972,-188.401895,-0.725082,-3.421453,-2.366770,5.539415,3.675880,2.200300,-5.299088,-0.026156,0.462261,-0.069301,49.132977,188.496127,0
0.117709,27.927688,133.424396,-191.134849,-0.759012,-1.639213,-4.017701,5.166278,1.834329,3.979697,-5.092733,-0.022503,0.463503,-0.050629,10.452778,188.496062,0
0.118750,-35.624342,174.813573,-145.770266,0.111858,0.608113,-5.160653,3.964777,-0.323337,5.079231,-3.900854,-0.037115,0.442925,-0.039427,-28.216111,188.571373,0
0.119792,-87.368830,201.596937,-68.558144,1.548228,2.858989,-5.533700,2.158794,-2.679492,5.628998,-2.161067,-0.099216,0.440312,-0.073035,-58.888830,188.496150,0
0.120834,-146.270435,170.597338,-6.438826,2.769708,4.399810,-4.910632,0.046838,-4.131414,4.991100,-0.147326,-0.091910,0.441684,-0.046895,-92.818830,188.496127,0
0.121875,-185.118499,122.007942,54.621780,3.923328,5.432941,-3.640685,-2.027803,-5.263545,3.740486,1.891320,-0.197847,0.439463,-0.061832,-110.530289,188.495980,0
0.122917,-187.704589,42.769292,112.666288,5.065638,5.596254,-1.767514,-3.912145,-5.381169,1.961088,3.648897,-0.201500,0.450111,-0.046895,-108.245669,188.571478,0
0.123958,-162.955253,-22.467589,164.493940,6.004368,5.106315,0.212810,-5.106184,-4.969485,-0.053324,4.911932,-0.227071,0.459910,-0.028224,-88.656750,188.495953,0
0.125000,-98.711330,-77.145761,188.881251,6.490698,3.558394,2.494746,-5.710666,-3.399939,-2.269178,5.427820,-0.267254,0.450764,-0.046895,-43.552471,188.571397,0
0.126042,-28.263059,-133.249479,190.937122,6.569868,1.776155,4.153614,-5.296484,-1.639255,-4.023396,5.225023,-0.227071,0.454814,-0.043161,-6.093751,188.496044,0
0.127084,34.744531,-175.242701,145.769508,5.665068,-0.510225,5.268786,-4.057669,0.595601,-5.139716,4.040260,-0.227071,0.452724,-0.046895,32.676928,188.571572,0
