1-Time,2-VGERA,3-VGERB,4-VGERC,5-VN,6-IGERAN,7-IGERBN,8-IGERCN,9-IGERAT,10-IGERBT,11-IGERCT,12-IN,13-IFD,14-IFAULT,15-VFAULT,16-Speed (rad/s),17-Active Power,18-Reactive Power,19-FAULT 
0.000000,66.764410,114.819804,-200.318561,-0.815562,-5.143338,-1.073011,6.043150,5.208667,1.029422,-5.807860,-0.011544,0.598007,-0.050629,60.103677,188.496053,1576.590985,914.756409,0
0.001042,-2.629008,163.034692,-171.560985,-0.295302,-3.453405,-3.112863,6.267032,3.576634,3.056425,-6.046236,-0.004238,0.609047,-0.031958,85.291047,188.495977,1576.098519,914.844577,0
0.002083,-72.600894,194.058453,-123.512690,0.552948,-1.056968,-5.045564,5.572997,1.128585,5.024674,-5.405823,-0.059033,0.608655,-0.054364,99.055316,188.420772,1575.443883,913.626609,0
0.003125,-124.946534,192.379208,-38.778788,2.181588,1.410476,-5.954369,3.927463,-1.359898,5.914373,-3.907970,-0.051727,0.593761,-0.095440,98.252306,188.496167,1574.481768,913.747875,0
0.004167,-172.244761,163.312553,36.500568,3.617958,3.771411,-6.275825,1.983419,-3.668269,6.350829,-1.983175,-0.102869,0.599640,-0.046895,82.780227,188.496085,1573.808881,913.130124,0
0.005208,-180.502101,101.216706,101.808334,4.816818,5.358385,-5.184464,-0.609883,-5.300302,5.393983,0.389909,-0.172276,0.596635,-0.031958,48.476997,188.496201,1573.067740,913.214116,0
0.006250,-185.946501,13.316048,148.502463,5.721618,6.409268,-3.724025,-2.923332,-6.314809,3.891567,2.770108,-0.216112,0.556787,-0.065566,6.765718,188.420755,1571.897588,913.158582,0
0.007292,-149.412307,-62.576191,175.548864,6.264498,6.235304,-1.537336,-4.673345,-6.252321,1.797417,4.367582,-0.274560,0.605911,-0.039427,-30.082261,188.496082,1570.439425,913.327249,0
0.008333,-68.631019,-114.209974,200.182387,6.716898,5.273179,1.252579,-6.147236,-5.296626,-1.001777,5.972170,-0.281866,0.611529,-0.039427,-55.552380,188.495942,1570.375731,914.148669,0
0.009375,2.270952,-162.461105,171.929546,6.207948,3.583246,3.264651,-6.337536,-3.675621,-3.037173,6.125158,-0.285519,0.608001,-0.050629,-80.909400,188.496107,1568.988216,915.087942,0
0.010417,73.036812,-194.173478,123.388826,5.314458,1.211660,5.248943,-5.751711,-1.256977,-5.022209,5.587923,-0.281866,0.615514,-0.024490,-94.967729,188.420658,1568.932472,915.398269,0
0.011458,124.622505,-192.240533,40.575379,3.697128,-1.255783,6.126000,-4.083788,1.242533,-5.983251,4.061607,-0.230724,0.602057,-0.050629,-92.049750,188.496147,1567.858176,915.705181,0
0.012500,172.192952,-163.161797,-36.415152,2.283378,-3.598967,6.451424,-2.083774,3.617068,-6.377740,2.119022,-0.186888,0.594414,-0.054364,-77.923560,188.495977,1567.473010,915.855041,0
0.013542,180.257470,-100.244449,-101.821402,1.118448,-5.235645,5.399749,0.461020,5.252776,-5.391518,-0.264735,-0.113828,0.591540,-0.058098,-44.423341,188.495863,1567.293645,916.359055,0
0.014583,185.747240,-14.312979,-148.503220,0.123168,-6.297178,3.899624,2.785664,6.274635,-3.931069,-2.620029,-0.059033,0.602710,-0.031958,-2.791231,188.417659,1567.276677,916.244235,0
0.015625,149.224388,62.581975,-175.709660,-0.385782,-6.098363,1.716903,4.576721,6.237877,-1.794952,-4.299333,-0.033462,0.560053,-0.050629,35.527048,188.495810,1567.336822,916.808001,0
0.016667,67.093342,114.698995,-200.133902,-0.838182,-5.161089,-1.076980,6.087926,5.190289,1.042012,-5.864786,-0.033462,0.590821,-0.054364,61.992447,188.495620,1568.064116,916.442930,0
0.017710,-1.959801,163.191743,-171.622538,-0.329232,-3.467606,-3.112863,6.289420,3.613392,3.073212,-6.071141,0.006721,0.620609,-0.043161,85.347597,188.495770,1568.713454,916.761599,0
0.018763,-73.791856,193.720188,-122.478599,0.552948,-0.993063,-5.085250,5.591654,1.069773,5.066641,-5.459191,-0.029809,0.605519,-0.024490,100.050596,188.420260,1569.313944,917.124969,0
0.019795,-124.991904,192.427531,-38.680303,2.204208,1.463730,-6.037710,3.923732,-1.370925,5.989913,-3.915086,-0.077298,0.597745,-0.058098,98.659466,188.495721,1570.316928,917.414270,0
0.020833,-172.154021,163.819950,35.835796,3.606648,3.789162,-6.263919,1.912523,-3.716054,6.392796,-1.979617,-0.106522,0.604996,-0.046895,82.814157,188.495752,1571.511287,917.167694,0
0.021875,-180.819691,101.132140,101.426705,4.760268,5.429391,-5.212244,-0.636003,-5.326032,5.406573,0.457508,-0.154011,0.588861,-0.039427,51.100917,188.495582,1572.382108,916.534504,0
0.022917,-186.332146,13.436857,148.157766,5.698998,6.469622,-3.704182,-2.945720,-6.414054,3.853797,2.784340,-0.197847,0.608263,-0.035692,7.025848,188.420202,1573.685206,916.271965,0
0.023958,-149.378280,-61.923822,176.102841,6.298428,6.302759,-1.521461,-4.721853,-6.303782,1.755450,4.492106,-0.259948,0.605323,-0.039427,-29.663791,188.495759,1575.938798,915.724518,0
0.025000,-68.982636,-113.895871,200.490152,6.739518,5.262528,1.304170,-6.247983,-5.252517,-1.073121,6.000633,-0.289172,0.609700,-0.069301,-56.038710,188.495718,1576.821955,914.440901,0
0.026042,2.418404,-162.545671,172.077273,6.219258,3.544193,3.355928,-6.386044,-3.602106,-3.133697,6.135831,-0.259948,0.590560,-0.058098,-80.095080,188.495629,1577.988858,913.126357,0
0.027083,72.537742,-194.173478,124.152084,5.348388,1.151306,5.264817,-5.751711,-1.187138,-5.047389,5.598597,-0.248989,0.612901,-0.039427,-94.752839,188.345003,1578.974560,912.097048,0
0.028125,124.645190,-192.313019,40.649243,3.719748,-1.301937,6.185528,-4.042743,1.286642,-6.062989,4.036702,-0.248989,0.605780,-0.054364,-94.764149,188.495676,1580.255904,911.684191,0
0.029167,171.705224,-163.500063,-36.476705,2.305998,-3.677073,6.467298,-2.091237,3.620743,-6.402921,2.083444,-0.186888,0.599836,-0.043161,-78.975390,188.495618,1580.617046,911.273936,0
0.030208,180.348210,-100.655200,-101.341288,1.095828,-5.274698,5.391812,0.513259,5.274831,-5.433485,-0.303871,-0.135746,0.596635,-0.046895,-45.384691,188.495627,1581.536449,911.065295,0
0.031250,185.974090,-14.820377,-148.417046,0.179718,-6.332681,3.848033,2.852828,6.278311,-3.889102,-2.684071,-0.080951,0.603494,-0.046895,-3.073981,188.420249,1582.334119,909.932531,0
0.032292,149.258416,62.859836,-175.549622,-0.363162,-6.112564,1.701029,4.625229,6.223174,-1.811739,-4.342027,-0.069992,0.563254,-0.046895,34.837138,188.495645,1582.593948,909.947047,0
0.033333,67.898660,114.300325,-200.207766,-0.838182,-5.161089,-1.100791,6.117777,5.216019,1.025226,-5.879017,-0.007891,0.590821,-0.099175,59.764377,188.495839,1583.032420,910.084346,0
0.034375,-1.256566,162.611860,-172.176516,-0.340542,-3.453405,-3.184298,6.296883,3.587662,3.022851,-6.078256,-0.000585,0.619956,-0.020755,85.098777,188.495631,1582.811565,909.680086,0
0.035417,-72.328674,194.360476,-123.660417,0.496398,-1.042766,-5.093187,5.602848,1.139612,5.058247,-5.484096,-0.018850,0.609439,-0.035692,99.236276,188.420273,1583.305586,910.087102,0
0.036458,-124.356724,192.874525,-40.083712,2.170278,1.460180,-5.974212,3.998359,-1.385628,6.015093,-3.932875,-0.037115,0.599444,-0.061832,98.501126,188.495785,1584.252760,909.646885,0
0.037500,-172.426241,163.759546,34.949432,3.561408,3.796263,-6.279793,1.942374,-3.723405,6.413779,-2.036543,-0.077298,0.605584,-0.031958,82.983807,188.495629,1584.586051,910.226145,0
0.038542,-180.638211,101.422081,101.229735,4.748958,5.393888,-5.216213,-0.647197,-5.326032,5.410770,0.407698,-0.146705,0.584942,-0.035692,48.443067,188.495626,1584.337200,910.618058,0
0.039583,-186.332146,14.004660,148.182387,5.721618,6.505125,-3.763711,-2.983034,-6.414054,3.870583,2.770108,-0.216112,0.600946,-0.024490,7.478248,188.420175,1584.365507,910.756229,0
0.040625,-150.353735,-61.428505,175.659660,6.275808,6.288558,-1.501618,-4.740509,-6.362594,1.814204,4.474317,-0.234377,0.612117,-0.061832,-29.618551,188.495693,1584.775656,911.604780,0
0.041667,-69.232171,-113.775062,200.600948,6.716898,5.290930,1.296233,-6.210669,-5.281923,-0.997580,5.979286,-0.292825,0.606434,-0.031958,-55.314870,188.495582,1584.205907,912.529829,0
0.042708,2.168869,-162.062435,172.606629,6.230568,3.615199,3.320211,-6.374849,-3.657242,-3.058156,6.203431,-0.259948,0.610027,-0.013287,-80.762370,188.489741,1584.280729,913.799086,0
0.043750,71.777795,-194.523824,124.373675,5.348388,1.179708,5.256880,-5.718128,-1.260653,-5.076766,5.598597,-0.259948,0.609112,-0.050629,-95.159999,188.480012,1584.568031,914.316361,0
0.044792,124.316257,-192.820417,40.747727,3.731058,-1.284185,6.169654,-4.080057,1.271939,-6.054595,4.047375,-0.259948,0.597745,-0.054364,-92.343810,188.495305,1584.572700,914.435888,0
0.045833,171.977444,-163.367173,-35.873485,2.328618,-3.698375,6.487141,-2.106162,3.620743,-6.415511,2.094118,-0.186888,0.597615,-0.031958,-78.093210,188.495526,1584.761815,914.537884,0
0.046875,180.495662,-101.549187,-100.885796,1.107138,-5.271148,5.435466,0.494603,5.267479,-5.450271,-0.314545,-0.164970,0.599901,-0.050629,-45.090631,188.494319,1585.189901,914.290083,0
0.047917,185.872007,-14.868701,-147.875379,0.191028,-6.322030,3.923436,2.878948,6.348150,-3.905888,-2.662724,-0.095563,0.595002,-0.046895,-2.689441,188.491344,1585.662503,914.739043,0
0.048958,149.383183,62.581975,-175.574243,-0.351852,-6.183569,1.693092,4.670006,6.311392,-1.790755,-4.374048,-0.088257,0.563384,-0.046895,35.266918,188.495984,1586.950402,915.005437,0
0.050000,68.579210,113.998302,-200.257008,-0.838182,-5.182391,-1.069043,6.147628,5.230722,1.033619,-5.896806,0.010374,0.619107,-0.058098,61.607907,188.496029,1587.527599,914.847115,0
0.051042,-0.893606,162.636022,-172.311932,-0.363162,-3.464056,-3.192235,6.319271,3.583986,3.119375,-6.135182,-0.011544,0.623418,-0.073035,85.110087,188.495966,1589.290053,914.451117,0
0.052083,-72.362701,194.312152,-124.103599,0.575568,-0.996613,-5.180496,5.632699,1.183721,5.062444,-5.505443,-0.011544,0.600162,-0.058098,100.299416,188.420544,1589.444057,915.067971,0
0.053125,-124.288669,193.116143,-40.613068,2.170278,1.499233,-6.029773,3.938657,-1.422386,6.065454,-3.939991,-0.044421,0.601534,-0.043161,98.987456,188.495901,1590.586303,914.845921,0
0.054167,-172.369528,164.327348,34.937121,3.538788,3.888570,-6.331385,1.890135,-3.767514,6.464139,-1.947596,-0.069992,0.597419,-0.054364,82.915947,188.496027,1591.918647,913.893062,0
0.055208,-181.012514,100.950926,100.786553,4.794198,5.496846,-5.196370,-0.688242,-5.406899,5.410770,0.532223,-0.150358,0.584092,-0.084238,51.202707,188.495969,1593.600282,912.574804,0
0.056250,-186.502284,14.741595,147.788447,5.721618,6.554829,-3.688308,-3.035273,-6.465515,3.866387,2.869728,-0.227071,0.592781,-0.087972,7.749688,188.495993,1595.309774,911.661490,0
0.057292,-150.081515,-60.921107,176.152084,6.253188,6.285008,-1.430184,-4.815137,-6.358918,1.705090,4.556147,-0.248989,0.611660,-0.065566,-29.403661,188.495977,1596.681612,910.041578,0
0.058333,-68.517594,-113.364311,200.921023,6.739518,5.248327,1.331950,-6.311416,-5.234139,-1.161251,6.043327,-0.274560,0.574294,-0.046895,-55.744650,188.496054,1598.312673,908.081571,0
0.059375,1.749197,-162.424862,172.532766,6.207948,3.540643,3.415457,-6.438283,-3.587403,-3.179861,6.249683,-0.267254,0.608001,-0.035692,-80.015910,188.495969,1600.213678,906.781296,0
0.060417,71.324095,-194.463420,125.050758,5.325768,1.101602,5.340220,-5.762905,-1.190814,-5.139716,5.591481,-0.270907,0.613358,-0.035692,-94.967729,188.496096,1601.477359,905.531981,0
0.061458,123.975982,-192.989549,40.341477,3.719748,-1.408445,6.213309,-4.035281,1.382212,-6.088169,4.015355,-0.234377,0.598137,-0.058098,-95.092139,188.495957,1602.614112,904.317106,0
0.062500,171.625827,-164.079946,-35.541099,2.328618,-3.758729,6.503015,-1.979296,3.712637,-6.440691,2.058539,-0.168623,0.599379,-0.017021,-79.224210,188.495977,1604.158320,903.359835,0
0.063542,180.733855,-101.754562,-100.344129,1.084518,-5.359905,5.312440,0.606544,5.337319,-5.370534,-0.407049,-0.132093,0.596178,-0.073035,-45.746611,188.502493,1605.208303,901.321590,0
0.064583,186.200940,-14.723730,-147.764584,0.157098,-6.357533,3.816284,2.934919,6.381232,-3.855528,-2.769459,-0.073645,0.574882,-0.050629,-2.960881,188.495873,1606.608803,900.100191,0
0.065625,149.417211,62.183305,-175.721970,-0.363162,-6.130315,1.629594,4.677468,6.234202,-1.723608,-4.409626,-0.022503,0.584092,-0.050629,34.249018,188.495671,1606.677233,898.444393,0
0.066667,69.225732,113.515066,-200.552463,-0.849492,-5.143338,-1.144446,6.128971,5.212343,1.104963,-5.967963,-0.022503,0.613031,-0.065566,59.357217,188.495763,1608.277865,897.368150,0
0.067708,-1.165826,162.346080,-172.558144,-0.363162,-3.425003,-3.243827,6.315540,3.558256,3.140359,-6.074699,-0.029809,0.595916,-0.076769,84.974367,188.495700,1607.838553,896.548180,0
0.068750,-71.965714,194.674579,-124.177463,0.564258,-0.968211,-5.144778,5.617773,1.084476,5.125394,-5.476980,-0.040768,0.603429,-0.087972,99.360686,188.571029,1608.991691,894.991146,0
0.069792,-124.027791,193.164466,-41.228599,2.158968,1.513434,-6.037710,3.931194,-1.448116,6.031880,-3.897296,-0.069992,0.605911,-0.061832,98.636846,188.495694,1608.825228,893.881260,0
0.070833,-172.290131,164.061569,34.703220,3.550098,3.845967,-6.311542,1.897598,-3.774866,6.413779,-1.936923,-0.088257,0.596766,-0.076769,83.029047,188.495635,1608.338208,893.240811,0
0.071875,-180.819691,101.252949,100.528031,4.782888,5.493296,-5.228119,-0.684510,-5.406899,5.372999,0.517991,-0.157664,0.589645,-0.046895,48.737127,188.495613,1608.050606,892.783091,0
0.072918,-186.547654,15.261074,147.911553,5.710308,6.544178,-3.672434,-3.061393,-6.428757,3.845403,2.848381,-0.201500,0.598791,-0.076769,8.077678,188.507202,1607.567114,892.406558,0
0.073960,-150.659982,-60.896945,175.807387,6.264498,6.253055,-1.446058,-4.781554,-6.329512,1.730270,4.499222,-0.256295,0.601273,-0.031958,-29.641171,188.498908,1606.693477,892.492022,0
0.075000,-68.608334,-113.195178,200.957955,6.762138,5.258977,1.355762,-6.274102,-5.245166,-1.110891,6.057559,-0.292825,0.565083,-0.035692,-54.998190,188.496123,1606.572243,893.042740,0
0.076042,0.864482,-162.074516,172.926705,6.219258,3.565495,3.395614,-6.445745,-3.642539,-3.167270,6.203431,-0.263601,0.613815,-0.031958,-80.717130,188.496047,1606.244224,893.057643,0
0.077083,70.790997,-194.813766,124.890720,5.314458,1.140655,5.316409,-5.718128,-1.194489,-5.106143,5.573692,-0.241683,0.609700,-0.073035,-95.363579,188.571386,1605.782915,892.877569,0
0.078125,123.601680,-193.376138,40.661553,3.753678,-1.440398,6.213309,-4.057669,1.385887,-6.083972,3.990450,-0.238030,0.598464,-0.035692,-92.570010,188.496031,1605.884532,892.337121,0
0.079167,171.954759,-163.947056,-34.630114,2.339928,-3.751629,6.514921,-2.016609,3.723664,-6.419707,2.051423,-0.175929,0.601338,-0.039427,-78.398580,188.475207,1605.945957,891.823733,0
0.080208,180.790567,-102.310284,-100.122538,1.129758,-5.359905,5.407686,0.602812,5.377752,-5.454468,-0.375028,-0.179582,0.599901,-0.043161,-45.215041,188.627729,1606.945518,892.857727,0
0.081250,186.280337,-14.216332,-147.358334,0.236268,-6.346882,3.844064,2.949844,6.406962,-3.842938,-2.751670,-0.066339,0.591409,-0.073035,-2.565031,188.572219,1606.879183,892.970384,0
0.082292,149.870911,61.567179,-175.808144,-0.363162,-6.176469,1.653406,4.714782,6.259932,-1.723608,-4.434531,-0.048074,0.602253,-0.076769,34.667488,188.445688,1607.658897,892.849229,0
0.083340,68.930827,113.696280,-200.909470,-0.838182,-5.153989,-1.215880,6.192404,5.179261,1.130143,-5.957290,-0.033462,0.616494,-0.073035,61.573977,188.507526,1607.602807,892.410615,0
0.084375,-1.143141,162.346080,-172.841288,-0.363162,-3.407252,-3.243827,6.293151,3.503119,3.186522,-6.117393,-0.011544,0.603821,-0.046895,85.042227,188.495828,1608.638985,891.720953,0
0.085417,-71.568726,194.517528,-124.842235,0.598188,-0.961110,-5.168590,5.632699,1.073449,5.150575,-5.509001,-0.040768,0.592911,-0.054364,100.435136,188.571143,1609.434905,891.559546,0
0.086458,-123.721544,193.418165,-41.671780,2.113728,1.570238,-6.037710,3.920000,-1.481198,6.136797,-3.904412,-0.055380,0.599509,-0.065566,99.213656,188.495703,1611.156447,891.472304,0
0.087500,-171.915828,164.556886,35.023296,3.527478,3.945375,-6.347259,1.841627,-3.800596,6.426369,-1.865766,-0.117481,0.594544,-0.050629,83.017737,188.495886,1611.746334,890.551536,0
0.088542,-181.159966,101.349596,100.023296,4.805508,5.546550,-5.224150,-0.721824,-5.480414,5.427556,0.596264,-0.157664,0.592389,-0.073035,51.632487,188.516441,1613.568304,890.150612,0
0.089583,-186.853901,15.949685,147.603788,5.687688,6.579681,-3.680371,-3.124826,-6.498597,3.853797,2.880402,-0.201500,0.602645,-0.061832,8.213398,188.524033,1614.899708,890.009492,0
0.090625,-150.319707,-60.619084,176.078220,6.230568,6.302759,-1.410341,-4.859913,-6.355242,1.675713,4.595284,-0.245336,0.592323,-0.046895,-29.381041,188.444058,1616.398140,889.266754,0
0.091667,-68.540279,-112.760266,201.154925,6.750828,5.287380,1.407354,-6.341267,-5.281923,-1.165448,6.125158,-0.281866,0.610222,-0.054364,-55.382730,188.509050,1617.824817,889.113091,0
0.092708,0.217959,-162.159082,173.049811,6.230568,3.526442,3.455143,-6.453208,-3.620484,-3.213434,6.263914,-0.248989,0.614795,-0.061832,-79.925430,188.515565,1619.149916,888.744003,0
0.093750,70.790997,-194.668795,125.247728,5.359698,1.051898,5.360063,-5.729322,-1.106271,-5.181683,5.573692,-0.300131,0.604866,-0.054364,-95.126069,188.578354,1620.522786,887.549894,0
0.094792,123.295432,-193.424462,40.907765,3.753678,-1.454599,6.245057,-4.001698,1.422645,-6.092365,3.972661,-0.219765,0.597353,-0.058098,-95.239169,188.499162,1620.921141,886.862118,0
0.095833,171.716567,-164.394050,-34.186932,2.362548,-3.840386,6.518889,-2.001684,3.760422,-6.470068,2.012287,-0.205153,0.604996,-0.039427,-79.393860,188.495401,1622.049957,886.323942,0
0.096875,180.892650,-102.080747,-99.765531,1.095828,-5.430910,5.395780,0.658783,5.396131,-5.429288,-0.431954,-0.124787,0.584746,-0.061832,-45.678751,188.495430,1622.408128,885.383453,0
0.097926,186.337050,-13.201536,-147.863069,0.168408,-6.435639,3.836127,3.005815,6.429016,-3.809364,-2.861963,-0.091910,0.595132,-0.013287,-2.723371,188.646196,1623.536448,884.761151,0
0.098967,149.303786,61.712150,-176.448296,-0.408402,-6.176469,1.578003,4.744633,6.241553,-1.639674,-4.519920,-0.044421,0.610614,-0.046895,34.000198,188.570832,1624.603030,883.618939,0
0.100006,69.350500,113.321772,-200.995645,-0.872112,-5.139787,-1.247629,6.218524,5.208667,1.197290,-5.982195,-0.051727,0.620217,-0.069301,59.413767,188.495369,1625.699792,883.087924,0
0.101046,-1.903088,162.297757,-172.595076,-0.363162,-3.382400,-3.283513,6.323002,3.543553,3.194916,-6.099604,-0.011544,0.586575,-0.061832,84.996987,188.495289,1625.346368,883.658942,0
0.102088,-71.285164,194.795388,-124.719129,0.530328,-0.943359,-5.200339,5.621505,1.066097,5.175755,-5.541022,-0.029809,0.608524,-0.069301,99.383306,188.646060,1625.986714,883.822460,0
0.103129,-123.642146,193.176547,-41.290152,2.125038,1.609291,-6.089301,3.882686,-1.514280,6.124207,-3.819024,-0.055380,0.598464,-0.046895,98.693396,188.570606,1625.647467,882.550863,0
0.104171,-171.813746,164.134054,35.404924,3.584028,3.952475,-6.319479,1.830433,-3.830002,6.413779,-1.904902,-0.080951,0.593891,-0.024490,83.040357,188.495349,1625.541522,882.916932,0
0.105221,-180.989829,100.781793,100.688068,4.794198,5.560751,-5.212244,-0.777795,-5.498793,5.393983,0.599822,-0.161317,0.597484,-0.065566,48.612717,188.495211,1625.343802,882.852200,0
0.106264,-186.842559,15.116103,148.194697,5.698998,6.590332,-3.612905,-3.121095,-6.498597,3.845403,2.944443,-0.212459,0.599836,-0.087972,7.512178,188.646056,1625.853982,882.751627,0
0.107299,-150.262995,-61.464747,175.832008,6.264498,6.316960,-1.422247,-4.830062,-6.318485,1.667320,4.602399,-0.256295,0.580500,-0.046895,-29.697721,188.570665,1625.471522,882.602378,0
0.108343,-68.494909,-113.086450,201.265720,6.796068,5.287380,1.395448,-6.311416,-5.296626,-1.173841,6.089579,-0.296478,0.611529,-0.069301,-54.975570,188.495296,1625.223097,882.773182,0
0.109380,-0.281111,-161.857060,173.123675,6.275808,3.554844,3.423394,-6.408432,-3.701351,-3.150484,6.256798,-0.285519,0.616886,-0.050629,-80.671890,188.570658,1624.576824,883.795046,0
0.110422,70.893080,-194.946656,124.706061,5.337078,1.087401,5.340220,-5.736785,-1.161408,-5.164896,5.619944,-0.267254,0.598660,-0.046895,-95.431439,188.570687,1624.373223,885.083500,0
