1-Time,2-VGERA,3-VGERB,4-VGERC,5-VN,6-IGERAN,7-IGERBN,8-IGERCN,9-IGERAT,10-IGERBT,11-IGERCT,12-IN,13-IFD,14-IFAULT,15-VFAULT,16-Speed (rad/s),17-Active Power,18-Reactive Power,19-FAULT 
0.000000,178.728020,-126.084092,-0.481052,0.303010,-5.076497,0.417947,5.117465,5.541420,-0.299504,-5.532533,-0.053887,0.194249,-0.014723,176.627065,188.646455,960.290828,-1270.131186,0
0.001042,190.197445,-71.411070,-59.756907,-0.890476,-3.417896,-2.228785,5.813368,3.911102,2.350535,-6.244599,-0.104934,0.198521,0.003860,184.519151,188.495966,959.682871,-1269.497621,0
0.002083,168.546788,-25.828685,-143.214588,-2.421741,-1.759294,-4.159735,5.937084,2.251143,4.237752,-6.229368,-0.090349,0.200795,-0.014723,163.162109,188.571265,959.705831,-1269.251807,0
0.003125,113.730850,18.450003,-186.438084,-3.288707,0.537796,-5.237571,4.587806,-0.068354,5.322460,-4.820466,-0.079410,0.193629,0.003860,107.050619,188.495946,959.132759,-1268.411402,0
0.004167,60.553401,86.218711,-193.109352,-3.378782,2.959648,-6.361184,3.172803,-2.458251,6.363074,-3.422988,-0.039302,0.185017,-0.014723,56.984849,188.571232,959.027063,-1268.772073,0
0.005208,17.116488,150.593111,-151.878730,-2.658186,4.743012,-5.899254,0.876324,-4.266421,5.851586,-1.100205,0.044560,0.197143,-0.033307,14.709841,188.495872,958.002090,-1269.177792,0
0.006250,-33.428078,199.323158,-89.005980,-1.509738,6.067692,-4.575888,-1.563202,-5.578086,4.449402,1.344430,0.099252,0.198521,-0.022156,-36.076462,188.571246,958.015765,-1269.074008,0
0.007292,-106.662894,173.519371,-43.206330,-0.620253,6.423630,-2.545062,-3.708902,-5.915265,2.412267,3.450166,0.106545,0.186670,-0.014723,-109.142989,188.495859,957.613758,-1270.065735,0
0.008333,-178.496519,126.457115,0.831328,0.291750,5.968616,-0.372743,-5.185762,-5.448401,0.256078,4.767679,0.110191,0.194318,0.011294,-175.814787,188.646694,957.521832,-1269.967018,0
0.009375,-190.090242,71.572683,60.435278,1.462718,4.365056,2.236536,-5.881665,-3.825495,-2.411599,5.510209,0.164883,0.196316,0.037311,-184.157206,188.495825,957.442943,-1270.146252,0
0.010417,-168.755983,25.767144,143.601319,2.993982,2.662421,4.225747,-5.986050,-2.139598,-4.250312,5.475938,0.143006,0.201002,-0.022156,-162.743872,188.571225,957.525453,-1269.325311,0
0.011458,-113.714047,-18.488054,186.618237,3.849689,0.317628,5.291098,-4.586513,0.239183,-5.370295,4.067037,0.128422,0.209063,-0.003573,-106.069466,188.495897,957.485858,-1269.378634,0
0.012500,-60.536598,-86.503408,193.204443,3.962282,-2.126241,6.339804,-3.179243,2.606849,-6.415319,2.673366,0.106545,0.196523,-0.018440,-56.172571,188.571359,957.772370,-1270.235482,0
0.013542,-17.009286,-150.901298,151.949518,3.219168,-3.876580,5.882035,-0.925291,4.426135,-5.820052,0.339159,0.029975,0.197832,-0.022156,-13.807496,188.571254,957.737512,-1270.726448,0
0.014583,33.896877,-199.631345,89.149678,2.014423,-5.179243,4.512892,1.525833,5.648873,-4.439915,-2.101667,-0.002841,0.194525,-0.022156,36.945032,188.571313,957.269437,-1270.618970,0
0.015625,106.916995,-173.592657,43.167753,1.192494,-5.483809,2.573620,3.632872,6.026810,-2.398371,-4.169325,-0.042949,0.189633,-0.037023,109.572484,188.495772,957.197332,-1270.410402,0
0.016667,178.694121,-126.307247,-1.015726,0.269232,-5.069158,0.372171,5.105867,5.530304,-0.273048,-5.513493,-0.079410,0.195972,0.011294,176.424415,188.571194,956.999645,-1270.297412,0
0.017708,190.061845,-71.317110,-60.364490,-0.901736,-3.417896,-2.241270,5.809502,3.907397,2.354945,-6.214136,-0.090349,0.196730,-0.018440,184.744317,188.495873,956.977928,-1269.939680,0
0.018750,168.637187,-25.523315,-143.323953,-2.455519,-1.715260,-4.184704,5.886824,2.232617,4.277436,-6.214136,-0.108580,0.203344,-0.011006,162.959459,188.571151,956.717127,-1270.279657,0
0.019792,113.583951,18.802353,-186.462387,-3.288707,0.570821,-5.266702,4.541412,-0.105407,5.335688,-4.797619,-0.075764,0.198039,-0.003573,106.273795,188.495921,956.334593,-1270.510658,0
0.020833,59.999705,86.676766,-192.951380,-3.367522,2.944970,-6.369507,3.145740,-2.432314,6.393940,-3.388718,-0.042949,0.198590,-0.014723,55.960342,188.495913,956.509285,-1270.318733,0
0.021875,16.461093,150.499151,-151.635696,-2.691964,4.750351,-5.803539,0.868592,-4.247895,5.798673,-1.123052,0.000805,0.197763,-0.040740,13.707850,188.495910,956.393913,-1269.425007,0
0.022917,-34.015674,199.499333,-88.398397,-1.464701,6.049344,-4.513465,-1.570934,-5.585496,4.392080,1.367277,0.062790,0.189289,-0.014723,-36.695670,188.571342,955.963114,-1269.352222,0
0.023958,-106.821093,173.495881,-42.331409,-0.575216,6.412622,-2.511769,-3.701170,-5.859686,2.346126,3.450166,0.102898,0.186877,-0.003573,-109.154247,188.495904,955.118505,-1268.798665,0
0.025000,-178.824217,125.658455,1.572580,0.303010,5.942930,-0.368582,-5.154833,-5.374296,0.256078,4.760064,0.121129,0.192940,0.000144,-176.265120,188.571223,954.722457,-1267.967492,0
0.026042,-190.158042,70.668317,60.848435,1.485236,4.295336,2.236536,-5.862334,-3.766210,-2.398371,5.453091,0.150299,0.194456,0.000144,-184.112172,188.495971,954.142865,-1266.922051,0
0.027083,-168.371786,24.909758,143.965869,3.027760,2.603709,4.171647,-5.935791,-2.106251,-4.276768,5.434052,0.143006,0.199899,0.011294,-162.327314,188.571181,953.698972,-1266.693631,0
0.028125,-113.092551,-19.181010,186.581782,3.838430,0.280933,5.241160,-4.547851,0.254004,-5.317383,4.002303,0.106545,0.207961,0.000144,-105.675425,188.495904,952.997507,-1265.688785,0
0.029167,-59.395306,-86.984953,193.107230,3.951023,-2.100555,6.331481,-3.186975,2.606849,-6.388863,2.620057,0.066437,0.195834,0.026161,-55.114289,188.571180,952.583985,-1265.094393,0
0.030208,-15.641995,-150.819083,151.694333,3.174131,-3.854563,5.823774,-0.886630,4.396492,-5.775959,0.339159,0.040913,0.199210,-0.011006,-12.715438,188.495904,952.529045,-1264.068578,0
0.031250,34.563573,-199.819265,88.274758,2.014423,-5.120531,4.467115,1.525833,5.689630,-4.409050,-2.094052,-0.028364,0.188600,0.015011,37.586756,188.495790,952.775454,-1264.026117,0
0.032292,107.414192,-173.510442,42.061951,1.124939,-5.458123,2.502874,3.613542,5.993462,-2.393961,-4.184557,-0.039302,0.186877,-0.007290,109.831425,188.495870,952.864058,-1263.584293,0
0.033333,179.021818,-125.508586,-1.647613,0.269232,-5.032464,0.380494,5.125197,5.548830,-0.255410,-5.528725,-0.083057,0.193698,0.007577,176.739648,188.571330,953.219300,-1263.584525,0
0.034375,189.994046,-70.342274,-60.826254,-0.890476,-3.392209,-2.253754,5.817234,3.888871,2.381401,-6.240791,-0.090349,0.195352,-0.011006,184.485376,188.495935,953.295830,-1263.691804,0
0.035417,168.083491,-24.536734,-143.688503,-2.500556,-1.652879,-4.180543,5.867493,2.199269,4.303892,-6.168442,-0.097641,0.166552,0.018727,162.599193,188.495725,952.832244,-1263.344696,0
0.036458,112.770356,19.530544,-186.571752,-3.299967,0.622194,-5.295832,4.483420,-0.112817,5.379782,-4.812851,-0.050241,0.190942,0.018727,105.665845,188.494893,953.345594,-1263.522868,0
0.037500,59.174810,87.146567,-192.951380,-3.423819,2.996343,-6.361184,3.083882,-2.465662,6.341028,-3.316369,-0.013779,0.190873,0.000144,55.419942,188.495834,952.357559,-1263.189412,0
0.038542,15.783097,151.074657,-151.015961,-2.646927,4.816401,-5.803539,0.841529,-4.281242,5.798673,-1.084973,0.044560,0.186119,-0.025873,13.325067,188.495978,952.330531,-1263.437793,0
0.039583,-34.478971,199.581548,-87.802965,-1.453441,6.097047,-4.500980,-1.632792,-5.541033,4.422946,1.371085,0.077375,0.176611,-0.014723,-37.112228,188.495908,952.718332,-1262.812585,0
0.040625,-107.532988,173.049570,-41.347124,-0.563957,6.397944,-2.499285,-3.724366,-5.893033,2.385810,3.461590,0.102898,0.183846,0.011294,-110.021138,188.495749,953.767949,-1262.676235,0
0.041667,-179.005016,125.364829,2.362439,0.325528,5.913574,-0.351936,-5.143235,-5.329833,0.225212,4.737217,0.095606,0.190804,0.015011,-176.118762,188.571252,953.346830,-1262.183502,0
0.042708,-189.852944,69.904892,61.492474,1.473977,4.258641,2.290636,-5.854602,-3.751389,-2.393961,5.498785,0.146652,0.192527,-0.007290,-184.089656,188.495888,953.718134,-1262.198974,0
0.043750,-168.157087,24.075862,144.026628,3.050279,2.607379,4.200778,-5.924192,-2.087724,-4.285587,5.434052,0.110191,0.183432,-0.011006,-162.271023,188.495888,953.727886,-1262.060760,0
0.044792,-112.165957,-19.733025,186.970635,3.838430,0.302950,5.286937,-4.513056,0.287352,-5.374705,3.990880,0.117483,0.193354,-0.011006,-105.112508,188.495933,953.800632,-1262.533351,0
0.045833,-58.581711,-87.595694,192.900651,3.962282,-2.118902,6.352288,-3.113518,2.629080,-6.335950,2.570555,0.113837,0.177576,-0.022156,-55.057997,188.420522,953.135283,-1262.002403,0
0.046875,-15.189998,-151.523783,150.989536,3.219168,-3.839885,5.827935,-0.863433,4.407608,-5.758321,0.323928,0.055498,0.170203,0.007577,-12.771730,188.495913,953.165385,-1261.831490,0
0.047917,34.959070,-199.678325,88.068180,2.003164,-5.098514,4.512892,1.587691,5.678515,-4.391412,-2.135938,0.000805,0.179367,-0.018440,37.924506,188.495850,952.762650,-1261.887415,0
0.048958,107.741889,-172.993662,41.891827,1.124939,-5.458123,2.498712,3.671534,5.971231,-2.354277,-4.195980,-0.042949,0.187291,-0.003573,110.709575,188.495982,952.227416,-1261.703106,0
0.050000,179.089618,-125.426371,-2.170134,0.212935,-4.984761,0.368009,5.090402,5.508072,-0.220135,-5.498262,-0.075764,0.196592,0.011294,176.660840,188.495942,951.672792,-1261.285011,0
0.051042,189.734148,-69.919453,-61.494596,-0.890476,-3.315150,-2.299531,5.809502,3.848113,2.438723,-6.217944,-0.108580,0.191907,-0.011006,184.609217,188.496024,951.023137,-1261.319427,0
0.052083,168.083491,-24.595459,-144.016598,-2.433000,-1.645540,-4.238804,5.817234,2.169627,4.268617,-6.137980,-0.075764,0.176611,0.003860,162.587934,188.495879,950.611998,-1260.888234,0
0.053125,112.612157,19.718464,-186.705421,-3.254929,0.644211,-5.245894,4.467956,-0.142459,5.313641,-4.744309,-0.053887,0.198728,0.007577,106.048628,188.495864,949.576532,-1260.137690,0
0.054167,59.220010,87.839522,-192.696195,-3.390041,3.007351,-6.298761,3.083882,-2.473072,6.332209,-3.335408,-0.006487,0.184259,0.015011,55.937825,188.420408,949.910071,-1260.039639,0
0.055208,15.590998,151.274322,-150.979506,-2.658186,4.750351,-5.795216,0.810600,-4.277537,5.732533,-1.088781,0.029975,0.186326,0.000144,13.403875,188.495835,949.460303,-1259.574011,0
0.056250,-34.806669,199.358393,-88.325487,-1.453441,6.027327,-4.451042,-1.625060,-5.518801,4.374442,1.386316,0.051852,0.189426,0.000144,-37.562561,188.495987,948.750846,-1259.479746,0
0.057292,-107.883286,172.885140,-42.088376,-0.586475,6.346572,-2.478477,-3.705036,-5.818928,2.319670,3.457782,0.088314,0.189220,-0.003573,-110.325113,188.495785,947.454782,-1259.164703,0
0.058333,-179.264914,125.435299,2.265226,0.291750,5.898896,-0.318643,-5.143235,-5.355770,0.216394,4.744832,0.121129,0.194387,0.000144,-176.546578,188.420555,947.699624,-1259.512807,0
0.059375,-189.547846,70.515632,62.087905,1.519014,4.218277,2.290636,-5.873933,-3.725452,-2.420418,5.449283,0.172176,0.195076,0.000144,-183.887006,188.495788,947.060488,-1259.369475,0
0.060417,-168.032788,24.639623,144.694970,3.117835,2.559676,4.150839,-5.889397,-2.091430,-4.285587,5.369318,0.150299,0.199693,-0.025873,-161.944531,188.495816,946.609243,-1259.083846,0
0.061458,-113.013452,-19.944435,186.812664,3.770874,0.277263,5.249483,-4.497592,0.298467,-5.361477,3.968033,0.106545,0.210717,-0.022156,-105.405225,188.495942,946.255789,-1259.198039,0
0.062500,-59.700404,-88.206434,192.766983,3.928504,-2.122572,6.310673,-3.101920,2.614259,-6.300675,2.536284,0.073729,0.194181,-0.022156,-55.373230,188.495839,945.756210,-1259.110142,0
0.063542,-15.608095,-151.605999,151.001687,3.151613,-3.876580,5.790482,-0.820905,4.459482,-5.723046,0.240156,0.019036,0.190942,0.003860,-12.524047,188.495837,944.494873,-1260.046073,0
0.064583,35.478867,-199.737050,88.189696,2.014423,-5.157226,4.462954,1.603156,5.637757,-4.382593,-2.162593,0.022683,0.189909,-0.025873,38.464905,188.496002,944.248194,-1259.832653,0
0.065625,108.284286,-172.887957,41.964737,1.124939,-5.447114,2.440451,3.667667,5.978641,-2.349868,-4.260714,-0.050241,0.187153,0.011294,111.047324,188.495873,944.218077,-1260.588383,0
0.066667,179.632014,-125.273686,-2.182286,0.235454,-5.003108,0.334717,5.059473,5.422851,-0.202498,-5.498262,-0.097641,0.194801,0.015011,176.953557,188.420457,943.402624,-1260.321778,0
0.067708,189.485549,-70.342274,-62.102179,-0.912995,-3.340837,-2.287047,5.794037,3.866639,2.412267,-6.221752,-0.075764,0.194732,-0.018440,184.203918,188.495864,943.876526,-1260.185506,0
0.068750,167.959192,-24.372304,-144.429755,-2.489297,-1.671227,-4.213835,5.832698,2.154806,4.268617,-6.172250,-0.079410,0.200037,-0.025873,162.328993,188.495892,944.209285,-1260.420084,0
0.069792,112.453958,20.223499,-186.863393,-3.345004,0.633202,-5.291671,4.471822,-0.146165,5.348916,-4.748117,-0.068472,0.208098,0.015011,105.136704,188.495879,944.535499,-1260.732485,0
0.070833,59.366909,88.297578,-192.368100,-3.468856,3.007351,-6.327892,3.083882,-2.502714,6.323390,-3.293522,-0.028364,0.198797,-0.011006,55.284842,188.420426,943.969570,-1260.938114,0
0.071875,15.715298,151.943787,-150.250406,-2.579371,4.827410,-5.870123,0.768073,-4.336821,5.763398,-1.008817,0.040913,0.196523,0.011294,12.953542,188.495861,943.616157,-1262.045238,0
0.072917,-35.281265,199.546313,-87.693600,-1.464701,6.078700,-4.496819,-1.686918,-5.581791,4.352396,1.435818,0.055498,0.190115,0.011294,-37.911569,188.495843,943.549229,-1262.858241,0
0.073958,-108.674280,172.591515,-41.237759,-0.541438,6.383266,-2.436862,-3.782358,-5.867096,2.315260,3.492052,0.102898,0.185155,-0.018440,-111.304587,188.495821,944.197137,-1263.297818,0
0.075000,-179.581312,124.930264,3.006478,0.314269,5.909904,-0.272866,-5.193494,-5.344654,0.176709,4.798142,0.121129,0.192389,-0.003573,-176.276378,188.495837,944.148148,-1263.817921,0
0.076042,-189.502646,69.493816,62.719792,1.507755,4.221947,2.319766,-5.881665,-3.718042,-2.490968,5.517824,0.121129,0.193009,-0.011006,-183.909522,188.495863,944.402730,-1264.739222,0
0.077083,-168.021488,23.711767,144.646363,3.072797,2.578023,4.250716,-5.897130,-2.054377,-4.303224,5.418820,0.146652,0.199072,0.022444,-161.831948,188.495843,944.648275,-1265.146867,0
0.078125,-111.578361,-20.367256,187.408096,3.860949,0.225891,5.282775,-4.501458,0.313288,-5.427617,4.025150,0.132068,0.205825,-0.007290,-104.076743,188.495848,945.654090,-1265.677008,0
0.079167,-58.355713,-88.699724,192.463191,3.973542,-2.170275,6.323157,-3.078723,2.647606,-6.357997,2.521053,0.091960,0.196937,-0.014723,-54.236139,188.420486,946.045534,-1265.974351,0
0.080208,-15.020499,-152.404659,150.053857,3.140353,-3.909605,5.832097,-0.793843,4.426135,-5.758321,0.274426,0.019036,0.198108,0.026161,-11.983647,188.495810,947.138257,-1265.241246,0
0.081250,35.840465,-199.831010,87.509203,2.003164,-5.175573,4.483762,1.634085,5.671104,-4.364956,-2.185440,0.000805,0.188737,-0.018440,38.768880,188.495915,947.138764,-1265.494747,0
0.082292,108.905782,-172.535606,40.956148,1.091161,-5.425097,2.473743,3.690864,6.023104,-2.341049,-4.249290,-0.035656,0.186050,0.018727,111.857924,188.495837,947.824713,-1265.356505,0
0.083333,179.711114,-124.733415,-3.045055,0.224195,-4.988430,0.318071,5.105867,5.452493,-0.167223,-5.505878,-0.079410,0.193285,0.011294,176.784682,188.420538,948.127991,-1265.461788,0
0.084375,189.417750,-69.156028,-62.563943,-0.901736,-3.333498,-2.295370,5.836564,3.866639,2.421086,-6.217944,-0.090349,0.192114,-0.018440,184.519151,188.495964,948.382072,-1265.048672,0
0.085417,167.778393,-23.491428,-144.563423,-2.455519,-1.638201,-4.217996,5.855895,2.128869,4.312711,-6.118940,-0.086703,0.197212,-0.007290,161.979985,188.495832,947.842137,-1264.954854,0
0.086458,111.470865,20.611084,-187.191488,-3.322485,0.680905,-5.295832,4.448625,-0.212859,5.388601,-4.797619,-0.050241,0.208581,0.011294,104.371138,188.495906,948.181044,-1265.673124,0
0.087500,58.044818,88.790868,-192.270886,-3.390041,3.040377,-6.344538,3.052953,-2.524946,6.327799,-3.312561,-0.035656,0.202517,0.007577,54.474243,188.420408,948.699231,-1265.433092,0
0.088542,14.641805,152.096472,-149.606367,-2.590631,4.816401,-5.786893,0.775805,-4.303474,5.714895,-1.035471,0.019036,0.192596,0.007577,12.165459,188.495946,948.853452,-1264.172086,0
0.089583,-35.823662,199.546313,-86.879438,-1.464701,6.049344,-4.455203,-1.694650,-5.526212,4.325939,1.405355,0.062790,0.180056,-0.003573,-38.384418,188.495816,948.852571,-1262.935027,0
0.090625,-108.787280,172.321380,-40.411445,-0.552697,6.357580,-2.453508,-3.739831,-5.852275,2.315260,3.469205,0.095606,0.185224,-0.022156,-111.462204,188.495966,949.009550,-1262.240539,0
0.091667,-179.909010,124.249053,3.419635,0.325528,5.873210,-0.314482,-5.158699,-5.318717,0.172300,4.729601,0.139360,0.192734,0.018727,-176.749228,188.495843,948.871714,-1261.108400,0
0.092708,-189.333147,68.824351,63.023584,1.473977,4.210938,2.294797,-5.858468,-3.692105,-2.446874,5.434052,0.139360,0.191838,0.015011,-183.796939,188.495846,948.549111,-1259.573948,0
0.093750,-167.580791,23.159752,145.253947,3.050279,2.563345,4.263200,-5.866201,-2.046966,-4.298815,5.392166,0.168530,0.203413,0.018727,-161.437907,188.495886,948.556818,-1259.129442,0
0.094792,-111.250663,-20.907526,187.140759,3.917245,0.266255,5.232837,-4.482127,0.316994,-5.374705,3.948993,0.099252,0.164967,0.003860,-104.054226,188.495953,947.694406,-1258.101532,0
0.095833,-57.802017,-89.099055,192.378129,3.973542,-2.155597,6.352288,-3.086456,2.643901,-6.371225,2.494398,0.073729,0.180125,-0.018440,-54.292431,188.495877,947.728893,-1257.998315,0
0.096875,-14.206905,-152.275464,149.713610,3.207909,-3.898597,5.777997,-0.805441,4.389082,-5.736274,0.263003,0.026329,0.191562,0.007577,-11.690931,188.495848,947.596729,-1257.185948,0
0.097917,36.326361,-199.889735,87.120349,2.003164,-5.164565,4.450469,1.626353,5.689630,-4.334090,-2.196863,-0.013779,0.196110,0.037311,39.252988,188.495895,947.483504,-1257.246294,0
0.098958,109.210880,-172.406411,40.676660,1.124939,-5.443445,2.486227,3.690864,5.982347,-2.283727,-4.226443,-0.032010,0.187842,0.003860,112.274482,188.495848,946.809621,-1256.703803,0
0.100000,180.095311,-124.334085,-3.227330,0.212935,-4.973752,0.297263,5.086536,5.441378,-0.215726,-5.543956,-0.057533,0.194043,-0.022156,177.223756,188.422933,947.353199,-1256.636005,0
0.101042,189.316050,-68.909382,-63.171526,-0.969291,-3.304142,-2.324500,5.809502,3.829587,2.438723,-6.225560,-0.075764,0.198315,0.003860,184.192659,188.495948,947.123098,-1256.718427,0
0.102083,167.552394,-23.303508,-145.110249,-2.478038,-1.649210,-4.205512,5.832698,2.173332,4.299483,-6.157019,-0.104934,0.207754,0.033594,161.991243,188.495857,948.149670,-1256.603438,0
0.103125,111.233566,21.045650,-187.458824,-3.277448,0.647880,-5.312479,4.464090,-0.186923,5.331279,-4.786196,-0.061180,0.197143,-0.007290,104.686371,188.495877,948.319994,-1255.685279,0
0.104167,58.293416,89.413354,-192.161521,-3.412560,3.018360,-6.323730,3.049087,-2.543472,6.354256,-3.285906,-0.042949,0.189702,-0.011006,55.206034,188.420354,948.290108,-1256.177281,0
0.105208,14.845203,152.965603,-149.424092,-2.568112,4.845757,-5.766085,0.760340,-4.307179,5.741351,-1.058319,0.040913,0.196385,-0.025873,12.559501,188.495580,949.003176,-1256.349473,0
0.106250,-36.332158,199.581548,-87.487021,-1.430923,6.097047,-4.455203,-1.679185,-5.529917,4.295074,1.439626,0.040913,0.186050,0.015011,-38.823493,188.495609,948.569824,-1256.798652,0
0.107292,-109.770373,172.086480,-40.933967,-0.563957,6.361249,-2.395246,-3.751429,-5.867096,2.346126,3.484437,0.121129,0.187773,0.000144,-112.588036,188.495682,949.161190,-1257.084086,0
0.108335,-180.112408,124.507444,3.784185,0.314269,5.865871,-0.285351,-5.170298,-5.303896,0.141434,4.798142,0.128422,0.195214,0.007577,-176.569095,188.571020,949.018630,-1258.040784,0
0.109375,-189.095849,69.164956,64.032173,1.519014,4.236625,2.298959,-5.881665,-3.710631,-2.473330,5.498785,0.121129,0.194249,0.015011,-183.875748,188.495649,949.687743,-1258.946834,0
0.110417,-167.772890,23.429887,145.363312,3.095316,2.570684,4.213262,-5.897130,-2.043261,-4.289996,5.369318,0.153945,0.196110,0.000144,-161.449165,188.495678,949.454318,-1258.860351,0
