1-Time,2-VGERA,3-VGERB,4-VGERC,5-VN,6-IGERAN,7-IGERBN,8-IGERCN,9-IGERAT,10-IGERBT,11-IGERCT,12-IN,13-IFD,14-IFAULT,15-VFAULT,16-Speed (rad/s),17-Active Power,18-Reactive Power,19-FAULT 
0.000000,-60.577843,-90.181056,199.985417,6.762138,-0.467621,6.062502,-4.859913,0.794092,-5.899318,4.723366,-0.212459,0.302803,-0.050629,-2.655511,188.420068,1477.221760,-853.115871,0
0.001042,-11.714351,-151.322511,159.212690,6.015678,-2.732699,6.796690,-3.180797,3.051002,-6.717673,3.229071,-0.190541,0.314300,-0.058098,8.518768,188.496241,1478.981648,-853.966586,0
0.002083,36.241741,-204.454327,95.049811,4.760268,-4.901919,6.356178,-0.740481,5.160883,-6.335774,0.866660,-0.157664,0.303391,-0.020755,29.430958,188.420792,1481.077910,-854.174920,0
0.003134,109.582349,-183.469797,43.332955,3.764988,-6.130315,4.752870,1.897598,6.440044,-4.808177,-1.648737,-0.069992,0.316064,-0.020755,49.155597,188.496114,1482.587417,-854.375102,0
0.004167,180.246127,-137.683171,-5.367803,2.814948,-6.364633,2.804295,3.852836,6.759834,-2.827338,-3.651805,-0.037115,0.319461,-0.046895,63.643707,188.420595,1485.519828,-855.693136,0
0.005208,194.458280,-75.865185,-63.104546,1.729188,-5.583572,0.109627,5.509564,5.987926,-0.187619,-5.217258,-0.007891,0.319853,-0.050629,60.081057,188.496145,1487.107039,-857.172868,0
0.006250,174.007752,-24.376372,-147.653788,0.134478,-4.326774,-2.231838,6.308077,4.708765,2.179316,-6.088930,0.021333,0.320571,-0.050629,43.342257,188.629333,1489.723029,-859.359905,0
0.007292,123.318117,26.133888,-191.184091,-0.713772,-1.909034,-4.001826,5.494638,2.426125,3.983894,-5.430728,-0.011544,0.338209,-0.058098,23.119978,188.495394,1492.415480,-860.929131,0
0.008333,60.877652,90.766724,-200.158523,-0.860802,0.583261,-5.998024,4.793141,-0.183658,5.977323,-4.669349,0.003068,0.308944,-0.017021,7.885408,188.420415,1495.072564,-862.430953,0
0.009375,12.229667,152.028988,-158.573296,-0.136962,2.993900,-6.680620,3.136412,-2.536138,6.783088,-3.132359,-0.077298,0.320049,-0.020755,-4.171051,188.513080,1497.805277,-864.242878,0
0.010417,-36.157440,205.269532,-94.705872,1.073208,5.092114,-6.299636,0.610275,-4.697479,6.401189,-0.766391,-0.102869,0.319788,-0.043161,-24.201061,188.495790,1501.085481,-866.673181,0
0.011458,-108.998978,184.176274,-44.281629,2.057178,6.359564,-4.712203,-1.997953,-6.002370,4.932347,1.798816,-0.143052,0.316129,-0.028224,-44.389411,188.495597,1503.734890,-868.732867,0
0.012500,-181.284734,137.773521,5.379356,2.961978,6.636485,-2.632665,-4.039012,-6.303782,2.871770,3.837462,-0.212459,0.319069,-0.039427,-58.560840,188.495814,1507.428356,-870.018024,0
0.013550,-194.271897,74.771607,64.765720,4.149528,5.759567,0.133438,-5.721860,-5.517171,0.080970,5.424262,-0.241683,0.320179,-0.087972,-54.952950,188.495553,1509.360927,-871.318597,0
0.014584,-174.706083,24.611694,147.874622,5.744238,4.488567,2.443154,-6.475596,-4.238010,-2.260785,6.317282,-0.248989,0.326255,-0.035692,-39.978511,188.495785,1513.122137,-873.536329,0
0.015625,-122.904884,-25.282440,191.577273,6.524628,2.024674,4.276640,-5.714397,-1.830394,-4.040183,5.580807,-0.216112,0.313059,-0.054364,-18.195451,188.495707,1515.050952,-875.514189,0
0.016667,-61.156311,-90.724697,200.453220,6.728208,-0.456971,6.229183,-4.968123,0.834525,-6.088169,4.872796,-0.230724,0.313712,-0.028224,-2.757301,188.551598,1518.148325,-877.736065,0
0.017708,-12.780546,-152.107770,157.858523,5.913888,-2.874710,6.947497,-3.214379,3.128193,-6.902327,3.282438,-0.197847,0.320637,-0.017021,8.405668,188.492350,1520.299111,-879.342356,0
0.018750,35.890123,-205.916117,94.458902,4.715028,-5.047480,6.491109,-0.744212,5.285858,-6.537215,0.855987,-0.106522,0.318873,-0.073035,28.605328,188.495635,1523.375444,-881.213812,0
0.019792,108.697634,-183.433554,44.428599,3.798918,-6.282977,4.923519,1.942374,6.601777,-4.984438,-1.709221,-0.069992,0.319330,-0.028224,49.076427,188.514785,1525.867898,-883.300689,0
0.020833,181.459775,-137.163692,-4.875379,2.814948,-6.549248,2.832075,3.990896,6.932594,-2.873502,-3.779887,-0.033462,0.319657,-0.039427,62.919867,188.572787,1528.488956,-885.307908,0
0.021875,193.811758,-75.394030,-62.981440,1.729188,-5.672329,0.062004,5.681207,6.153335,-0.166635,-5.398708,-0.004238,0.321421,-0.024490,58.916127,188.495374,1530.934462,-887.178187,0
0.022917,174.336684,-24.303887,-148.010796,0.123168,-4.408430,-2.299304,6.434944,4.844768,2.275840,-6.241917,0.024986,0.331219,-0.046895,43.149988,188.495470,1533.820896,-888.931199,0
0.023969,121.038275,26.472153,-192.365910,-0.702462,-1.923235,-4.259784,5.677475,2.418773,4.118188,-5.501885,0.014027,0.317893,-0.039427,20.360338,188.570745,1535.121817,-889.828190,0
0.025002,60.616774,91.201636,-200.293940,-0.883422,0.675568,-6.136924,4.867768,-0.235118,6.107421,-4.822337,-0.004238,0.314496,-0.061832,7.704448,188.566994,1537.704992,-891.215911,0
0.026041,12.808135,152.524305,-157.440720,-0.114342,3.043604,-6.879049,3.155069,-2.620680,6.913186,-3.182169,-0.048074,0.322988,-0.005818,-3.334111,188.493832,1539.300664,-892.496237,0
0.027083,-35.647027,206.453461,-93.844129,1.107138,5.212824,-6.402819,0.587887,-4.815103,6.527090,-0.759276,-0.095563,0.321094,-0.024490,-23.714731,188.570092,1541.365609,-894.019869,0
0.028125,-108.874210,183.415177,-44.133902,2.079798,6.522877,-4.736014,-2.109894,-6.149400,4.970117,1.855742,-0.168623,0.314300,-0.017021,-43.439371,188.555120,1542.425274,-895.542327,0
0.029166,-182.418984,136.734564,4.505303,2.939358,6.735893,-2.664413,-4.132296,-6.414054,2.905344,3.937082,-0.223418,0.318481,-0.028224,-58.289400,188.569704,1544.046183,-896.910516,0
0.030208,-194.294582,75.146115,63.017614,4.081668,5.915779,0.105658,-5.837532,-5.605389,0.101953,5.566576,-0.248989,0.320375,-0.031958,-52.589160,188.494505,1545.374264,-898.706327,0
0.031250,-174.626686,24.647936,148.083902,5.721618,4.598626,2.518557,-6.643508,-4.289471,-2.323735,6.445364,-0.252642,0.329717,-0.009553,-38.508211,188.511008,1547.010211,-900.137289,0
0.032291,-121.759291,-24.762961,192.082008,6.547248,2.088579,4.387760,-5.815144,-1.911261,-4.140903,5.683985,-0.256295,0.331611,-0.035692,-18.161521,188.570645,1548.987413,-900.746855,0
0.033333,-60.770666,-90.773021,200.564016,6.728208,-0.503124,6.356178,-5.024094,0.775713,-6.251840,4.926164,-0.241683,0.318612,-0.028224,-2.632891,188.570948,1551.040982,-901.445948,0
0.034375,-13.290959,-152.578925,156.836743,5.879958,-2.952816,7.102271,-3.289007,3.238465,-7.003048,3.307343,-0.146705,0.323511,-0.046895,8.032438,188.495264,1552.106062,-902.989128,0
0.035423,36.094288,-207.329582,92.698485,4.703718,-5.153989,6.598261,-0.654659,5.447591,-6.583378,0.799061,-0.110175,0.322858,-0.020755,29.645848,188.644560,1553.358238,-904.774796,0
0.036458,108.516154,-182.986561,44.305493,3.798918,-6.456941,4.987016,2.020733,6.748807,-4.984438,-1.776820,-0.069992,0.316064,-0.013287,49.234767,188.568075,1554.039438,-906.616128,0
0.037500,182.684765,-136.209301,-4.062879,2.848878,-6.659307,2.836044,4.095375,7.072273,-2.894485,-3.893739,-0.051727,0.319134,-0.043161,63.688947,188.571102,1555.931134,-908.388898,0
0.038541,193.755045,-74.439638,-62.710606,1.729188,-5.810790,-0.021337,5.822999,6.248905,-0.103685,-5.551695,0.028639,0.320898,-0.035692,59.719137,188.474243,1557.338503,-910.250510,0
0.039599,174.302657,-22.286376,-149.401894,0.134478,-4.458134,-2.469953,6.576736,4.833741,2.431118,-6.402021,0.024986,0.331023,-0.069301,42.980338,188.643211,1559.195121,-912.319913,0
0.040630,119.722545,25.759379,-193.276895,-0.725082,-1.923235,-4.355030,5.811805,2.367313,4.269269,-5.629968,0.035945,0.337491,-0.039427,21.853258,188.570915,1560.538994,-914.594339,0
0.041667,60.253814,91.213717,-200.552463,-0.928662,0.696870,-6.248045,4.998366,-0.253497,6.262698,-4.918398,-0.007891,0.301627,-0.087972,7.908028,188.512883,1562.682127,-916.000888,0
0.042708,13.511370,153.853205,-155.840341,-0.091722,3.128811,-7.013981,3.225965,-2.730953,7.034890,-3.189285,-0.037115,0.322074,-0.024490,-3.571621,188.495810,1563.990140,-917.618099,0
0.043750,-35.227355,207.347448,-93.068561,1.107138,5.400989,-6.490128,0.576693,-4.958457,6.636204,-0.688119,-0.091910,0.319918,-0.024490,-24.087961,188.571136,1565.418742,-919.922880,0
0.044792,-108.942265,182.557433,-43.961553,2.102418,6.679089,-4.851103,-2.199446,-6.296430,4.999494,1.990940,-0.154011,0.314170,-0.017021,-44.920981,188.571118,1566.175666,-922.259724,0
0.045844,-183.678001,135.164046,5.502462,3.018528,6.874354,-2.612822,-4.311402,-6.612545,2.846590,4.111417,-0.190541,0.318416,-0.005818,-58.210230,188.571078,1568.359212,-924.754468,0
0.046875,-193.954307,74.143400,62.845265,4.092978,6.022287,0.244558,-6.001712,-5.730365,0.055790,5.737353,-0.223418,0.319461,-0.043161,-54.930330,188.495758,1570.227050,-926.554241,0
0.047917,-174.853536,24.164700,147.960796,5.687688,4.673182,2.609834,-6.807688,-4.421798,-2.437046,6.648161,-0.263601,0.328933,-0.009553,-39.854101,188.646840,1573.345468,-928.690044,0
0.048958,-119.955833,-24.219320,193.485417,6.569868,2.074378,4.534598,-5.983056,-1.885530,-4.300378,5.833414,-0.259948,0.331415,-0.028224,-17.132311,188.556753,1575.338895,-930.730826,0
0.050000,-60.373678,-90.797182,200.650190,6.739518,-0.581230,6.503015,-5.094990,0.882310,-6.432297,5.054246,-0.241683,0.309532,-0.039427,-2.689441,188.571576,1577.540297,-933.163696,0
0.051042,-14.039564,-154.076958,155.384091,5.925198,-3.030922,7.253078,-3.363634,3.374468,-7.149932,3.350037,-0.164970,0.326189,-0.035692,7.738378,188.496281,1579.532732,-935.083835,0
0.052083,34.914668,-207.704090,93.215531,4.737648,-5.264047,6.717319,-0.669585,5.550512,-6.747049,0.809735,-0.117481,0.333310,-0.024490,28.379128,188.585808,1581.618013,-936.962922,0
0.053125,108.731662,-182.177140,44.194697,3.821538,-6.588301,5.006859,2.102823,6.936270,-5.068372,-1.904902,-0.077298,0.314431,-0.039427,50.071707,188.571290,1583.372063,-939.428456,0
0.054167,182.911615,-135.629417,-3.656629,2.860188,-6.815519,2.847949,4.155076,7.215627,-2.944846,-3.996916,-0.004238,0.319722,-0.039427,62.478777,188.571281,1585.303855,-940.887027,0
0.055208,193.573565,-73.642299,-62.439773,1.695258,-5.938600,-0.041180,5.994642,6.315068,-0.057521,-5.672662,-0.026156,0.323446,-0.065566,58.803027,188.495821,1586.263268,-942.275601,0
0.056257,174.257287,-22.793774,-148.737122,0.134478,-4.539790,-2.469953,6.699871,4.903580,2.468888,-6.522987,0.039598,0.348008,-0.046895,42.313048,188.571317,1587.672707,-943.539106,0
0.057291,119.200790,24.345914,-193.769319,-0.759012,-1.919685,-4.414559,5.934940,2.422449,4.361596,-5.747377,0.028639,0.325471,-0.024490,20.168068,188.646712,1589.385545,-944.821823,0
0.058333,60.072334,91.020423,-200.577084,-0.860802,0.732373,-6.379008,5.028217,-0.319661,6.367616,-4.993113,0.010374,0.340300,-0.065566,7.896718,188.571344,1590.555798,-946.329895,0
0.059375,14.044467,154.384764,-155.298675,-0.057792,3.192716,-7.101290,3.240891,-2.775062,7.139807,-3.231979,-0.051727,0.310511,-0.039427,-2.859091,188.476339,1591.998674,-947.217080,0
0.060416,-34.682915,207.963574,-92.883902,1.129758,5.443592,-6.541720,0.554305,-5.013594,6.711744,-0.705908,-0.095563,0.318285,-0.069301,-23.307571,188.646174,1593.244359,-947.950901,0
0.061458,-108.908238,182.376219,-44.035417,2.079798,6.742994,-4.855072,-2.233029,-6.392000,5.066641,1.998056,-0.161317,0.314300,-0.043161,-44.400721,188.570664,1594.597894,-948.636132,0
0.062500,-183.564576,135.659363,3.385038,2.984598,6.970212,-2.696162,-4.300208,-6.660330,2.909541,4.143437,-0.212459,0.317436,-0.024490,-57.803070,188.515323,1595.202942,-949.674193,0
0.063541,-193.897594,73.901782,62.328220,4.036428,6.047139,0.196935,-6.065146,-5.759771,0.047396,5.790720,-0.252642,0.291698,-0.017021,-52.487370,188.498420,1595.567485,-950.299461,0
0.064583,-174.581316,24.466723,148.083902,5.710308,4.712235,2.641583,-6.863659,-4.432825,-2.424456,6.644604,-0.230724,0.307114,-0.031958,-38.508211,188.646040,1595.602241,-950.120735,0
0.065625,-119.286626,-23.711922,193.731629,6.569868,2.063727,4.554441,-6.024101,-1.848773,-4.338148,5.833414,-0.241683,0.302672,-0.031958,-17.460301,188.570767,1595.247394,-950.728142,0
0.066676,-59.704471,-91.956949,200.096213,6.728208,-0.613183,6.526827,-5.117378,0.878634,-6.440691,5.068477,-0.227071,0.327757,-0.069301,-2.542411,188.570711,1595.794477,-950.107756,0
0.067708,-14.391181,-154.101119,155.027084,5.879958,-3.059324,7.245140,-3.337514,3.341386,-7.158325,3.335806,-0.190541,0.318285,-0.035692,7.512178,188.495314,1595.625376,-949.871102,0
0.068750,34.381571,-207.969870,92.944697,4.726338,-5.306651,6.725256,-0.677048,5.576242,-6.705083,0.774156,-0.135746,0.318742,0.009119,29.159518,188.646025,1594.913694,-950.472352,0
0.069792,108.346017,-182.080493,44.416288,3.821538,-6.630904,5.030671,2.151331,6.943622,-5.068372,-1.919134,-0.080951,0.312798,-0.013287,49.755027,188.631057,1594.706001,-950.800454,0
0.070833,183.285917,-135.327395,-2.991856,2.894118,-6.836820,2.899541,4.203584,7.226654,-2.902879,-4.007590,-0.037115,0.321617,-0.020755,63.530607,188.570644,1594.384139,-951.358443,0
0.071875,193.528195,-73.533571,-62.119697,1.706568,-5.945701,-0.041180,6.005836,6.337123,-0.061718,-5.683336,0.028639,0.310315,-0.035692,59.538177,188.495356,1594.582779,-951.445583,0
0.072917,174.211917,-24.243482,-147.666099,0.145788,-4.582394,-2.521544,6.785692,4.969744,2.447904,-6.587029,0.028639,0.316652,-0.046895,43.183918,188.587510,1595.234350,-952.056593,0
0.073958,118.747089,23.874758,-193.978599,-0.702462,-1.958738,-4.390747,5.938671,2.451855,4.386777,-5.750935,0.032292,0.316195,-0.035692,21.943738,188.571147,1595.468295,-952.113010,0
0.075000,60.060992,90.682158,-200.429357,-0.860802,0.721722,-6.382977,5.024486,-0.275552,6.388599,-4.964650,-0.026156,0.293135,0.012853,8.394358,188.571154,1595.318437,-951.908915,0
0.076042,14.600250,154.904243,-154.695455,-0.035172,3.242419,-7.089384,3.218503,-2.797116,7.131414,-3.224863,-0.051727,0.318154,-0.028224,-3.028741,188.548565,1595.153118,-952.139292,0
0.077095,-35.079902,207.963574,-92.403788,1.163688,5.454243,-6.498065,0.449826,-5.072406,6.648794,-0.631193,-0.135746,0.305089,-0.017021,-24.325471,188.707020,1594.233103,-953.016751,0
0.078127,-108.896895,181.892983,-44.380114,2.079798,6.789147,-4.859040,-2.326313,-6.410379,5.037264,2.069213,-0.135746,0.311491,-0.035692,-45.384691,188.519679,1593.611448,-954.025944,0
0.079166,-183.246986,135.611040,3.138826,3.018528,6.973762,-2.696162,-4.337521,-6.704439,2.863377,4.154111,-0.223418,0.319526,-0.013287,-58.300710,188.509763,1593.439659,-954.720584,0
0.080208,-193.795512,74.010510,62.205114,4.081668,6.089743,0.232653,-6.139773,-5.770798,-0.002964,5.822741,-0.256295,0.325536,-0.024490,-54.896400,188.495839,1593.359186,-955.590658,0
0.081250,-174.921591,24.720422,147.689963,5.744238,4.680282,2.716986,-6.856196,-4.458555,-2.512586,6.680182,-0.263601,0.333440,-0.017021,-40.035061,188.646560,1593.695473,-956.973422,0
0.082291,-119.014406,-23.168282,194.187122,6.615108,2.099230,4.598095,-6.053952,-1.856124,-4.388508,5.858319,-0.248989,0.330109,-0.039427,-17.279341,188.571152,1594.143215,-957.670139,0
0.083333,-60.611871,-89.999843,200.465531,6.750828,-0.606082,6.538732,-5.102452,0.893337,-6.449084,5.075593,-0.212459,0.312014,-0.024490,-3.153151,188.571169,1593.515459,-958.732190,0
0.084375,-15.207841,-154.415223,154.940910,5.879958,-3.137431,7.257046,-3.322589,3.356089,-7.158325,3.318017,-0.194194,0.340626,-0.024490,7.308598,188.495731,1593.285312,-959.277098,0
0.085416,33.882501,-207.704090,93.597159,4.771578,-5.320852,6.741130,-0.636003,5.609324,-6.713476,0.781272,-0.161317,0.325928,-0.020755,28.277338,188.646523,1593.305667,-959.945208,0
0.086458,108.266619,-181.971765,45.228788,3.844158,-6.613153,5.002890,2.166256,6.950973,-5.068372,-1.922691,-0.059033,0.316064,-0.002084,50.252667,188.623999,1593.186212,-960.339512,0
0.087500,183.002355,-135.786469,-2.376326,2.950668,-6.826170,2.840012,4.184927,7.211951,-2.919666,-4.039610,-0.022503,0.324426,-0.061832,62.422227,188.566969,1593.029103,-960.888479,0
0.088551,193.437455,-73.581894,-63.400000,1.706568,-5.895997,-0.128488,6.024493,6.259932,0.013823,-5.747377,0.014027,0.324948,-0.035692,58.746477,188.517754,1592.483086,-961.975666,0
0.089583,174.336684,-25.197874,-147.530682,0.123168,-4.539790,-2.517576,6.725990,4.936662,2.481478,-6.551450,0.010374,0.314496,0.012853,42.799378,188.651533,1591.587234,-962.651062,0
0.090625,119.575092,23.077419,-193.769319,-0.725082,-1.958738,-4.394716,5.897626,2.451855,4.323826,-5.733145,0.003068,0.307245,0.001650,20.710948,188.571232,1591.017894,-962.471194,0
0.091667,61.081817,90.174760,-200.429357,-0.883422,0.721722,-6.367102,4.979709,-0.282903,6.409582,-4.929072,0.003068,0.276934,-0.043161,8.552698,188.570935,1590.476677,-963.313889,0
0.092708,15.394225,154.094823,-155.557197,-0.035172,3.210467,-7.077479,3.184920,-2.808144,7.064267,-3.189285,-0.033462,0.296793,-0.028224,-2.418001,188.495649,1589.114074,-963.861355,0
0.093750,-33.730145,207.649470,-93.893372,1.107138,5.440042,-6.486160,0.487140,-4.969485,6.648794,-0.638309,-0.084604,0.290130,-0.020755,-23.217091,188.721710,1588.271887,-963.632110,0
0.094792,-108.057550,182.460785,-45.598864,2.034558,6.679089,-4.823323,-2.247954,-6.355242,4.944937,2.037192,-0.161317,0.311491,-0.043161,-44.276311,188.495593,1586.641696,-963.808306,0
0.095833,-183.303699,136.239247,2.067803,2.939358,6.885005,-2.612822,-4.300208,-6.597842,2.867574,4.114974,-0.197847,0.315999,-0.013287,-57.938790,188.571020,1585.418359,-963.388312,0
0.096875,-193.942964,75.617270,61.540341,4.104288,5.972583,0.276307,-5.997981,-5.686256,-0.011358,5.716006,-0.223418,0.319788,-0.039427,-52.634400,188.495633,1583.680387,-963.178875,0
0.097917,-174.842193,26.315101,147.813069,5.676378,4.630578,2.677300,-6.777837,-4.348283,-2.462226,6.612583,-0.252642,0.325275,-0.043161,-38.802271,188.709405,1581.774212,-963.143785,0
0.098967,-119.887778,-23.409900,193.940910,6.603798,1.985621,4.598095,-5.927085,-1.775258,-4.363328,5.755142,-0.256295,0.333767,-0.028224,-17.697811,188.495904,1579.979114,-963.376128,0
0.100000,-61.995656,-89.528687,200.564016,6.705588,-0.652236,6.475235,-5.039019,0.922743,-6.360954,4.968858,-0.219765,0.308486,-0.035692,-3.447211,188.513623,1577.819546,-963.688768,0
0.101042,-16.149269,-153.122566,156.208902,5.947818,-3.052224,7.149894,-3.218110,3.345062,-7.057605,3.246860,-0.175929,0.330109,-0.039427,7.105018,188.561750,1575.624523,-964.180221,0
0.102083,33.485513,-207.353744,94.471212,4.760268,-5.288899,6.582387,-0.606152,5.546836,-6.621149,0.749251,-0.135746,0.315019,-0.028224,28.944628,188.590345,1573.890498,-964.035454,0
0.103125,107.540699,-182.527486,46.028977,3.810228,-6.531497,4.915582,2.173719,6.848052,-4.971848,-1.933365,-0.040768,0.315411,-0.024490,49.370487,188.509267,1571.807078,-964.097917,0
0.104167,182.809532,-136.475080,-1.810038,2.916738,-6.701910,2.772546,4.162539,7.105355,-2.886092,-3.975569,-0.022503,0.316260,-0.046895,63.609777,188.568269,1570.243960,-963.492056,0
0.105208,193.743703,-75.949751,-61.233334,1.774428,-5.789488,-0.088803,5.860313,6.193768,-0.007161,-5.558811,-0.000585,0.317436,-0.017021,59.730447,188.493655,1567.991037,-962.810151,0
0.106250,174.518164,-26.224750,-147.272160,0.145788,-4.426182,-2.473921,6.595392,4.855795,2.447904,-6.416252,0.028639,0.313255,-0.028224,43.398807,188.721799,1565.778108,-962.218511,0
0.107292,121.185727,22.751234,-192.969129,-0.725082,-1.898383,-4.351062,5.740909,2.337907,4.252482,-5.626410,0.035945,0.331742,-0.017021,22.644958,188.495577,1563.260580,-962.585440,0
0.108333,62.204725,89.425744,-200.441667,-0.894732,0.789177,-6.267888,4.886425,-0.356418,6.287878,-4.808105,-0.011544,0.310838,-0.046895,8.744968,188.571118,1560.369655,-962.955612,0
0.109383,15.292142,154.626383,-154.929357,-0.046482,3.270822,-6.934610,3.050591,-2.797116,6.976136,-3.046971,-0.044421,0.312340,-0.013287,-3.119221,188.627781,1558.210969,-962.801712,0
0.110417,-33.412555,207.129991,-94.385796,1.050588,5.393888,-6.390914,0.457289,-4.958457,6.480926,-0.570710,-0.121134,0.313516,-0.054364,-23.692111,188.588062,1555.500653,-963.175284,0
