1-Time,2-VGERA,3-VGERB,4-VGERC,5-VN,6-IGERAN,7-IGERBN,8-IGERCN,9-IGERAT,10-IGERBT,11-IGERCT,12-IN,13-IFD,14-IFAULT,15-VFAULT,16-Speed (rad/s),17-Active Power,18-Reactive Power,19-FAULT 
0.000000,-149.613910,173.120040,-7.225230,0.111601,0.409364,-4.701132,3.818446,-0.400434,4.726225,-3.751251,-0.083057,0.574509,-0.007290,-15.012136,188.495459,972.415269,1014.724916,0
0.001042,-165.908402,138.002460,70.375346,1.620348,2.233092,-4.881010,2.229468,-2.250014,4.847010,-2.064377,-0.050241,0.571408,-0.007290,32.734418,188.495542,971.884475,1015.257086,0
0.002083,-183.920483,58.089412,125.944940,2.678722,4.005448,-4.631634,0.246146,-4.042626,4.519164,-0.137609,-0.024718,0.567343,0.003860,68.907415,188.495468,970.881398,1015.153959,0
0.003125,-162.936522,-15.046766,162.314894,3.399317,4.783376,-3.691363,-1.354431,-4.790813,3.613275,1.454069,0.033621,0.558799,-0.011006,97.064485,188.495405,970.265271,1016.504654,0
0.004167,-112.810053,-84.894341,179.545964,3.770874,4.937494,-1.700443,-3.376415,-5.003496,1.534041,3.525535,0.066437,0.554941,-0.018440,106.487703,188.420030,969.240419,1016.560041,0
0.005208,-34.863168,-134.740164,181.575293,3.827171,4.438446,0.065630,-4.447332,-4.456597,-0.087933,4.454648,0.084667,0.575473,0.011294,111.103616,188.495300,967.083300,1017.680913,0
0.006250,37.072156,-172.054061,149.519183,3.241687,3.260545,1.966612,-5.034983,-3.252661,-2.098146,5.029632,0.077375,0.555630,-0.007290,98.088993,188.495484,967.181363,1019.081561,0
0.007292,108.171287,-172.335941,92.588601,2.104498,1.469842,3.659099,-4.787551,-1.456252,-3.737375,4.702158,0.070083,0.578505,-0.014723,65.270976,188.495571,966.757897,1020.309297,0
0.008333,149.551613,-173.334267,6.822103,0.438121,-0.408928,4.697484,-3.828752,0.469286,-4.802874,3.784468,0.062790,0.576300,-0.007290,15.813156,188.420128,966.927437,1022.072892,0
0.009375,166.049504,-137.923062,-70.134434,-1.048106,-2.214309,4.971389,-2.309364,2.337856,-4.945228,2.120441,0.037267,0.569961,0.022444,-31.156574,188.495432,967.444338,1023.213758,0
0.010417,184.084185,-58.679479,-125.934911,-2.151518,-3.942630,4.681132,-0.322175,4.103882,-4.664834,0.174634,0.033621,0.572579,-0.040740,-66.710363,188.495470,968.152715,1023.450500,0
0.011458,163.032424,13.857704,-162.487139,-2.894632,-4.724228,3.732685,1.266803,4.871059,-3.620904,-1.424659,-0.053887,0.578918,-0.022156,-96.319757,188.495425,968.934093,1023.326040,0
0.012500,113.561351,84.010649,-179.377963,-3.209892,-4.922380,1.700883,3.397039,5.076146,-1.610691,-3.507549,-0.086703,0.571339,0.000144,-106.666157,188.419998,968.864906,1022.601186,0
0.013542,36.574960,134.596407,-181.164259,-3.243670,-4.445348,-0.085631,4.437027,4.517854,0.166579,-4.440470,-0.108580,0.581123,-0.014723,-108.186031,188.495399,968.910555,1022.185979,0
0.014583,-36.253059,171.945539,-149.217514,-2.646927,-3.208736,-1.966172,4.982150,3.317715,2.056007,-4.988799,-0.057533,0.578367,0.037311,-96.893931,188.495434,968.475417,1021.557702,0
0.015625,-108.064084,172.344870,-91.715803,-1.498478,-1.403355,-3.728157,4.738585,1.475731,3.712491,-4.649902,-0.108580,0.573957,0.000144,-65.100423,188.495452,968.186691,1021.213491,0
0.016667,-149.308812,173.401921,-5.414631,0.145379,0.453398,-4.680692,3.779785,-0.419424,4.717597,-3.747443,-0.075764,0.572235,0.000144,-13.987629,188.344558,967.928491,1021.313151,0
0.017708,-165.512905,137.250780,71.165204,1.620348,2.288135,-4.881010,2.183075,-2.291791,4.885834,-2.033914,-0.032010,0.567550,0.000144,32.543027,188.495506,968.416177,1021.321086,0
0.018750,-184.349880,57.232026,125.823424,2.701241,3.987100,-4.582576,0.192020,-4.054019,4.549361,-0.038605,-0.017425,0.570788,0.000144,68.468341,188.495517,969.295374,1020.955148,0
0.019792,-162.450625,-15.175961,162.594382,3.421836,4.732003,-3.683187,-1.420155,-4.840186,3.557196,1.518802,0.022683,0.561142,-0.033307,96.546602,188.495389,970.347144,1020.343968,0
0.020833,-113.092551,-84.201386,179.728239,3.782133,4.952172,-1.700443,-3.446005,-5.041475,1.521100,3.540766,0.070083,0.580572,0.003860,106.870486,188.344654,971.045552,1020.386326,0
0.021875,-36.388658,-134.857614,181.016316,3.793393,4.423768,0.118776,-4.493726,-4.456597,-0.169894,4.469880,0.110191,0.578091,-0.007290,108.142677,188.495472,972.191064,1019.542894,0
0.022917,35.444967,-172.265471,149.737913,3.230428,3.205503,1.991141,-5.050448,-3.222278,-2.119715,5.056287,0.128422,0.588220,0.007577,96.535344,188.420025,973.150611,1018.983431,0
0.023958,107.877489,-171.924866,92.941000,2.070720,1.414800,3.712244,-4.779819,-1.395485,-3.754630,4.713582,0.095606,0.579745,0.000144,65.552435,188.495486,973.822898,1018.306679,0
0.025000,149.630713,-173.604402,6.737041,0.449381,-0.474978,4.722013,-3.840350,0.518659,-4.742482,3.734966,0.044560,0.575680,-0.014723,15.542957,188.344686,973.684053,1017.170267,0
0.026042,165.812206,-137.511986,-70.742018,-1.070625,-2.199631,4.910067,-2.243640,2.349249,-4.889149,2.067131,0.048206,0.568239,0.000144,-33.070489,188.495455,973.334644,1016.175801,0
0.027083,184.513582,-57.317058,-125.740484,-2.128999,-3.924283,4.636162,-0.268049,4.069701,-4.660520,0.136556,0.008098,0.575611,-0.014723,-68.095137,188.420146,972.944957,1015.927773,0
0.028125,162.535227,15.995295,-162.231954,-2.883372,-4.654508,3.687715,1.332527,4.840676,-3.607962,-1.481777,-0.017425,0.536407,0.018727,-96.184657,188.495454,972.626656,1015.663610,0
0.029167,112.408759,85.008975,-179.523783,-3.176114,-4.848990,1.704971,3.400905,5.098933,-1.610691,-3.545627,-0.064826,0.550807,-0.011006,-106.643641,188.344731,972.783168,1016.213315,0
0.030208,35.173769,134.831308,-181.176410,-3.221151,-4.397645,-0.110160,4.437027,4.571024,0.153638,-4.482356,-0.108580,0.566103,-0.014723,-108.861531,188.495454,972.884635,1017.357766,0
0.031250,-36.625957,171.933794,-149.375485,-2.669446,-3.227083,-1.937555,5.001481,3.325311,2.120713,-5.023070,-0.101287,0.569617,0.000144,-96.758832,188.420133,973.850225,1017.551785,0
0.032292,-108.131884,171.910304,-92.481359,-1.532256,-1.436380,-3.695452,4.769514,1.528902,3.729746,-4.695596,-0.090349,0.582777,0.000144,-68.241495,188.495522,974.075247,1018.409133,0
0.033333,-149.693009,173.214001,-6.848528,0.111601,0.449729,-4.680692,3.810714,-0.427020,4.752108,-3.716980,-0.061180,0.577954,0.015011,-15.034653,188.344686,974.769317,1017.968890,0
0.034375,-165.885802,137.826285,70.229525,1.575311,2.273457,-4.958685,2.206272,-2.261408,4.881520,-2.056761,-0.021072,0.574233,0.015011,32.430443,188.495381,974.666500,1018.094602,0
0.035417,-184.225581,58.465252,125.835575,2.701241,4.016456,-4.627546,0.176555,-4.035030,4.570930,-0.061452,-0.013779,0.567687,-0.007290,68.761057,188.495522,974.677608,1018.309275,0
0.036458,-162.620124,-14.647436,162.703747,3.410576,4.754020,-3.642306,-1.369895,-4.794611,3.548568,1.541649,0.022683,0.575473,-0.007290,97.267135,188.495421,974.656780,1017.731353,0
0.037500,-113.002152,-84.553736,179.910514,3.759615,4.959511,-1.659562,-3.438273,-5.049071,1.516786,3.533151,0.084667,0.561073,0.018727,106.589028,188.269326,974.610481,1017.913316,0
0.038542,-35.416864,-134.845869,181.453777,3.827171,4.387073,0.098335,-4.478261,-4.452800,-0.225973,4.458456,0.091960,0.585050,-0.029590,111.047324,188.495416,974.804309,1017.592066,0
0.039583,37.332055,-172.112786,149.555638,3.241687,3.223850,1.982964,-5.007920,-3.222278,-2.098146,5.010593,0.106545,0.570099,-0.014723,98.212834,188.420039,973.701942,1017.738263,0
0.040625,108.408585,-172.300706,91.932411,2.081979,1.411131,3.708156,-4.721827,-1.372698,-3.771885,4.702158,0.088314,0.577265,-0.014723,64.820643,188.495454,973.724883,1017.756251,0
0.041667,149.506413,-173.698362,5.764907,0.426862,-0.478648,4.668867,-3.728233,0.549042,-4.785619,3.719735,0.091960,0.569272,-0.018440,15.362823,188.269339,974.252221,1017.766996,0
0.042708,165.812206,-137.359301,-70.620501,-1.014329,-2.251003,4.946860,-2.232042,2.398622,-4.884836,2.051900,0.059144,0.567481,-0.007290,-31.483065,188.495533,974.802245,1017.406115,0
0.043750,184.547482,-57.540213,-125.740484,-2.117740,-3.986664,4.664779,-0.225522,4.122871,-4.634637,0.094669,0.033621,0.559213,0.007577,-66.575263,188.495036,975.704764,1016.838630,0
0.044792,162.490028,14.609384,-162.742324,-2.872113,-4.731567,3.728597,1.394385,4.852069,-3.607962,-1.481777,-0.039302,0.573337,0.007577,-96.522407,188.495991,976.151658,1016.733672,0
0.045833,113.335353,84.045884,-179.730361,-3.221151,-4.896693,1.684531,3.431834,5.106529,-1.545984,-3.534204,-0.057533,0.572924,-0.029590,-106.722449,188.269566,976.828848,1015.872914,0
0.046875,36.925257,134.690367,-180.981983,-3.153596,-4.401314,-0.130600,4.506617,4.502662,0.183834,-4.451894,-0.090349,0.583121,0.003860,-108.095964,188.495986,977.013847,1014.417558,0
0.047917,-36.162660,171.933794,-149.533457,-2.658186,-3.168372,-2.068375,5.028544,3.275938,2.133654,-4.977376,-0.053887,0.583259,0.000144,-97.119098,188.420540,976.991897,1013.337153,0
0.048958,-107.973685,172.286145,-91.752258,-1.509738,-1.326296,-3.707716,4.715388,1.411167,3.764256,-4.611823,-0.093995,0.575060,-0.014723,-64.931548,188.495926,977.574974,1011.432453,0
0.050000,-149.467011,173.495881,-5.511844,0.145379,0.600177,-4.713397,3.721793,-0.514371,4.717597,-3.671286,-0.075764,0.570650,0.011294,-13.886304,188.269612,977.778904,1010.386523,0
0.051042,-165.671104,136.898429,71.225963,1.609088,2.343177,-4.925979,2.144414,-2.333568,4.842697,-1.938718,-0.061180,0.560108,0.003860,32.779452,188.495960,978.288671,1008.789989,0
0.052083,-184.948776,56.221955,125.580390,2.712500,4.053151,-4.574400,0.126296,-4.080605,4.545047,0.003281,-0.006487,0.567550,0.000144,68.310724,188.420506,978.756238,1008.392176,0
0.053125,-162.089027,-15.962877,162.630837,3.410576,4.801723,-3.597336,-1.482013,-4.806005,3.445038,1.591151,0.026329,0.540954,0.015011,96.614152,188.495863,979.005149,1007.247809,0
0.054167,-112.222457,-84.788636,179.910514,3.815911,4.922816,-1.602328,-3.515596,-5.041475,1.477963,3.594076,0.081021,0.573888,-0.007290,106.847969,188.345032,979.593719,1006.820252,0
0.055208,-35.326465,-134.998554,180.979861,3.815911,4.379734,0.139217,-4.551717,-4.449002,-0.282052,4.557460,0.117483,0.572786,-0.014723,108.120160,188.495877,981.015015,1006.721474,0
0.056250,36.518460,-172.159766,149.956643,3.219168,3.179816,2.085168,-5.077511,-3.188097,-2.180107,5.037248,0.073729,0.580365,-0.011006,96.760510,188.420406,982.507518,1006.039169,0
0.057292,108.058287,-171.889631,92.649360,2.070720,1.359758,3.732685,-4.745024,-1.304336,-3.797768,4.679311,0.099252,0.583328,0.007577,65.451110,188.495944,983.257404,1004.874364,0
0.058333,149.822811,-173.733598,6.919316,0.426862,-0.577724,4.762894,-3.774626,0.598415,-4.794247,3.662617,0.084667,0.575129,0.033594,15.813156,188.344990,984.054815,1003.774858,0
0.059375,166.060804,-137.288831,-70.255951,-1.059366,-2.313384,4.934596,-2.170184,2.444197,-4.889149,1.975743,0.037267,0.567481,-0.011006,-32.687706,188.420544,984.954149,1002.813833,0
0.060417,185.248077,-57.434508,-125.217962,-2.128999,-4.001342,4.640250,-0.136601,4.157053,-4.600127,0.022320,0.011744,0.568859,0.003860,-67.723612,188.427078,985.922376,1001.856116,0
0.061458,162.196230,15.431535,-162.547898,-2.849594,-4.742575,3.630482,1.398251,4.912836,-3.564825,-1.557934,-0.057533,0.560660,0.018727,-96.308499,188.496181,987.062733,1001.448657,0
0.062500,112.329659,84.832800,-179.888333,-3.232411,-4.859999,1.590504,3.466629,5.117923,-1.502847,-3.606553,-0.079410,0.524212,-0.011006,-106.767482,188.345288,987.838056,1001.354884,0
0.063542,34.902571,134.784328,-181.006287,-3.232411,-4.360950,-0.200098,4.475688,4.483672,0.231286,-4.501396,-0.090349,0.572579,-0.003573,-108.940339,188.496085,988.195238,1001.306502,0
0.064583,-37.846348,171.839834,-149.703581,-2.669446,-3.109660,-2.088816,5.040142,3.245555,2.181106,-5.053533,-0.115872,0.567412,0.029877,-97.130356,188.420698,989.156483,1001.766091,0
0.065625,-108.504782,172.004264,-91.569983,-1.532256,-1.348313,-3.748597,4.742451,1.395975,3.790139,-4.638478,-0.097641,0.576782,-0.037023,-67.689837,188.496105,989.523562,1002.041443,0
0.066667,-149.636510,173.672056,-5.669816,0.145379,0.578160,-4.746102,3.760455,-0.495382,4.786618,-3.671286,-0.072118,0.577196,-0.018440,-14.561804,188.345276,990.155933,1002.547915,0
0.067708,-165.897102,137.274270,70.581924,1.631607,2.343177,-4.930068,2.105752,-2.363951,4.916030,-1.976797,-0.024718,0.572855,0.007577,32.430443,188.495969,991.156089,1003.401418,0
0.068750,-185.231274,57.525651,125.580390,2.712500,4.089846,-4.590753,0.099233,-4.156563,4.566616,0.018513,0.011744,0.567205,-0.025873,68.513374,188.420712,992.662354,1003.535488,0
0.069792,-162.303726,-14.283341,163.104752,3.421836,4.787046,-3.589160,-1.501344,-4.832590,3.518372,1.617806,0.019036,0.576093,-0.003573,97.447268,188.495997,993.631090,1004.170340,0
0.070836,-112.685754,-84.495011,180.700373,3.692059,4.977858,-1.541006,-3.577454,-4.999698,1.456394,3.651194,0.091960,0.576507,-0.037023,106.802936,188.345274,994.485126,1003.577120,0
0.071875,-36.049660,-135.033789,181.149985,3.804652,4.379734,0.220979,-4.532387,-4.395831,-0.316562,4.572691,0.113837,0.577885,0.011294,111.013549,188.496101,995.072887,1002.686300,0
0.072917,37.354655,-172.101041,150.078160,3.241687,3.165139,2.089256,-5.046582,-3.112139,-2.253441,5.052479,0.106545,0.566447,-0.003573,98.460517,188.420680,996.027849,1001.849384,0
0.073959,108.476385,-172.347686,91.482799,2.048201,1.326733,3.777654,-4.729559,-1.300538,-3.845219,4.664080,0.077375,0.575749,0.011294,64.257727,188.496152,996.250197,1002.035954,0
0.075000,149.529013,-174.215143,4.975048,0.404343,-0.618088,4.771071,-3.708902,0.674373,-4.833070,3.643578,0.088314,0.569617,0.018727,14.946265,188.345254,997.056529,1001.881799,0
0.076042,165.755706,-136.584131,-71.106568,-1.048106,-2.364757,4.930508,-2.127656,2.489772,-4.915032,1.952896,0.044560,0.562658,0.026161,-31.820815,188.496120,997.482214,1001.909647,0
0.077084,185.620975,-55.719736,-125.375934,-2.117740,-4.089409,4.619810,-0.074743,4.236809,-4.578559,0.014705,0.000805,0.568652,0.022444,-66.316322,188.420728,997.971863,1002.133493,0
0.078125,162.004131,15.736905,-162.997509,-2.872113,-4.790279,3.622305,1.475574,4.897644,-3.504432,-1.596012,-0.032010,0.568170,-0.007290,-96.938965,188.496129,998.192708,1001.330217,0
0.079167,112.544358,84.480449,-180.265035,-3.187373,-4.922380,1.590504,3.563282,5.140710,-1.476964,-3.675094,-0.064826,0.566998,0.003860,-106.744966,188.345211,999.466433,1001.196878,0
0.080209,36.281162,134.854798,-180.896922,-3.254929,-4.335264,-0.220539,4.537546,4.487470,0.330502,-4.588976,-0.083057,0.583190,-0.003573,-108.050931,188.496058,1001.661447,1000.599159,0
0.081250,-36.637256,171.898559,-150.177496,-2.646927,-3.050948,-2.158314,5.055607,3.196182,2.288950,-5.042109,-0.097641,0.583259,0.007577,-97.569431,188.420694,1003.231046,999.246393,0
0.082292,-107.894586,172.309635,-91.606438,-1.498478,-1.260246,-3.830360,4.707656,1.293432,3.889355,-4.646094,-0.083057,0.578643,-0.011006,-64.616315,188.496154,1005.191949,998.259538,0
0.083333,-149.613910,173.989171,-5.633361,0.134120,0.702922,-4.811512,3.679266,-0.666288,4.825441,-3.595129,-0.072118,0.572993,-0.025873,-14.043921,188.345285,1007.249129,996.457183,0
0.084375,-165.942302,136.240709,71.019384,1.609088,2.486286,-4.925979,2.005233,-2.462697,4.847010,-1.828291,-0.017425,0.561969,0.022444,32.711902,188.496112,1008.025080,994.119920,0
0.085417,-186.123969,55.505509,125.130778,2.689981,4.203599,-4.521254,-0.051546,-4.217329,4.501909,0.144171,-0.010133,0.544261,0.007577,67.905424,188.420623,1009.106601,992.742371,0
0.086458,-161.546631,-16.362207,162.922477,3.410576,4.823740,-3.462428,-1.601863,-4.881963,3.363076,1.720618,0.026329,0.549636,-0.037023,96.783027,188.496044,1010.091200,991.105527,0
0.087500,-111.646161,-85.117496,180.603160,3.725837,4.955841,-1.471508,-3.627713,-5.033879,1.335608,3.704503,0.055498,0.557490,-0.018440,106.971811,188.345312,1011.136718,990.341731,0
0.088542,-34.151273,-135.268689,180.992013,3.770874,4.357717,0.319094,-4.555584,-4.335064,-0.359700,4.618386,0.113837,0.546397,-0.040740,108.210227,188.496100,1011.303104,989.856290,0
0.089584,38.315148,-171.983591,150.454862,3.241687,3.088080,2.195547,-5.085243,-3.104543,-2.305206,5.044864,0.095606,0.583328,0.000144,97.199585,188.420721,1011.729747,989.725127,0
0.090625,108.318186,-172.171511,91.798743,2.081979,1.249674,3.843064,-4.714095,-1.213186,-3.905612,4.618386,0.095606,0.582363,-0.003573,65.023293,188.496109,1012.797988,988.307515,0
0.091667,149.608113,-174.403063,6.408946,0.483158,-0.658452,4.840569,-3.735965,0.735140,-4.846012,3.670233,0.091960,0.573337,-0.014723,15.993290,188.345373,1013.911684,988.013693,0
0.092709,166.083404,-136.501916,-70.037221,-1.025588,-2.434477,4.950948,-2.065798,2.520155,-4.889149,1.899586,0.037267,0.574164,0.026161,-32.451281,188.420708,1014.415850,986.902883,0
0.093750,186.163371,-56.835512,-124.889867,-2.095221,-4.140782,4.562576,-0.059278,4.293777,-4.535421,-0.088107,-0.017425,0.568928,-0.018440,-67.464671,188.420703,1016.152797,985.428707,0
0.094792,161.721633,15.008715,-163.070419,-2.894632,-4.790279,3.556895,1.518101,4.958411,-3.452667,-1.698824,-0.053887,0.573888,-0.029590,-96.657507,188.496176,1017.935664,984.497943,0
0.095834,112.431358,84.456959,-180.532372,-3.243670,-4.915041,1.508741,3.598077,5.144508,-1.407944,-3.675094,-0.079410,0.564587,-0.007290,-107.015165,188.420665,1018.331110,983.872901,0
0.096875,35.207669,135.030973,-180.872618,-3.299967,-4.276552,-0.314566,4.545278,4.460885,0.356385,-4.558513,-0.097641,0.554390,-0.037023,-109.007889,188.495995,1017.847742,983.484089,0
0.097917,-38.400045,171.698894,-150.189647,-2.646927,-3.069296,-2.211460,5.067205,3.143012,2.284636,-5.049725,-0.086703,0.599313,0.026161,-97.546914,188.420759,1017.613563,983.350528,0
0.098958,-108.527381,172.215675,-90.634304,-1.487219,-1.205204,-3.814007,4.692191,1.285836,3.846218,-4.634670,-0.104934,0.574646,0.003860,-66.991821,188.496176,1016.748478,983.422883,0
0.100000,-149.410511,174.224071,-4.636924,0.167898,0.658889,-4.750190,3.671534,-0.632106,4.834069,-3.587514,-0.090349,0.567825,0.000144,-14.077696,188.420725,1016.346393,983.779650,0
0.101042,-165.659804,136.252454,71.067991,1.620348,2.453261,-4.930068,2.020698,-2.447505,4.872893,-1.847330,-0.039302,0.564656,-0.007290,32.723160,188.496015,1016.253473,984.187559,0
0.102083,-186.157868,56.139740,125.057868,2.622425,4.181583,-4.582576,-0.001287,-4.243915,4.476027,0.109901,-0.010133,0.569617,-0.007290,68.231916,188.420792,1016.375890,984.158313,0
0.103125,-161.840429,-14.823611,163.226269,3.444354,4.842088,-3.560543,-1.578666,-4.862973,3.401900,1.732041,0.019036,0.573062,-0.014723,97.514818,188.496085,1016.729270,984.169135,0
0.104167,-112.527555,-84.060445,180.761131,3.827171,4.963180,-1.471508,-3.677973,-5.064262,1.344236,3.712119,0.084667,0.574577,-0.011006,106.814194,188.420593,1017.392772,984.222148,0
0.105208,-36.173959,-135.127749,180.919103,3.815911,4.324692,0.290477,-4.613576,-4.357852,-0.407151,4.587923,0.091960,0.589735,-0.014723,110.945999,188.496000,1018.049844,983.615953,0
0.106250,37.219056,-172.218491,150.624985,3.196650,3.095419,2.220076,-5.077511,-3.070362,-2.339716,5.041056,0.099252,0.583948,0.037311,98.820784,188.420714,1018.762304,982.848699,0
0.107292,108.250386,-172.312451,91.373434,2.059460,1.253343,3.814448,-4.721827,-1.194196,-3.909926,4.648848,0.081021,0.577333,-0.018440,64.010044,188.496130,1019.006359,983.048092,0
0.108334,149.732412,-174.637963,5.157324,0.415603,-0.665791,4.791511,-3.677973,0.735140,-4.833070,3.601692,0.055498,0.569203,0.007577,14.889974,188.420745,1018.617017,982.514847,0
0.109375,165.981705,-136.079095,-71.082265,-1.059366,-2.434477,4.918243,-2.038735,2.599911,-4.910718,1.865316,0.062790,0.561762,-0.011006,-32.045982,188.496150,1019.542693,982.407540,0
0.110417,186.502369,-54.674430,-125.035687,-2.117740,-4.089409,4.517606,-0.001287,4.316565,-4.539735,-0.099531,-0.002841,0.543848,-0.003573,-66.147447,188.496116,1019.390225,982.824062,0
