1-Time,2-VGERA,3-VGERB,4-VGERC,5-VN,6-IGERAN,7-IGERBN,8-IGERCN,9-IGERAT,10-IGERBT,11-IGERCT,12-IN,13-IFD,14-IFAULT,15-VFAULT,16-Speed (rad/s),17-Active Power,18-Reactive Power,19-FAULT 
0.000000,141.167069,-170.092644,21.525625,0.685826,-5.990196,3.883946,2.840316,6.561127,-3.750316,-3.009623,-0.061180,0.309037,-0.022156,55.712659,188.495303,1480.403945,-889.228455,0
0.001042,183.134991,-113.775321,-28.806599,-0.214918,-5.696638,1.717236,4.487286,6.181336,-1.459709,-4.650803,-0.072118,0.320336,-0.025873,61.521954,188.570568,1479.363618,-889.119941,0
0.002083,193.779521,-51.867373,-95.616490,-1.532256,-4.959074,-0.850111,6.111059,5.505309,0.973252,-6.185363,-0.086703,0.319234,-0.018440,58.786181,188.495443,1478.503641,-888.732256,0
0.003125,159.687646,-0.271544,-157.383437,-2.725742,-3.340837,-2.886001,6.211579,3.731687,3.013662,-6.291983,-0.097641,0.282855,-0.022156,38.712589,188.494728,1476.473623,-888.642370,0
0.004167,94.961674,46.626282,-204.580530,-3.626486,-0.977696,-4.856481,5.732179,1.411167,4.954854,-5.743653,-0.097641,0.316960,-0.040740,18.278729,188.495043,1475.600139,-888.167221,0
0.005208,43.162816,115.804391,-184.858367,-3.243670,1.418470,-5.948013,4.313311,-1.095451,5.964275,-4.216709,-0.064826,0.319579,-0.018440,5.297881,188.570490,1474.625483,-888.119892,0
0.006250,-6.376056,180.554632,-135.121574,-2.354185,3.649509,-6.315944,2.407310,-3.370396,6.309375,-2.274710,-0.024718,0.342109,0.000144,-8.955158,188.496116,1473.952985,-886.364380,0
0.007292,-61.056395,194.601664,-74.351064,-1.228255,5.509932,-5.310264,-0.380167,-5.288339,5.239563,0.508823,0.029975,0.319647,-0.029590,-29.906900,188.496201,1473.975419,-885.587968,0
0.008333,-141.353664,169.620027,-22.135331,-0.226178,6.636460,-3.818096,-2.831291,-6.427710,3.807394,2.884916,0.059144,0.313378,-0.022156,-55.778530,188.496054,1472.970324,-885.069760,0
0.009375,-183.163388,114.594655,29.059662,0.798419,6.353910,-1.651385,-4.485993,-6.104888,1.525414,4.579406,0.091960,0.322541,-0.055607,-60.608351,188.646969,1472.820352,-884.747775,0
0.010417,-193.694919,53.262212,96.562198,2.104498,5.671389,0.875080,-6.059507,-5.398478,-0.920489,6.075888,0.106545,0.323368,-0.040740,-57.377212,188.571489,1472.337599,-884.011378,0
0.011458,-160.292339,1.478463,157.915988,3.275465,3.965084,2.919147,-6.299207,-3.689420,-2.939329,6.174891,0.117483,0.340180,0.018727,-40.399659,188.496158,1472.279883,-883.215877,0
0.012500,-96.312162,-46.511648,204.529801,4.176209,1.653316,4.881450,-5.754083,-1.315729,-4.984052,5.626562,0.121129,0.330258,-0.048173,-18.704867,188.571536,1472.584433,-882.931393,0
0.013542,-44.106507,-116.277008,185.050671,3.815911,-0.761197,5.928012,-4.346813,1.187090,-5.967590,4.034884,0.102898,0.334530,-0.037023,-3.348512,188.571462,1472.596359,-883.021761,0
0.014583,6.268560,-180.792349,135.277424,2.870130,-3.076635,6.345002,-2.402151,3.496217,-6.278181,2.165234,0.044560,0.329707,-0.011006,9.823728,188.571489,1472.043531,-882.282951,0
0.015625,61.457395,-194.956831,74.397549,1.732941,-4.845321,5.359762,0.335066,5.353393,-5.208368,-0.625914,-0.013779,0.314618,-0.007290,31.011895,188.495199,1472.551123,-881.603797,0
0.016667,141.528666,-169.752039,21.610687,0.719604,-6.012213,3.896210,2.786191,6.500360,-3.771885,-2.990584,-0.050241,0.311517,-0.011006,56.613325,188.571554,1472.328366,-880.750314,0
0.017708,183.202791,-113.834046,-29.256211,-0.271215,-5.718655,1.709059,4.510483,6.177538,-1.515788,-4.669842,-0.068472,0.320543,-0.011006,62.118645,188.571466,1472.955158,-880.412918,0
0.018750,193.689122,-51.890863,-96.090405,-1.577294,-4.973752,-0.825583,6.095595,5.505309,0.973252,-6.204402,-0.126811,0.313309,-0.011006,58.831215,188.571556,1473.232417,-880.516262,0
0.019792,159.518147,-0.060133,-157.590015,-2.737001,-3.337167,-2.886001,6.242508,3.784858,3.026603,-6.314830,-0.086703,0.318752,-0.007290,41.110612,188.496080,1474.072682,-880.395682,0
0.020833,94.701776,47.084337,-204.714198,-3.671523,-1.003383,-4.885098,5.778573,1.373188,4.963482,-5.774116,-0.086703,0.350032,-0.022156,18.841646,188.571612,1474.346673,-880.676253,0
0.021875,42.676919,116.415132,-184.809760,-3.277448,1.378105,-5.956189,4.324909,-1.080259,5.951333,-4.209093,-0.090349,0.334805,-0.022156,4.937615,188.571676,1474.461768,-880.165018,0
0.022917,-6.850653,180.742552,-134.769176,-2.342926,3.682534,-6.307768,2.368649,-3.412173,6.322317,-2.286133,-0.032010,0.325091,-0.022156,-9.146549,188.571489,1474.873425,-880.327474,0
0.023958,-61.338893,194.824819,-73.427537,-1.160699,5.498923,-5.306176,-0.422694,-5.303530,5.213680,0.501207,-0.010133,0.318063,-0.044457,-30.469816,188.495987,1474.899202,-880.017079,0
0.025000,-141.557063,169.608282,-21.029529,-0.181140,6.640129,-3.838536,-2.846756,-6.439104,3.820335,2.884916,0.077375,0.309726,-0.037023,-55.756013,188.646935,1475.405114,-879.629685,0
0.026042,-183.152088,113.725524,29.424212,0.798419,6.324555,-1.651385,-4.501458,-6.139070,1.521100,4.560367,0.088314,0.325435,-0.003573,-62.330875,188.571451,1475.703542,-879.146828,0
0.027083,-193.694919,52.663217,96.914597,2.138276,5.645702,0.875080,-6.156160,-5.432659,-0.972254,6.064464,0.143006,0.324953,-0.011006,-58.334170,188.571616,1475.950506,-879.271535,0
0.028125,-159.467445,0.867722,158.462814,3.275465,4.031134,2.890530,-6.264412,-3.697016,-2.995408,6.174891,0.124775,0.336735,-0.014723,-40.895025,188.496188,1476.173239,-879.399461,0
0.029167,-95.871465,-47.063664,204.687773,4.243765,1.631299,4.848745,-5.785012,-1.311932,-4.984052,5.641794,0.121129,0.338664,-0.022156,-18.738642,188.647000,1476.507551,-879.181494,0
0.030208,-44.196906,-116.735064,184.625363,3.849689,-0.724503,6.005687,-4.339081,1.171899,-5.928766,4.092002,0.081021,0.311035,-0.037023,-3.145862,188.571561,1476.935493,-878.409274,0
0.031250,6.517158,-181.027249,135.338182,2.892649,-3.039940,6.381795,-2.386687,3.526600,-6.329946,2.138579,0.037267,0.328604,0.003860,9.632336,188.571491,1477.413658,-879.107142,0
0.032292,61.999792,-194.440050,74.276032,1.699163,-4.871007,5.331145,0.393058,5.387574,-5.169544,-0.610683,-0.002841,0.316891,-0.011006,31.146994,188.496170,1477.254918,-879.023640,0
0.033333,142.025863,-169.939959,21.282592,0.685826,-6.023221,3.883946,2.774592,6.549733,-3.763258,-2.982968,-0.039302,0.312689,-0.040740,55.735175,188.646830,1477.902720,-879.229534,0
0.034375,182.965492,-113.575656,-29.511396,-0.271215,-5.718655,1.660002,4.498885,6.173740,-1.481278,-4.650803,-0.050241,0.323437,-0.029590,61.499438,188.571514,1477.489745,-879.100335,0
0.035417,193.756921,-51.855628,-96.637230,-1.554775,-4.999438,-0.833759,6.083997,5.535692,0.964625,-6.185363,-0.115872,0.322610,-0.033307,58.696115,188.571603,1477.966713,-878.738174,0
0.036458,159.246949,0.163022,-157.857352,-2.748261,-3.362854,-2.886001,6.273437,3.743081,3.026603,-6.284367,-0.093995,0.339835,-0.037023,38.498680,188.496112,1477.336659,-878.623787,0
0.037500,94.645276,47.295747,-204.860018,-3.671523,-0.999713,-4.872834,5.736045,1.361794,5.028188,-5.739846,-0.101287,0.339560,-0.037023,18.042305,188.571683,1477.258286,-879.294869,0
0.038542,42.733419,116.579562,-184.493817,-3.288707,1.356088,-5.948013,4.313311,-1.114440,5.998785,-4.178630,-0.075764,0.361194,-0.033307,4.937615,188.571578,1477.160203,-880.039726,0
0.039583,-7.121851,181.165372,-134.380323,-2.320407,3.697212,-6.315944,2.372515,-3.427365,6.309375,-2.244247,-0.057533,0.329845,-0.029590,-9.225358,188.571627,1476.832662,-880.229259,0
0.040625,-61.756990,194.636899,-72.953622,-1.126922,5.575982,-5.302088,-0.407230,-5.326318,5.222308,0.516439,0.000805,0.309037,-0.025873,-30.132066,188.496255,1477.050760,-880.286026,0
0.041667,-141.873461,169.526067,-20.494855,-0.147362,6.654807,-3.895770,-2.831291,-6.450498,3.816021,2.896340,0.084667,0.312275,-0.048173,-55.756013,188.646958,1477.287496,-880.274101,0
0.042708,-182.926090,113.091294,29.873824,0.843456,6.372258,-1.684090,-4.509190,-6.120080,1.486590,4.537520,0.102898,0.323230,-0.029590,-60.675901,188.647005,1476.726358,-879.861311,0
0.043750,-193.638419,51.453481,97.352057,2.115757,5.664050,0.866904,-6.152294,-5.421265,-0.946371,6.064464,0.124775,0.312206,-0.040740,-57.242112,188.571529,1476.920807,-879.072073,0
0.044792,-159.060647,0.092552,158.365600,3.309243,3.972423,2.919147,-6.306939,-3.678027,-2.973839,6.186315,0.153945,0.339560,-0.040740,-40.095684,188.496080,1476.864825,-878.598290,0
0.045833,-94.922271,-47.286819,204.942958,4.119912,1.587265,4.910067,-5.800476,-1.323325,-4.979738,5.645601,0.135714,0.338595,-0.033307,-18.682350,188.722469,1477.050447,-878.078372,0
0.046875,-43.518911,-117.228354,184.467391,3.793393,-0.772206,6.013863,-4.304285,1.221271,-5.954648,4.057731,0.073729,0.321990,-0.051890,-3.314737,188.571522,1476.907549,-878.549606,0
0.047917,6.743157,-181.614499,134.937177,2.881389,-3.065626,6.324561,-2.440812,3.530398,-6.273867,2.165234,0.070083,0.319165,-0.022156,10.105186,188.571475,1476.795118,-877.973732,0
0.048958,62.508288,-194.369580,74.069454,1.721681,-4.852660,5.343409,0.373728,5.383776,-5.169544,-0.633530,0.022683,0.315651,-0.025873,31.417194,188.496215,1476.795420,-877.949301,0
0.050000,142.816858,-169.611099,21.428412,0.708344,-6.015882,3.937092,2.786191,6.568723,-3.724434,-2.979160,-0.039302,0.313378,-0.029590,56.782200,188.722297,1476.774323,-878.094259,0
0.051042,183.180191,-113.446461,-29.803036,-0.248696,-5.711316,1.676354,4.495019,6.192730,-1.481278,-4.715536,-0.075764,0.323713,-0.025873,62.141162,188.571484,1477.327869,-878.764013,0
0.052083,193.734321,-51.949588,-97.354179,-1.588553,-4.981091,-0.850111,6.103327,5.520501,0.977566,-6.177747,-0.097641,0.322886,-0.011006,58.707373,188.571549,1477.306265,-878.786330,0
0.053125,158.851452,-0.048388,-158.355571,-2.759520,-3.348176,-2.926883,6.261838,3.746879,3.005034,-6.311022,-0.097641,0.325022,-0.022156,40.784120,188.496024,1477.670946,-878.629420,0
0.054167,94.261079,47.507158,-205.115203,-3.603968,-0.992374,-4.917803,5.766974,1.350400,5.054071,-5.796963,-0.086703,0.344383,-0.003573,18.796612,188.722355,1478.472578,-878.927722,0
0.055208,42.620420,117.319498,-183.983446,-3.221151,1.425808,-5.960277,4.266917,-1.167611,6.003098,-4.190054,-0.083057,0.332945,-0.014723,4.870065,188.646945,1478.610126,-879.231922,0
0.056250,-7.313950,181.717388,-133.955014,-2.320407,3.774271,-6.340473,2.364783,-3.480536,6.313689,-2.248055,-0.013779,0.317305,-0.040740,-9.529332,188.571571,1478.946250,-879.625114,0
0.057292,-62.344587,194.296294,-72.418949,-1.126922,5.634694,-5.293911,-0.461356,-5.349105,5.230935,0.584980,0.015390,0.305385,-0.033307,-30.818824,188.496159,1478.867718,-880.115143,0
0.058333,-142.596656,169.596537,-19.838665,-0.136103,6.720858,-3.814007,-2.885417,-6.518860,3.794453,2.953457,0.081021,0.305661,-0.070474,-55.767272,188.722391,1479.570841,-881.074970,0
0.059375,-183.197288,111.881558,30.226222,0.798419,6.383266,-1.602328,-4.598111,-6.116282,1.465021,4.644139,0.128422,0.317236,-0.025873,-62.544783,188.647038,1479.771061,-881.886651,0
0.060417,-193.898317,50.737035,97.996095,2.127016,5.675058,0.907785,-6.171624,-5.459245,-1.006764,6.152044,0.143006,0.324953,-0.044457,-58.109003,188.571471,1480.920789,-882.972190,0
0.061458,-157.625557,-0.459464,159.058246,3.309243,3.976092,2.984557,-6.357199,-3.647644,-3.081683,6.247240,0.146652,0.297737,-0.022156,-40.084425,188.496243,1481.284425,-884.049467,0
0.062500,-93.566280,-47.674404,205.586997,4.187468,1.579926,4.983653,-5.800476,-1.232176,-5.100524,5.668449,0.095606,0.327778,-0.022156,-18.569767,188.722241,1481.655329,-885.613479,0
0.063542,-42.468018,-117.909565,183.713987,3.782133,-0.819909,6.034303,-4.296553,1.263048,-5.984845,4.103426,0.091960,0.339904,-0.014723,-3.123346,188.646911,1482.404240,-885.456055,0
0.064583,7.274253,-182.154770,134.475414,2.858871,-3.146355,6.418588,-2.367356,3.568377,-6.321318,2.138579,0.044560,0.331016,-0.025873,9.992602,188.571467,1482.966108,-885.943308,0
0.065625,62.768187,-193.958505,73.729207,1.699163,-4.977422,5.367938,0.427853,5.436947,-5.216995,-0.690647,-0.006487,0.307521,-0.029590,31.777461,188.571458,1483.414400,-886.755637,0
0.066667,143.517453,-169.763784,20.869435,0.697085,-6.078263,3.900298,2.848049,6.602904,-3.819337,-3.047701,-0.032010,0.315031,-0.007290,55.701400,188.722404,1485.007071,-887.152355,0
0.067708,183.315790,-112.741760,-30.033918,-0.271215,-5.700308,1.704971,4.568475,6.230709,-1.446768,-4.757422,-0.072118,0.323781,-0.018440,61.837187,188.646938,1485.324784,-887.699231,0
0.068750,194.084619,-52.160998,-98.362768,-1.577294,-5.036133,-0.866464,6.176784,5.566076,0.973252,-6.257712,-0.086703,0.326469,-0.018440,58.403398,188.571710,1486.901095,-888.363747,0
0.069792,158.139556,-0.283289,-159.133278,-2.782039,-3.359184,-2.935059,6.300500,3.777262,3.095623,-6.341485,-0.148688,0.329156,-0.055607,38.037089,188.496132,1487.612253,-889.257696,0
0.070833,94.102880,47.824273,-205.601270,-3.649005,-0.974027,-5.003654,5.759242,1.285836,5.110150,-5.770308,-0.137749,0.325022,-0.044457,18.053563,188.722230,1487.354031,-890.311765,0
0.071875,42.744719,118.153393,-183.424469,-3.243670,1.458834,-6.009335,4.282382,-1.160015,6.033295,-4.216709,-0.064826,0.335632,-0.044457,4.937615,188.647014,1488.076200,-890.190290,0
0.072917,-7.246151,182.539539,-133.444644,-2.309148,3.807296,-6.365002,2.353184,-3.503323,6.395651,-2.232823,0.004452,0.329776,-0.029590,-9.484299,188.571867,1489.056921,-890.774651,0
0.073958,-62.841783,193.932198,-72.090853,-1.126922,5.623685,-5.322528,-0.523214,-5.425063,5.230935,0.626866,0.051852,0.307177,-0.029590,-30.796308,188.571201,1489.276359,-891.625801,0
0.075000,-143.410251,169.432107,-19.717148,-0.124844,6.816264,-3.879418,-2.962739,-6.556839,3.820335,3.010575,0.084667,0.309106,-0.044457,-55.587138,188.721949,1490.099600,-892.269385,0
0.076042,-183.242488,111.188602,30.432801,0.843456,6.390605,-1.594152,-4.667701,-6.188442,1.387374,4.686025,0.095606,0.319854,-0.044457,-61.182526,188.646449,1490.405074,-893.276524,0
0.077083,-194.033916,50.654820,98.627982,2.138276,5.697075,0.969107,-6.264412,-5.466840,-1.049902,6.190123,0.124775,0.324815,0.000144,-57.005687,188.571125,1490.866179,-893.983288,0
0.078125,-157.105760,-0.788324,159.471402,3.343021,3.965084,3.025438,-6.388128,-3.662835,-3.068742,6.308166,0.132068,0.341833,-0.011006,-38.958593,188.646449,1491.732938,-893.831424,0
0.079167,-92.583187,-48.120715,206.206732,4.198728,1.554240,5.065416,-5.866201,-1.262559,-5.096210,5.698911,0.102898,0.343418,-0.044457,-17.860493,188.721838,1492.557989,-893.182984,0
0.080208,-41.654423,-118.402855,183.470954,3.770874,-0.838256,6.116066,-4.346813,1.293432,-6.036610,4.122465,0.099252,0.322335,-0.044457,-3.123346,188.571147,1493.271487,-893.414271,0
0.081250,7.647151,-183.141351,133.478977,2.858871,-3.194058,6.463557,-2.375088,3.632942,-6.373083,2.134771,0.091960,0.324470,-0.014723,10.420419,188.571170,1494.191900,-893.931586,0
0.082292,63.141084,-193.829310,72.696315,1.710422,-4.981091,5.372026,0.404657,5.509107,-5.273074,-0.743957,0.015390,0.314687,-0.018440,32.025144,188.646527,1495.019680,-894.644509,0
0.083333,144.206749,-169.599354,20.492733,0.685826,-6.173670,3.973885,2.902174,6.694054,-3.858160,-3.070548,-0.050241,0.315720,-0.033307,56.951074,188.721887,1496.490514,-895.138767,0
0.084375,183.496589,-111.966589,-30.131131,-0.293733,-5.814061,1.647737,4.618735,6.295273,-1.455395,-4.845003,-0.086703,0.327709,-0.018440,62.310037,188.571105,1497.546494,-895.938691,0
0.085417,194.231518,-52.114018,-99.176930,-1.644849,-5.102184,-0.833759,6.230909,5.604055,1.050900,-6.318638,-0.093995,0.328880,-0.011006,58.561015,188.571125,1498.437132,-897.171762,0
0.086458,157.382461,-0.424229,-160.129715,-2.815817,-3.410557,-2.984117,6.408751,3.796252,3.173271,-6.478567,-0.130457,0.341075,-0.011006,40.097363,188.646513,1500.193368,-898.544882,0
0.087500,94.001180,47.965213,-206.111641,-3.682783,-0.988705,-5.077240,5.882958,1.339007,5.213680,-5.842657,-0.115872,0.330878,-0.048173,18.954229,188.721898,1502.069554,-899.278034,0
0.088541,43.128916,119.092994,-182.743976,-3.243670,1.513876,-6.152419,4.313311,-1.228378,6.179963,-4.266211,-0.057533,0.327709,-0.014723,5.095231,188.571096,1503.724598,-900.878989,0
0.089583,-7.110552,183.126789,-133.323127,-2.320407,3.840322,-6.459029,2.326122,-3.567888,6.473298,-2.229015,-0.053887,0.331912,-0.018440,-9.900857,188.571167,1504.757354,-901.990389,0
0.090625,-63.384180,193.744278,-71.714152,-1.138181,5.686066,-5.351145,-0.507749,-5.497224,5.334465,0.615442,0.011744,0.316340,-0.014723,-31.528099,188.646621,1506.506190,-902.265006,0
0.091666,-144.246445,169.713988,-19.170323,-0.136103,6.849289,-3.912123,-2.974338,-6.628999,3.863473,3.041038,0.106545,0.312137,-0.007290,-55.834822,188.721878,1508.043559,-902.758703,0
0.092708,-183.705785,110.084571,30.396346,0.820937,6.497020,-1.585975,-4.752756,-6.260603,1.378746,4.800261,0.088314,0.322128,-0.014723,-62.950083,188.571120,1509.171060,-903.943754,0
0.093750,-194.124316,50.478645,99.247718,2.183313,5.810828,1.009989,-6.353332,-5.542798,-1.123236,6.258664,0.139360,0.328536,-0.044457,-57.872578,188.571096,1510.476998,-905.117582,0
0.094791,-155.727169,-0.647384,160.868845,3.331761,4.042143,3.119465,-6.492513,-3.734995,-3.159331,6.403362,0.143006,0.334461,-0.011006,-38.800976,188.646370,1512.368597,-905.912693,0
0.095833,-92.198989,-48.261655,206.668495,4.232505,1.620291,5.167619,-5.951255,-1.262559,-5.186799,5.744605,0.121129,0.316891,-0.022156,-17.871751,188.721951,1513.468876,-906.812697,0
0.096875,-41.417125,-119.436416,182.826915,3.759615,-0.904307,6.214181,-4.366143,1.342804,-6.183278,4.156735,0.106545,0.317649,-0.014723,-3.055796,188.571004,1515.117164,-908.003073,0
0.097916,8.053948,-183.540681,132.895696,2.903908,-3.216075,6.557584,-2.382821,3.670921,-6.467986,2.157618,0.073729,0.305041,-0.048173,10.397902,188.572733,1516.536671,-908.323740,0
0.098958,63.581781,-193.841055,71.468996,1.710422,-5.109523,5.429260,0.509042,5.642034,-5.333467,-0.747765,-0.002841,0.322679,-0.029590,32.441702,188.646516,1518.101991,-909.072471,0
0.100001,144.398847,-169.646334,19.386931,0.697085,-6.291093,4.010678,2.952434,6.789001,-3.840905,-3.127666,-0.053887,0.314962,-0.014723,55.386167,188.722835,1518.966970,-910.070390,0
0.101042,183.982486,-110.181348,-30.313406,-0.293733,-5.869104,1.676354,4.688325,6.382625,-1.420885,-4.909736,-0.093995,0.329431,-0.044457,62.591495,188.571732,1519.923598,-910.641064,0
0.102083,194.299317,-51.268377,-99.808817,-1.611071,-5.201259,-0.899169,6.296634,5.661023,1.042273,-6.387179,-0.134103,0.344245,-0.051890,57.998099,188.571822,1521.402479,-910.706793,0
0.103125,156.173369,-0.259798,-161.308427,-2.827076,-3.384870,-3.057703,6.447412,3.826635,3.181898,-6.493798,-0.115872,0.343762,-0.003573,37.260265,188.647440,1522.089514,-910.292713,0
0.104167,93.515283,48.188368,-206.306067,-3.694042,-0.977696,-5.097681,5.968013,1.380784,5.213680,-5.934046,-0.090349,0.334943,-0.011006,18.222438,188.722849,1523.527584,-909.840888,0
0.105209,43.038517,119.950380,-182.342971,-3.221151,1.506537,-6.160595,4.402232,-1.239771,6.253297,-4.327136,-0.075764,0.330671,-0.033307,5.264106,188.572047,1524.989071,-910.110846,0
0.106250,-7.246151,183.737530,-132.642633,-2.342926,3.866008,-6.532615,2.380247,-3.537504,6.503495,-2.263286,0.000805,0.329087,-0.022156,-9.686949,188.571752,1525.765909,-909.380710,0
0.107292,-63.949176,193.568103,-71.835668,-1.160699,5.733770,-5.420643,-0.538678,-5.554192,5.351720,0.672560,0.011744,0.320474,-0.011006,-31.877107,188.648032,1526.074793,-910.392066,0
0.108333,-145.048740,169.455597,-19.206778,-0.113585,6.933687,-3.977533,-3.020731,-6.701160,3.880728,3.029614,0.059144,0.316960,-0.014723,-55.339455,188.723043,1527.160687,-910.560134,0
0.109375,-184.033482,109.567791,30.566469,0.843456,6.519037,-1.557358,-4.756622,-6.298582,1.434825,4.849763,0.102898,0.325986,-0.007290,-61.959350,188.572134,1528.301483,-910.555257,0
0.110417,-194.259915,50.713545,100.207700,2.172053,5.788812,1.030429,-6.399726,-5.576980,-1.075784,6.319589,0.143006,0.321370,-0.055607,-56.724229,188.571160,1529.719499,-910.572480,0
