1-Time,2-VGERA,3-VGERB,4-VGERC,5-VN,6-IGERAN,7-IGERBN,8-IGERCN,9-IGERAT,10-IGERBT,11-IGERCT,12-IN,13-IFD,14-IFAULT,15-VFAULT,16-Speed (rad/s),17-Active Power,18-Reactive Power,19-FAULT 
0.000000,155.563173,-149.139546,-0.092199,0.381825,-6.151653,3.115377,3.629006,6.705447,-2.952270,-3.845013,-0.090349,0.318201,-0.029590,15.565473,188.420236,1520.922295,-915.035127,0
0.001042,203.813855,-86.397702,-51.542377,-0.642772,-5.725994,0.601176,5.411291,6.188932,-0.437348,-5.558542,-0.126811,0.318063,-0.033307,26.350948,188.420164,1520.011590,-915.179592,0
0.002083,178.671521,-33.639117,-125.388085,-2.072703,-4.415992,-1.745412,6.246374,4.852069,1.930908,-6.335342,-0.126811,0.326882,-0.040740,29.683412,188.420296,1518.532231,-915.317531,0
0.003125,132.624325,14.621129,-187.908436,-3.333744,-2.753721,-3.773126,6.431948,3.124022,3.833276,-6.411499,-0.163272,0.342936,0.003860,29.064204,188.269521,1517.309015,-915.479046,0
0.004167,75.141605,71.866308,-198.735576,-3.536412,0.035078,-5.473789,5.159992,0.230018,5.519957,-5.147295,-0.148688,0.323919,-0.018440,17.986013,188.420274,1515.858813,-915.163099,0
0.005208,20.280467,147.445448,-172.487965,-3.029743,2.522981,-6.516263,3.710195,-2.238621,6.525064,-3.643197,-0.083057,0.331567,-0.014723,6.862788,188.420191,1515.208377,-914.984592,0
0.006250,-27.834615,186.380157,-112.835409,-1.915073,4.431107,-6.005246,1.197213,-4.251511,5.938392,-1.027210,-0.053887,0.326469,-0.018440,3.609132,188.495788,1514.447836,-914.999557,0
0.007292,-96.278262,194.378509,-51.700348,-0.710327,6.306207,-4.975037,-1.493611,-6.097293,4.890148,1.584969,-0.006487,0.311242,-0.011006,-3.055796,188.269518,1513.499657,-914.134964,0
0.008333,-155.229973,149.559550,0.454627,0.291750,6.746544,-3.082232,-3.635446,-6.572031,2.948955,3.770671,0.059144,0.316478,0.041027,-15.181011,188.420408,1512.650062,-913.461098,0
0.009375,-203.830952,86.641531,52.026321,1.305087,6.313546,-0.621176,-5.467989,-6.070707,0.498739,5.491815,0.084667,0.322403,-0.025873,-24.896946,188.420359,1511.708441,-912.655862,0
0.010417,-178.959816,34.012141,125.446722,2.723759,4.977858,1.733588,-6.272144,-4.718653,-1.878144,6.276230,0.124775,0.332807,-0.029590,-28.600934,188.495665,1510.193613,-912.147430,0
0.011458,-132.777021,-14.271596,188.283016,3.984801,3.286231,3.757214,-6.453852,-3.032383,-3.845219,6.318117,0.139360,0.346587,-0.029590,-29.400275,188.269433,1509.582723,-911.575330,0
0.012500,-75.667199,-71.657715,198.563330,4.198728,0.508440,5.437436,-5.170298,-0.161166,-5.518959,5.072952,0.088314,0.337079,-0.025873,-17.207510,188.420242,1507.771074,-911.362870,0
0.013542,-20.478363,-147.847595,172.595208,3.703318,-1.909742,6.475822,-3.724366,2.265696,-6.485241,3.553624,0.033621,0.332738,-0.022156,-6.388260,188.420263,1506.402264,-911.234330,0
0.014583,28.077416,-186.242033,113.525932,2.566129,-3.821538,5.952541,-1.261644,4.320362,-5.864059,1.002370,0.004452,0.328949,-0.007290,-3.607454,188.495816,1505.577277,-910.933514,0
0.015625,96.554963,-194.534010,52.317961,1.383902,-5.623249,4.959125,1.409850,6.143357,-4.876208,-1.628849,-0.021072,0.312275,-0.011006,3.406483,188.269554,1504.859782,-909.995956,0
0.016667,155.303275,-149.867737,0.017166,0.359306,-6.092941,3.143994,3.594211,6.602904,-2.917760,-3.841205,-0.093995,0.318890,-0.022156,15.610506,188.420325,1503.530809,-909.862357,0
0.017708,203.723455,-87.149383,-51.505922,-0.642772,-5.678291,0.633881,5.399692,6.116772,-0.424406,-5.569965,-0.104934,0.323368,-0.033307,26.092007,188.495709,1502.671655,-910.278560,0
0.018750,178.965319,-34.555228,-125.315175,-2.106481,-4.404984,-1.782206,6.184516,4.833080,1.896397,-6.365804,-0.123164,0.333910,-0.029590,29.030429,188.495656,1502.766199,-910.630603,0
0.019792,133.324920,14.186564,-187.920588,-3.311226,-2.724365,-3.748597,6.424216,3.093639,3.859159,-6.369612,-0.159626,0.335426,-0.014723,28.636388,188.269525,1502.103526,-911.341569,0
0.020833,76.192498,71.831073,-198.541149,-3.513893,0.027739,-5.457437,5.136796,0.260401,5.511330,-5.113024,-0.130457,0.338182,-0.022156,18.323763,188.420095,1501.775875,-911.363276,0
0.021875,21.150562,147.457193,-172.633785,-3.029743,2.442252,-6.528527,3.675400,-2.215833,6.512122,-3.635582,-0.068472,0.333014,-0.025873,7.223055,188.420164,1501.528831,-911.444687,0
0.022917,-27.642516,186.391902,-113.394385,-1.881295,4.431107,-5.943924,1.216543,-4.247713,5.865058,-1.027210,-0.057533,0.329431,-0.022156,3.732974,188.495606,1500.705584,-911.486684,0
0.023958,-96.470361,194.108373,-52.441600,-0.721587,6.320885,-5.003654,-1.516808,-6.074505,4.877207,1.615432,-0.006487,0.312068,-0.029590,-2.875663,188.269550,1500.198456,-911.821149,0
0.025000,-155.681970,149.571295,-0.152957,0.280491,6.713519,-3.074055,-3.639312,-6.541648,2.940328,3.808749,0.059144,0.318063,-0.014723,-15.147236,188.495613,1499.871538,-912.331661,0
0.026042,-203.672753,87.639857,52.050625,1.316347,6.284190,-0.592559,-5.452525,-6.070707,0.481484,5.533701,0.088314,0.324264,-0.011006,-25.471120,188.420115,1499.932487,-913.295162,0
0.027083,-178.880716,34.939997,125.884182,2.746278,4.941163,1.725412,-6.279876,-4.726249,-1.912654,6.310501,0.135714,0.333083,-0.037023,-28.623451,188.495613,1500.249125,-914.223542,0
0.028125,-133.556716,-14.060185,187.906314,3.962282,3.282562,3.806271,-6.422923,-2.998202,-3.875415,6.325732,0.106545,0.342316,-0.029590,-29.377759,188.269805,1500.008448,-915.141370,0
0.029167,-76.401694,-71.775165,198.441814,4.164950,0.552474,5.461965,-5.170298,-0.126985,-5.549155,5.069145,0.132068,0.334530,-0.025873,-17.928043,188.495691,1499.958802,-916.016972,0
0.030208,-21.111159,-147.612695,172.680270,3.692059,-1.920751,6.537144,-3.801689,2.311270,-6.489555,3.515545,0.051852,0.329018,-0.007290,-7.210118,188.420198,1499.360216,-917.013860,0
0.031250,27.919217,-186.253778,114.024150,2.577388,-3.825207,5.960717,-1.273242,4.324160,-5.838177,1.025217,0.022683,0.327778,-0.011006,-3.641229,188.495604,1499.264267,-917.043020,0
0.032292,96.362865,-194.263875,52.986303,1.395162,-5.667283,4.971389,1.413716,6.131963,-4.807188,-1.640273,-0.035656,0.315445,-0.037023,3.631649,188.269675,1498.154810,-917.405420,0
0.033333,155.506674,-149.985187,0.503233,0.370565,-6.096611,3.045879,3.574880,6.614298,-2.926388,-3.784088,-0.079410,0.322059,-0.044457,15.655540,188.420216,1498.325953,-916.955949,0
0.034375,203.395757,-87.783614,-51.615287,-0.687809,-5.700308,0.605264,5.368763,6.147155,-0.467544,-5.539503,-0.112226,0.324953,-0.018440,26.328432,188.420365,1498.746955,-916.470727,0
0.035417,179.033118,-34.942813,-125.363782,-2.072703,-4.357281,-1.720884,6.184516,4.795101,1.887770,-6.259185,-0.141395,0.332463,-0.048173,29.604604,188.495689,1497.462156,-915.787246,0
0.036458,133.517019,14.057369,-187.701858,-3.266189,-2.746382,-3.752685,6.377822,3.146810,3.863473,-6.358189,-0.130457,0.355407,-0.033307,29.041688,188.344901,1497.740836,-915.515913,0
0.037500,76.192498,71.607918,-198.419632,-3.513893,0.064434,-5.400203,5.148394,0.279391,5.468192,-5.093985,-0.097641,0.329776,-0.025873,18.177404,188.420283,1497.263493,-914.930656,0
0.038542,21.173162,147.398468,-172.317842,-3.007225,2.486286,-6.471293,3.675400,-2.215833,6.481926,-3.605119,-0.093995,0.329087,-0.025873,7.166763,188.420301,1496.575212,-914.770653,0
0.039583,-27.766815,185.851631,-113.941211,-1.926332,4.438446,-5.980718,1.232008,-4.205936,5.912509,-1.069096,-0.035656,0.319234,-0.003573,3.732974,188.495667,1497.177948,-914.212880,0
0.040625,-96.142663,194.319784,-52.405145,-0.721587,6.280521,-4.921891,-1.427887,-6.044122,4.855638,1.584969,0.033621,0.311586,-0.018440,-3.044537,188.344907,1496.806638,-913.742416,0
0.041667,-154.913575,150.158546,0.199442,0.291750,6.684163,-3.065879,-3.619981,-6.496073,2.953269,3.740208,0.088314,0.321232,-0.044457,-15.226045,188.495636,1496.349993,-912.717791,0
0.042708,-203.559753,87.217037,52.074928,1.293828,6.287860,-0.617088,-5.421596,-6.040324,0.503052,5.465160,0.117483,0.324402,-0.025873,-24.908204,188.420166,1495.788717,-911.561732,0
0.043750,-179.129315,34.235296,125.276598,2.746278,4.963180,1.741764,-6.241215,-4.699663,-1.856575,6.219113,0.117483,0.325917,-0.011006,-28.522126,188.495653,1494.807811,-910.134048,0
0.044792,-132.833521,-14.306831,188.064286,3.973542,3.308248,3.789919,-6.419057,-2.994404,-3.797768,6.314309,0.121129,0.352719,-0.011006,-29.389017,188.269510,1494.520390,-908.920000,0
0.045833,-75.362101,-71.399325,198.441814,4.164950,0.519449,5.433348,-5.201227,-0.180156,-5.480135,5.034874,0.077375,0.339766,-0.022156,-17.342610,188.495649,1493.879122,-907.387605,0
0.046875,-20.105466,-147.800615,172.522298,3.658281,-1.917081,6.479910,-3.751429,2.296079,-6.480927,3.618357,0.059144,0.333496,-0.025873,-6.534618,188.419909,1495.094624,-906.236125,0
0.047917,28.258215,-185.948408,114.060605,2.554870,-3.770165,5.911659,-1.284841,4.286181,-5.855432,1.032832,0.000805,0.312413,-0.025873,-3.607454,188.495814,1495.217908,-905.681855,0
0.048958,96.091666,-194.569245,52.147838,1.428940,-5.634257,4.971389,1.405983,6.071197,-4.850326,-1.594579,-0.021072,0.314411,0.007577,3.417741,188.344894,1495.547746,-904.368325,0
0.050000,154.783479,-150.184852,-0.359535,0.381825,-6.074594,3.086760,3.513022,6.549733,-2.943643,-3.742201,-0.086703,0.319441,-0.018440,15.599248,188.495736,1495.021916,-903.217836,0
0.051042,203.474857,-86.656093,-51.481618,-0.654031,-5.652605,0.637969,5.384228,6.150953,-0.489113,-5.512848,-0.097641,0.322886,-0.022156,26.069490,188.420220,1495.028795,-902.346032,0
0.052083,179.112218,-33.639117,-124.841260,-2.083962,-4.357281,-1.712707,6.169051,4.814090,1.831691,-6.312495,-0.137749,0.325986,-0.051890,28.974138,188.495658,1495.799683,-901.676957,0
0.053125,132.714724,14.762069,-187.762616,-3.277448,-2.665654,-3.719980,6.331429,3.127820,3.846218,-6.381036,-0.112226,0.307245,-0.037023,28.647646,188.344825,1495.904629,-901.206874,0
0.054167,74.938206,71.631408,-198.565452,-3.547671,0.064434,-5.396115,5.109733,0.264199,5.459564,-5.086370,-0.119518,0.333910,0.011294,18.357538,188.420307,1495.709441,-900.790160,0
0.055208,20.077069,147.234038,-172.475813,-3.074780,2.515642,-6.479470,3.683132,-2.219631,6.468985,-3.589888,-0.079410,0.313722,-0.011006,7.189280,188.420238,1495.544869,-900.453945,0
0.056250,-28.049313,186.215727,-113.260717,-1.903813,4.438446,-5.919396,1.177882,-4.183148,5.860744,-1.061481,-0.032010,0.344176,-0.033307,3.631649,188.495644,1495.024122,-899.813802,0
0.057292,-95.860165,194.425489,-51.360101,-0.687809,6.269513,-4.921891,-1.516808,-6.028930,4.851324,1.584969,0.026329,0.310966,-0.029590,-2.931954,188.344769,1494.896474,-899.351141,0
0.058333,-155.026574,149.665255,0.649053,0.291750,6.739205,-3.053615,-3.647044,-6.473285,2.979152,3.747823,0.088314,0.316409,-0.011006,-15.079686,188.420349,1494.987442,-898.840212,0
0.059375,-203.582353,86.500591,51.977715,1.350125,6.258504,-0.572118,-5.444793,-6.021335,0.485797,5.488007,0.095606,0.318614,-0.029590,-25.426087,188.420349,1494.714881,-898.953533,0
0.060417,-178.982416,33.612811,125.142930,2.757537,4.915477,1.745853,-6.233483,-4.722451,-1.856575,6.222921,0.110191,0.330878,-0.055607,-28.623451,188.495781,1494.968243,-898.655061,0
0.061458,-132.935220,-14.894081,187.663281,3.939764,3.289901,3.777654,-6.419057,-2.990606,-3.810709,6.337156,0.095606,0.318752,0.000144,-29.310209,188.344778,1495.208443,-898.744355,0
0.062500,-74.932703,-71.622480,198.757757,4.164950,0.504771,5.408819,-5.174164,-0.123187,-5.514645,5.042490,0.099252,0.343487,-0.011006,-17.883009,188.420238,1495.343643,-899.485704,0
0.063542,-19.743868,-147.413030,172.643815,3.692059,-1.865709,6.443117,-3.732099,2.345452,-6.442104,3.546008,0.062790,0.282648,-0.029590,-7.063759,188.420231,1494.074965,-900.028752,0
0.064583,28.450313,-186.112838,113.635297,2.577388,-3.828877,5.928012,-1.265510,4.267192,-5.881315,0.998562,0.004452,0.339904,-0.014723,-3.404804,188.495703,1494.115056,-899.969322,0
0.065625,95.922168,-194.510520,51.710378,1.383902,-5.615910,4.946860,1.425314,6.101580,-4.802874,-1.609810,-0.061180,0.308141,-0.014723,3.642907,188.420368,1493.690605,-900.328617,0
0.066667,154.885178,-150.196597,-0.602569,0.359306,-6.070925,3.090848,3.532353,6.576318,-2.896192,-3.765048,-0.075764,0.314411,-0.022156,15.542957,188.344809,1493.598429,-900.941223,0
0.067708,203.282758,-86.844013,-51.481618,-0.642772,-5.645266,0.601176,5.364897,6.131963,-0.450289,-5.528079,-0.104934,0.320957,-0.044457,26.227107,188.420363,1493.131196,-901.470621,0
0.068750,179.236517,-33.827037,-124.622530,-2.117740,-4.360950,-1.700443,6.134256,4.810292,1.857574,-6.293455,-0.119518,0.346243,-0.018440,29.570829,188.495591,1492.790102,-901.729307,0
0.069792,133.076322,14.762069,-187.495279,-3.311226,-2.680332,-3.724069,6.354625,3.078447,3.850531,-6.316302,-0.123164,0.334874,-0.022156,28.985396,188.420254,1491.616326,-901.948931,0
0.070834,75.424103,71.643153,-198.565452,-3.525153,0.042417,-5.371586,5.086536,0.275593,5.507016,-5.048291,-0.093995,0.334461,-0.007290,18.076080,188.344936,1491.529669,-902.499907,0
0.071875,20.506466,147.222293,-172.415055,-3.052262,2.453261,-6.409972,3.652203,-2.181652,6.490553,-3.582272,-0.072118,0.326951,0.003860,7.009146,188.420227,1491.626022,-902.400674,0
0.072917,-28.038013,185.745926,-113.807542,-1.870035,4.390743,-5.890779,1.204945,-4.167957,5.847803,-1.057673,-0.021072,0.328191,-0.025873,3.541582,188.495781,1491.267500,-902.397825,0
0.073958,-95.769766,194.472469,-51.700348,-0.710327,6.210801,-4.897363,-1.489745,-5.998547,4.803873,1.611624,-0.002841,0.308210,-0.007290,-2.999504,188.495660,1490.371104,-902.651502,0
0.075000,-154.551977,150.581366,0.794873,0.314269,6.665816,-3.045439,-3.600650,-6.461892,2.879935,3.728784,0.059144,0.315169,-0.040740,-15.102203,188.344874,1489.308581,-903.219891,0
0.076042,-203.277255,87.099587,52.074928,1.350125,6.174106,-0.592559,-5.382935,-5.998547,0.434032,5.438505,0.084667,0.321852,-0.029590,-24.829396,188.420276,1488.416296,-903.298461,0
0.077083,-179.728211,34.094356,124.778380,2.735018,4.911808,1.721324,-6.187089,-4.684472,-1.809124,6.173419,0.099252,0.328260,-0.070474,-28.477093,188.495633,1487.744588,-902.899036,0
0.078125,-133.251618,-14.412536,187.845556,3.973542,3.234859,3.740861,-6.403592,-2.964021,-3.789140,6.222921,0.110191,0.348792,-0.025873,-29.355242,188.420309,1486.246587,-902.636036,0
0.079167,-76.051396,-71.328855,198.478269,4.221246,0.537796,5.359762,-5.120038,-0.161166,-5.415428,4.970141,0.084667,0.337424,-0.037023,-17.342610,188.420155,1484.884637,-901.770917,0
0.080208,-20.828661,-147.589205,172.510146,3.680800,-1.876717,6.483998,-3.712768,2.277089,-6.390338,3.546008,0.070083,0.332187,-0.011006,-6.568393,188.420305,1484.416307,-901.027042,0
0.081250,28.179115,-185.619548,114.631734,2.566129,-3.766496,5.903483,-1.277108,4.259596,-5.769157,0.987138,-0.006487,0.327571,-0.007290,-3.483612,188.495653,1482.886543,-901.151665,0
0.082292,96.012567,-194.627970,52.488085,1.361384,-5.575546,4.942772,1.371188,6.067399,-4.820129,-1.571732,-0.024718,0.312344,-0.018440,3.383966,188.420242,1483.003633,-900.721592,0
0.083333,154.749579,-150.983513,-0.347384,0.348047,-6.048908,3.066319,3.505290,6.545935,-2.926388,-3.746009,-0.086703,0.318683,-0.059323,15.520440,188.420354,1483.023060,-900.509472,0
0.084375,203.158459,-87.384283,-51.530225,-0.665290,-5.608571,0.601176,5.295307,6.078793,-0.471858,-5.482385,-0.130457,0.323506,0.003860,26.024457,188.420345,1482.351592,-899.928884,0
0.085417,179.665914,-34.754893,-124.634682,-2.095221,-4.331594,-1.667738,6.118792,4.764717,1.831691,-6.243953,-0.137749,0.333634,-0.014723,28.906588,188.495566,1481.541015,-899.838410,0
0.086458,133.754318,14.268779,-187.470976,-3.288707,-2.728035,-3.695452,6.323696,3.150608,3.833276,-6.342957,-0.155980,0.347276,0.000144,28.613871,188.420263,1482.435694,-899.664526,0
0.087500,76.531496,71.455233,-198.456087,-3.536412,0.002053,-5.338881,5.078804,0.286987,5.433682,-5.097793,-0.134103,0.336666,-0.018440,18.470121,188.420419,1482.574006,-899.294071,0
0.088542,21.489559,147.269273,-172.512268,-3.029743,2.434913,-6.401795,3.667667,-2.158865,6.481926,-3.605119,-0.075764,0.331567,-0.029590,7.459479,188.420412,1482.679548,-899.284591,0
0.089583,-27.755515,185.863376,-114.548794,-1.870035,4.383404,-5.898955,1.212677,-4.164159,5.770155,-1.065289,-0.042949,0.329431,-0.003573,3.676682,188.495649,1481.897629,-899.357401,0
0.090625,-95.927965,194.319784,-52.563117,-0.721587,6.218140,-4.934156,-1.489745,-6.006143,4.808186,1.539275,0.022683,0.311311,-0.003573,-2.875663,188.420298,1482.237168,-898.910027,0
0.091667,-155.026574,150.593111,0.053621,0.314269,6.669485,-3.037262,-3.573587,-6.431508,2.931700,3.717361,0.066437,0.317856,-0.037023,-15.068428,188.344871,1482.461764,-898.539318,0
0.092708,-203.085156,88.156637,52.062776,1.327606,6.221809,-0.613000,-5.402265,-6.017537,0.477170,5.411850,0.073729,0.323644,-0.037023,-25.381053,188.420231,1482.801330,-898.281982,0
0.093750,-179.490912,35.163152,125.227992,2.780056,4.922816,1.664090,-6.183223,-4.673078,-1.830692,6.184842,0.081021,0.334254,-0.007290,-28.600934,188.495595,1482.695982,-898.943303,0
0.094792,-134.087812,-14.095420,187.444551,3.928504,3.267884,3.761302,-6.368797,-3.009595,-3.771885,6.272423,0.081021,0.346105,0.000144,-29.276434,188.495745,1483.524219,-899.018030,0
0.095833,-76.797191,-71.434560,198.453965,4.142431,0.548804,5.380202,-5.154833,-0.172560,-5.454252,5.019643,0.077375,0.337286,-0.033307,-18.085659,188.345035,1484.430166,-899.551095,0
0.096875,-21.258058,-147.448265,172.704573,3.680800,-1.891395,6.410412,-3.701170,2.242908,-6.416221,3.568855,0.066437,0.330258,-0.040740,-7.378992,188.420238,1484.889233,-899.474116,0
0.097917,28.077416,-185.643038,115.008436,2.588648,-3.759157,5.883043,-1.288707,4.210223,-5.760529,1.025217,0.029975,0.329156,-0.048173,-3.517387,188.495620,1484.969348,-898.775905,0
0.098958,95.899568,-194.416560,53.107820,1.395162,-5.579215,4.918243,1.421448,6.105378,-4.794247,-1.636465,-0.046595,0.315031,-0.063040,3.564099,188.495636,1484.501999,-900.066574,0
0.100000,154.873878,-150.960023,0.065773,0.370565,-6.030560,3.062231,3.493692,6.515552,-2.835799,-3.719354,-0.079410,0.321577,-0.022156,15.633023,188.269449,1483.276665,-900.227791,0
0.101042,202.955060,-88.206434,-51.590983,-0.642772,-5.612240,0.670674,5.299173,6.078793,-0.514995,-5.421460,-0.130457,0.325642,0.026161,26.182073,188.495705,1483.258707,-899.468908,0
0.102083,179.699814,-35.048518,-124.719744,-2.061443,-4.368289,-1.655474,6.095595,4.798899,1.801495,-6.198259,-0.141395,0.338733,-0.018440,29.559571,188.495698,1483.346299,-898.788743,0
0.103125,133.844717,14.221799,-187.349459,-3.311226,-2.724365,-3.687275,6.308232,3.101235,3.790139,-6.285840,-0.130457,0.340455,-0.025873,28.951621,188.495649,1482.173281,-898.435285,0
0.104167,76.497596,71.443488,-198.322419,-3.536412,0.016731,-5.338881,5.051741,0.267997,5.463878,-5.029252,-0.093995,0.340938,-0.033307,18.335021,188.269483,1481.396281,-898.881676,0
0.105208,21.173162,147.163568,-172.342145,-3.052262,2.460600,-6.373178,3.679266,-2.158865,6.391337,-3.574656,-0.086703,0.327640,-0.037023,7.324380,188.495736,1480.222855,-898.236609,0
0.106250,-27.992814,185.299616,-114.828283,-1.926332,4.306345,-5.878514,1.216543,-4.126180,5.778783,-1.076712,-0.035656,0.334530,-0.040740,3.609132,188.495714,1480.176854,-897.724379,0
0.107292,-95.588967,194.272804,-52.441600,-0.732846,6.221809,-4.881010,-1.416289,-5.956770,4.851324,1.501197,-0.021072,0.313998,0.003860,-2.976987,188.495649,1480.357990,-896.800324,0
0.108333,-154.371178,151.074657,0.539688,0.280491,6.607104,-3.069967,-3.554257,-6.401125,2.953269,3.660243,0.026329,0.318614,-0.014723,-15.158495,188.344887,1480.195443,-895.862554,0
0.109375,-202.960857,87.639857,52.038473,1.327606,6.192454,-0.600735,-5.336541,-5.994749,0.503052,5.381388,0.081021,0.325297,-0.048173,-24.806879,188.495863,1479.900436,-895.058643,0
0.110417,-179.818610,34.423216,124.559650,2.735018,4.904469,1.643649,-6.163892,-4.661684,-1.757359,6.150572,0.084667,0.330809,-0.033307,-28.409543,188.495546,1479.614712,-893.873877,0
