1-Time,2-VGERA,3-VGERB,4-VGERC,5-VN,6-IGERAN,7-IGERBN,8-IGERCN,9-IGERAT,10-IGERBT,11-IGERCT,12-IN,13-IFD,14-IFAULT,15-VFAULT,16-Speed (rad/s),17-Active Power,18-Reactive Power,19-FAULT 
0.000000,-124.098678,187.319758,-41.286366,-0.552697,1.326677,-6.246031,4.401855,-1.227269,6.251131,-4.481197,0.033114,0.638861,-0.082290,311.287886,188.345013,1573.308560,923.901959,0
0.001042,-172.010362,159.037773,31.757333,0.865975,3.737520,-6.459235,2.342849,-3.443366,6.475188,-2.407020,-0.043455,0.629904,-0.082290,318.605797,188.420390,1573.316982,923.502449,0
0.002083,-179.784710,100.993933,99.089746,2.160794,5.476851,-5.465623,-0.280113,-5.224223,5.583188,0.151636,-0.072625,0.623565,-0.067423,273.527465,188.420238,1574.362983,922.997243,0
0.003125,-186.078769,16.277176,146.068109,3.084057,6.544667,-3.949056,-2.558646,-6.141854,4.112023,2.551323,-0.130964,0.629629,-0.086006,197.894040,188.269510,1574.924659,922.636551,0
0.004167,-151.342798,-57.739878,170.796760,3.601985,6.331838,-1.611855,-4.435975,-6.098330,1.871455,4.470316,-0.196595,0.629215,-0.059989,86.042585,188.344844,1574.735035,922.638135,0
0.005208,-69.463540,-110.486718,196.315271,4.131172,5.396122,1.276460,-6.097563,-5.158937,-0.973643,6.230338,-0.174718,0.633556,-0.071140,-48.190419,188.420235,1574.600519,922.913471,0
0.006250,0.607297,-155.963397,171.452951,3.635763,3.700826,3.299889,-6.233821,-3.548549,-3.066249,6.423373,-0.218472,0.613506,-0.082290,-162.214731,188.420432,1574.576307,922.424307,0
0.007292,70.067938,-186.629619,121.971344,2.689981,1.117517,5.415841,-5.643370,-1.161983,-5.137717,5.836699,-0.225764,0.618467,-0.056273,-259.362814,188.269478,1574.077554,922.296864,0
0.008333,123.832983,-187.839355,39.947560,1.124939,-1.308005,6.365204,-4.167245,1.224583,-6.211499,4.402186,-0.160133,0.627562,-0.059989,-315.102779,188.344905,1575.522385,922.349250,0
0.009375,171.755966,-158.993610,-32.743740,-0.282474,-3.689493,6.606567,-2.112023,3.462442,-6.444010,2.346933,-0.116379,0.630731,-0.063706,-332.373049,188.420334,1575.642361,921.917285,0
0.010417,179.824113,-100.139364,-98.763773,-1.554775,-5.472856,5.548591,0.563928,5.192521,-5.535101,-0.279853,-0.112733,0.619983,-0.059989,-274.617844,188.420296,1576.786000,921.158589,0
0.011458,186.423270,-16.503147,-145.875804,-2.523075,-6.452606,4.032025,2.880310,6.142795,-3.970931,-2.671970,-0.021578,0.605789,-0.059989,-199.175811,188.269478,1577.928850,920.537777,0
0.012500,151.359601,56.797461,-171.212039,-3.029743,-6.291149,1.638505,4.772779,6.073882,-1.738818,-4.685587,-0.010640,0.635209,-0.082290,-86.941573,188.344887,1580.341705,919.181399,0
0.013542,70.994532,109.920141,-196.244483,-3.558930,-5.355433,-1.201537,6.385162,5.083711,1.106280,-6.354770,0.040407,0.634727,-0.089723,46.886132,188.420368,1581.375988,917.333744,0
0.014583,1.499992,156.230716,-170.981158,-3.063521,-3.517027,-3.269216,6.483571,3.458815,3.173521,-6.532665,0.051345,0.639481,-0.078573,161.867402,188.495799,1582.593145,915.759601,0
0.015625,-69.169741,186.427137,-122.143589,-2.140259,-0.915371,-5.336896,5.859056,1.046860,5.270354,-5.900570,0.014883,0.602000,-0.067423,259.229393,188.269499,1583.790446,914.603550,0
0.016667,-123.951779,187.460698,-39.572980,-0.552697,1.506481,-6.286258,4.276952,-1.328825,6.293406,-4.382787,-0.028871,0.624943,-0.100873,311.569344,188.344655,1584.367252,913.181547,0
0.017708,-171.196767,159.472339,33.859572,0.911012,3.847605,-6.471303,2.229300,-3.584819,6.513235,-2.259405,-0.058040,0.619018,-0.074856,318.594539,188.420117,1586.189232,911.531732,0
0.018750,-179.886410,98.586206,99.150504,2.183313,5.575926,-5.389191,-0.370952,-5.275001,5.557823,0.329531,-0.109087,0.618811,-0.089723,272.289050,188.495665,1586.896429,909.956824,0
0.019792,-186.677665,14.315759,145.800772,3.129094,6.588701,-3.864579,-2.672194,-6.156362,4.019018,2.733003,-0.156487,0.595936,-0.074856,197.499999,188.269424,1588.334619,908.191595,0
0.020833,-149.964208,-58.280148,171.416496,3.624503,6.350185,-1.495196,-4.560878,-6.058433,1.765768,4.629285,-0.192949,0.607443,-0.078573,85.817419,188.344918,1589.745945,906.669878,0
0.021875,-68.943743,-109.875978,196.995765,4.142431,5.359427,1.401164,-6.161907,-5.115413,-1.134288,6.302253,-0.207533,0.642099,-0.082290,-46.400346,188.420278,1591.601230,904.764146,0
0.022917,-0.443596,-156.433198,171.003339,3.647022,3.579733,3.468844,-6.252745,-3.486890,-3.167708,6.465008,-0.200241,0.626321,-0.082290,-161.043865,188.495662,1593.184966,903.508171,0
0.023958,68.994446,-186.829284,122.931326,2.757537,1.000094,5.480205,-5.582811,-1.013276,-5.268769,5.795064,-0.182010,0.631282,-0.074856,-258.259498,188.269519,1595.544880,900.728968,0
0.025000,124.058982,-187.134654,41.308547,1.136198,-1.462123,6.381295,-4.053696,1.326139,-6.262228,4.326486,-0.189302,0.637070,-0.093440,-315.406754,188.269451,1596.837186,898.736883,0
0.026042,171.823766,-159.933211,-32.427797,-0.338771,-3.817924,6.598522,-2.009830,3.593014,-6.494740,2.191749,-0.123671,0.630318,-0.071140,-332.159141,188.420238,1599.415592,896.476441,0
0.027083,179.891913,-99.916209,-98.508588,-1.611071,-5.524229,5.488250,0.677476,5.217910,-5.505508,-0.412328,-0.094502,0.624048,-0.026539,-273.886053,188.495705,1600.275935,894.754660,0
0.028125,186.954366,-15.763212,-145.669226,-2.534334,-6.514987,3.931457,2.974933,6.193573,-3.907519,-2.808230,-0.036163,0.627079,-0.067423,-197.430770,188.344997,1602.020583,893.437046,0
0.029167,150.444307,57.948472,-171.199888,-3.041003,-6.272802,1.545982,4.814413,6.066628,-1.654268,-4.715867,0.022176,0.618122,-0.100873,-84.453483,188.344939,1602.096252,892.842239,0
0.030208,68.791047,109.873161,-197.034342,-3.525153,-5.282044,-1.322219,6.430582,5.083711,1.241560,-6.388835,0.069576,0.613161,-0.074856,48.653689,188.420282,1603.071873,892.200833,0
0.031250,-0.545295,156.136756,-171.017613,-3.063521,-3.517027,-3.381852,6.494925,3.462442,3.241161,-6.509955,0.058637,0.594490,-0.071140,162.914426,188.495645,1603.100648,892.343073,0
0.032292,-69.746038,186.979152,-121.815494,-2.050184,-0.867668,-5.393214,5.851486,0.945304,5.325312,-5.904355,0.058637,0.619638,-0.089723,259.477076,188.344985,1604.221681,891.580905,0
0.033333,-123.737081,187.601638,-39.585132,-0.473882,1.528498,-6.286258,4.322371,-1.426754,6.339908,-4.352508,-0.017932,0.629697,-0.078573,311.603119,188.269478,1605.499789,890.457233,0
0.034375,-171.513165,159.718984,33.021107,0.944790,3.906316,-6.487394,2.199021,-3.675494,6.602013,-2.285900,-0.025225,0.628182,-0.056273,318.639572,188.420256,1607.560762,890.735413,0
0.035417,-179.863810,99.643257,98.737347,1.383902,5.608952,-5.413327,-0.393661,-5.318525,5.557823,0.397661,-0.087210,0.626666,-0.071140,273.572499,188.495778,1608.841040,889.622884,0
0.036458,-186.994063,16.429861,146.298990,3.072797,6.632734,-3.840443,-2.683549,-6.228902,4.031701,2.714078,-0.123671,0.611301,-0.082290,199.526498,188.344992,1610.210917,889.723159,0
0.037500,-151.116800,-56.530142,171.635226,3.635763,6.353855,-1.418764,-4.606297,-6.138227,1.731948,4.648210,-0.163779,0.636725,-0.078573,87.337293,188.344834,1611.903626,889.189322,0
0.038542,-70.254534,-109.582352,197.190191,4.142431,5.355758,1.477596,-6.199756,-5.155310,-1.159652,6.317393,-0.236703,0.636036,-0.071140,-46.659287,188.420321,1612.938171,889.015508,0
0.039583,-1.053792,-156.585883,171.258524,3.545688,3.590741,3.484935,-6.260315,-3.472382,-3.188846,6.434728,-0.211179,0.644580,-0.078573,-162.102148,188.495644,1613.101977,888.380492,0
0.040635,70.305237,-187.393044,121.169333,2.667463,0.882671,5.544569,-5.605521,-0.915347,-5.416731,5.806419,-0.225764,0.628871,-0.097156,-260.702555,188.344929,1614.789052,888.116319,0
0.041679,124.680478,-187.087674,37.978989,1.012346,-1.568537,6.425545,-3.993137,1.434949,-6.274911,4.235646,-0.163779,0.628457,-0.078573,-316.881595,188.344930,1614.672145,887.405008,0
0.042720,171.563868,-159.933211,-36.292029,-0.417586,-3.957364,6.646794,-1.881142,3.738094,-6.520105,2.104694,-0.120025,0.625770,-0.063706,-332.215433,188.420377,1616.042169,887.249973,0
0.043751,180.084011,-98.177948,-98.860986,-1.554775,-5.575602,5.536523,0.726680,5.344855,-5.484371,-0.453963,-0.083563,0.627837,-0.074856,-272.827770,188.495629,1617.134208,887.107536,0
0.044791,187.157765,-14.600456,-145.462647,-2.511815,-6.525995,3.943525,2.997643,6.240724,-3.932883,-2.868790,-0.047102,0.630111,-0.082290,-197.881103,188.420296,1618.034457,887.491677,0
0.045833,150.048810,57.772296,-171.625196,-2.962187,-6.316835,1.497710,4.935531,6.150049,-1.578174,-4.787782,0.025822,0.615091,-0.078573,-85.669382,188.269539,1619.813742,887.160728,0
0.046875,69.039645,109.462086,-197.240920,-3.570190,-5.307730,-1.354400,6.536560,5.076457,1.262697,-6.475890,0.044053,0.610819,-0.082290,46.649707,188.420300,1621.092732,886.832356,0
0.047916,1.047995,156.759241,-170.908248,-2.984706,-3.454646,-3.450239,6.570624,3.397156,3.329938,-6.562945,0.025822,0.642306,-0.033973,161.912435,188.495631,1622.944697,885.535498,0
0.048958,-68.830744,187.049622,-122.860538,-2.117740,-0.852990,-5.542054,5.877981,0.890899,5.447909,-5.942205,0.040407,0.636312,-0.074856,258.869127,188.420287,1625.355629,884.572855,0
0.050000,-124.076079,187.484188,-40.812450,-0.518919,1.653260,-6.358667,4.284522,-1.492040,6.369501,-4.348723,0.036760,0.629353,-0.067423,312.075969,188.269485,1626.531734,883.798151,0
0.051051,-171.750464,160.517645,35.050436,0.922271,4.045756,-6.479349,2.100613,-3.795185,6.559738,-2.157210,-0.039809,0.629766,-0.071140,318.740897,188.420350,1627.747331,882.193601,0
0.052096,-180.485306,96.812710,99.940363,2.081979,5.744722,-5.336896,-0.624543,-5.387438,5.494411,0.537706,-0.079917,0.612679,-0.059989,271.039376,188.495763,1628.282293,881.298503,0
0.053137,-187.310461,13.787234,146.554175,3.027760,6.651082,-3.776079,-2.850086,-6.290561,3.900649,2.899543,-0.138256,0.600139,-0.074856,195.642376,188.420292,1630.065497,879.671718,0
0.054171,-149.105413,-58.127463,172.340023,3.601985,6.320829,-1.326241,-4.693351,-6.080195,1.613579,4.773115,-0.196595,0.602344,-0.074856,83.363104,188.269481,1630.662785,878.484720,0
0.055208,-67.870250,-109.347452,197.822078,4.131172,5.300716,1.509778,-6.237606,-5.093651,-1.269567,6.393093,-0.196595,0.608201,-0.097156,-47.987769,188.420301,1631.521411,877.452952,0
0.056250,0.810696,-156.668098,170.942581,3.568207,3.510013,3.569412,-6.313304,-3.381707,-3.239576,6.465008,-0.222118,0.619914,-0.089723,-163.104139,188.420273,1631.826877,876.928270,0
0.057292,69.740241,-187.216869,122.092860,2.689981,0.926704,5.600887,-5.620661,-0.915347,-5.327954,5.795064,-0.203887,0.605996,-0.086006,-258.991289,188.495718,1631.013667,876.525125,0
0.058333,123.742584,-187.475259,39.947560,0.967308,-1.612571,6.429567,-4.046127,1.442203,-6.317186,4.250786,-0.163779,0.628595,-0.086006,-316.127287,188.269539,1632.202808,875.836727,0
0.059375,171.518668,-160.262071,-33.205504,-0.293733,-3.887644,6.658863,-1.888712,3.683689,-6.494740,2.165254,-0.127317,0.631489,-0.056273,-332.350533,188.495759,1631.804530,875.398086,0
0.060416,180.219611,-99.481644,-98.168341,-1.566034,-5.593949,5.516409,0.745605,5.352109,-5.467461,-0.484243,-0.083563,0.628664,-0.074856,-274.921819,188.420273,1632.455005,874.372092,0
0.061458,187.395063,-16.785028,-145.948714,-2.511815,-6.617732,3.947548,3.065772,6.240724,-3.920201,-2.853650,-0.010640,0.626597,-0.041406,-199.468527,188.495577,1632.995557,873.798589,0
0.062513,149.404714,57.607866,-172.791757,-3.018484,-6.250785,1.413233,4.973380,6.055747,-1.527444,-4.840772,0.007591,0.631696,-0.067423,-83.215067,188.269463,1633.079456,872.600071,0
0.063556,68.282550,110.002356,-197.860655,-3.502634,-5.230671,-1.434855,6.472216,5.054695,1.368384,-6.460750,0.051345,0.635209,-0.067423,50.173563,188.495660,1633.595621,871.816618,0
0.064595,-0.206297,157.546157,-169.705232,-2.939669,-3.381257,-3.486443,6.528990,3.353632,3.393350,-6.498600,0.044053,0.629077,-0.089723,165.931657,188.420399,1632.991195,871.261764,0
0.065626,-69.147142,187.214053,-121.937011,-2.106481,-0.863999,-5.441486,5.828776,0.887272,5.388724,-5.847581,0.033114,0.641686,-0.093440,259.713501,188.495785,1631.322124,870.741146,0
0.066666,-123.590182,187.695598,-39.220581,-0.518919,1.583540,-6.342576,4.250457,-1.477532,6.327226,-4.360078,-0.010640,0.622739,-0.082290,311.693186,188.269545,1630.361225,871.192250,0
0.067708,-171.241967,159.812944,34.151212,0.922271,4.012731,-6.491417,2.142247,-3.682748,6.572420,-2.221555,-0.058040,0.626046,-0.056273,318.617055,188.495676,1628.874716,872.127509,0
0.068750,-180.044609,98.586206,98.737347,2.160794,5.667663,-5.381145,-0.473145,-5.343914,5.515549,0.412801,-0.098148,0.627010,-0.086006,272.919516,188.420343,1628.165717,872.680490,0
0.069791,-187.129662,14.715089,145.873682,3.129094,6.599709,-3.800216,-2.763033,-6.276053,3.985198,2.785993,-0.130964,0.631764,-0.093440,198.434440,188.495635,1627.084688,873.865111,0
0.070833,-150.314505,-57.563703,171.623074,3.556947,6.379541,-1.438878,-4.629007,-6.145481,1.698128,4.678490,-0.200241,0.606960,-0.078573,86.909476,188.269496,1626.590391,875.122406,0
0.071875,-69.248841,-109.476647,197.493983,4.142431,5.366766,1.465528,-6.230036,-5.155310,-1.176562,6.366598,-0.200241,0.638241,-0.059989,-45.792396,188.495638,1626.224840,876.315377,0
0.072930,-0.161097,-157.795619,169.933992,3.590725,3.480657,3.541253,-6.290595,-3.439739,-3.281851,6.480148,-0.236703,0.638723,-0.048839,-164.083613,188.495627,1626.869617,876.933441,0
0.073973,69.706341,-187.487004,121.764765,2.577388,0.864323,5.560659,-5.575241,-0.893585,-5.366001,5.825344,-0.211179,0.633625,-0.052556,-260.083347,188.495633,1627.599469,877.030938,0
0.075014,124.736977,-186.864519,39.194156,1.034864,-1.612571,6.441636,-3.951503,1.460338,-6.283366,4.228076,-0.178364,0.632729,-0.045123,-316.735236,188.269476,1626.931600,877.062388,0
0.076043,172.004565,-160.226836,-32.913864,-0.338771,-3.913330,6.594499,-1.888712,3.658300,-6.537015,2.123619,-0.116379,0.628871,-0.100873,-332.339274,188.495691,1627.264009,877.045414,0
0.077083,180.219611,-99.787014,-98.083279,-1.599812,-5.575602,5.484228,0.722895,5.330347,-5.518191,-0.450178,-0.068979,0.626459,-0.059989,-273.750953,188.420298,1627.208208,877.826401,0
0.078125,187.248164,-15.493077,-145.535557,-2.455519,-6.584707,3.963639,3.027922,6.291502,-3.983613,-2.891499,0.003945,0.606203,-0.089723,-197.554612,188.495658,1627.788781,878.786900,0
0.079166,150.365208,57.807531,-171.552286,-2.939669,-6.280140,1.501733,4.909036,6.070255,-1.586629,-4.802922,0.011237,0.651125,-0.078573,-84.532291,188.269436,1627.265277,879.355862,0
0.080208,68.463349,109.473831,-197.459650,-3.513893,-5.285713,-1.342332,6.441936,5.105473,1.288062,-6.415330,0.047699,0.600002,-0.067423,47.978190,188.495665,1626.263958,880.280296,0
0.081250,-0.330596,156.312931,-171.236343,-2.973447,-3.469324,-3.393921,6.559269,3.437053,3.304573,-6.555375,0.033114,0.576024,-0.052556,162.587934,188.420356,1626.296984,881.713870,0
0.082291,-69.316640,186.885192,-122.204347,-2.106481,-0.882346,-5.421373,5.885550,0.901780,5.384496,-5.919495,0.011237,0.623703,-0.067423,258.790318,188.495731,1626.681295,882.504089,0
0.083348,-124.720174,186.908682,-38.831728,-0.428845,1.653260,-6.350622,4.254242,-1.521056,6.335681,-4.303303,-0.014286,0.630042,-0.071140,312.728952,188.344976,1626.645248,881.975917,0
0.084390,-171.580965,160.435430,35.074739,0.978568,4.012731,-6.495440,2.134677,-3.758915,6.580875,-2.202630,-0.036163,0.636174,-0.056273,318.774672,188.495709,1627.788772,881.868674,0
0.085433,-180.293207,97.693586,99.745936,2.149535,5.715366,-5.328850,-0.545059,-5.383811,5.507094,0.473361,-0.083563,0.625495,-0.052556,272.266533,188.420260,1628.373909,881.799070,0
0.086459,-187.344361,16.934896,146.128867,3.050279,6.629065,-3.856534,-2.747893,-6.257918,4.035928,2.748143,-0.163779,0.620327,-0.041406,199.706631,188.495607,1628.560304,881.963791,0
0.087500,-150.890801,-56.213027,171.926866,3.545688,6.372202,-1.426809,-4.613867,-6.094703,1.672763,4.704985,-0.182010,0.619294,-0.115740,87.145901,188.344815,1628.950373,880.669523,0
0.088541,-70.367534,-109.136042,197.384618,4.052357,5.330072,1.457483,-6.161907,-5.115413,-1.168107,6.313608,-0.203887,0.636174,-0.056273,-46.299021,188.495712,1628.362551,879.816949,0
0.089583,-0.839093,-156.268768,171.343586,3.669540,3.535699,3.464821,-6.260315,-3.450620,-3.201528,6.434728,-0.218472,0.635485,-0.071140,-161.944531,188.420260,1627.462710,879.352426,0
0.090625,69.141345,-187.028949,122.518169,2.701241,0.952391,5.512387,-5.594166,-0.998768,-5.256087,5.821559,-0.192949,0.634796,-0.071140,-258.923739,188.495741,1625.859500,880.194991,0
0.091666,123.414886,-187.733650,39.668071,1.068642,-1.476801,6.385318,-4.061266,1.384171,-6.249546,4.273496,-0.174718,0.624185,-0.071140,-315.463046,188.344907,1625.342298,880.709544,0
0.092708,171.157070,-159.804016,-33.314869,-0.316252,-3.865627,6.590476,-1.983335,3.618403,-6.490513,2.172824,-0.123671,0.623703,-0.071140,-332.136624,188.495664,1623.968958,881.061439,0
0.093755,179.858013,-98.224928,-98.727318,-1.566034,-5.564593,5.532500,0.654766,5.275942,-5.450551,-0.453963,-0.065333,0.609579,-0.056273,-273.323137,188.420265,1622.289487,880.867431,0
0.094800,186.999566,-14.623946,-146.070231,-2.455519,-6.500309,3.967661,2.959793,6.222589,-3.924429,-2.823370,-0.028871,0.627906,-0.086006,-197.543354,188.495694,1620.568827,880.839421,0
0.095845,149.755012,58.042432,-172.038353,-2.984706,-6.247115,1.541960,4.863617,6.059374,-1.645813,-4.761287,0.014883,0.622325,-0.082290,-84.667391,188.420280,1619.704034,881.835972,0
0.096885,69.491642,109.908396,-197.119403,-3.525153,-5.300391,-1.277969,6.434366,5.087338,1.190830,-6.358555,0.047699,0.641617,-0.086006,47.494082,188.495085,1618.466226,882.358459,0
0.097929,1.070594,156.876691,-170.349271,-2.950928,-3.458316,-3.345648,6.491141,3.429799,3.215796,-6.536450,0.047699,0.642857,-0.089723,162.880651,188.420698,1617.403720,882.437137,0
0.098969,-69.192341,186.896937,-121.633219,-2.061443,-0.893354,-5.373100,5.832561,0.967066,5.354904,-5.870290,0.025822,0.629353,-0.100873,259.702243,188.496111,1616.232442,882.795459,0
0.100010,-124.064779,187.120092,-39.816013,-0.530179,1.506481,-6.258099,4.284522,-1.390484,6.297634,-4.382787,0.003945,0.626115,-0.063706,311.884577,188.345250,1615.268101,884.200560,0
0.101054,-171.784363,159.589789,34.211971,0.911012,3.887969,-6.406940,2.180096,-3.566684,6.542828,-2.263190,-0.028871,0.622670,-0.063706,321.555478,188.496074,1612.554999,885.371041,0
0.102093,-179.829910,98.703657,99.344931,2.127016,5.517215,-5.369077,-0.378522,-5.187953,5.553596,0.359811,-0.068979,0.604411,-0.074856,271.759908,188.420857,1610.014855,886.626685,0
0.103136,-186.598565,14.045624,146.335445,3.027760,6.526320,-3.852511,-2.585141,-6.112838,4.027473,2.634593,-0.123671,0.598141,-0.063706,195.957609,188.496067,1606.356197,887.714381,0
0.104183,-149.410511,-59.325454,171.647377,3.556947,6.247440,-1.450946,-4.496534,-5.927861,1.710811,4.564940,-0.207533,0.569892,-0.082290,82.901513,188.345343,1602.220305,888.504566,0
0.105223,-67.406953,-110.510208,197.238798,4.097394,5.337411,1.300596,-6.093778,-5.068262,-1.108923,6.226553,-0.207533,0.618398,-0.108307,-49.350027,188.496176,1599.616216,889.608943,0
0.106265,1.353093,-156.844273,170.407907,3.579466,3.612758,3.348162,-6.203541,-3.472382,-3.087386,6.351458,-0.225764,0.627975,-0.063706,-163.464405,188.420748,1596.875163,890.980108,0
0.107304,69.966239,-186.864519,121.691855,2.667463,1.014772,5.423887,-5.571457,-1.016903,-5.196902,5.783709,-0.207533,0.611852,-0.082290,-259.295264,188.496150,1595.417517,891.329901,0
0.108341,123.765184,-187.522239,40.749570,1.113679,-1.311674,6.320954,-4.121825,1.235464,-6.177679,4.334056,-0.185656,0.636036,-0.074856,-315.102779,188.345395,1593.806618,892.873991,0
0.109389,172.049765,-159.463410,-33.035381,-0.327511,-3.678484,6.566340,-2.047679,3.491458,-6.465148,2.305299,-0.134610,0.628940,-0.108307,-332.361791,188.496214,1592.077740,895.068207,0
0.110433,179.745014,-99.399429,-99.529328,-1.566034,-5.443501,5.488250,0.590422,5.207029,-5.484371,-0.351768,-0.079917,0.628595,-0.093440,-273.413203,188.420703,1591.232817,896.550283,0
