1-Time,2-VGERA,3-VGERB,4-VGERC,5-VN,6-IGERAN,7-IGERBN,8-IGERCN,9-IGERAT,10-IGERBT,11-IGERCT,12-IN,13-IFD,14-IFAULT,15-VFAULT,16-Speed (rad/s),17-FAULT 
0.000000,79.139078,108.332358,-190.211554,-0.679842,-5.335053,-0.682035,6.300624,5.311588,0.614109,-6.116917,0.014027,0.599640,-0.031958,-25.761841,188.571080,0
0.001042,2.894789,153.297483,-176.300569,-0.374472,-3.900740,-2.659342,6.657157,3.907452,2.616435,-6.573745,-0.018850,0.602057,-0.039427,-11.669581,188.495653,0
0.002083,-64.593089,184.707834,-128.744697,0.496398,-1.561107,-4.571882,6.120399,1.591729,4.493867,-6.071234,0.003068,0.620217,-0.043161,7.840168,188.646504,0
0.003125,-117.210948,194.831631,-47.433144,2.023248,0.899236,-5.631018,4.584567,-0.841617,5.698486,-4.670297,-0.048074,0.594153,-0.024490,20.100208,188.721913,0
0.004167,-166.596195,161.850763,23.537500,3.369138,3.100408,-5.962474,2.629516,-3.028689,5.996619,-2.736393,-0.095563,0.599509,-0.035692,32.993608,188.571125,0
0.005208,-179.640071,109.939119,91.135038,4.647168,4.971405,-5.109070,-0.132631,-4.932727,5.259344,-0.079180,-0.132093,0.580238,-0.039427,37.868218,188.495792,0
0.006250,-183.054164,21.953895,139.318750,5.563278,6.071991,-3.680379,-2.612686,-5.998695,3.812996,2.452406,-0.208806,0.589253,-0.039427,44.032167,188.646480,0
0.007292,-155.015502,-53.612160,169.024243,6.162708,6.196251,-1.786889,-4.544230,-6.278052,1.951679,4.405343,-0.208806,0.597157,-0.031958,44.654217,188.721962,0
0.008333,-80.211712,-108.048713,189.866099,6.592488,5.347734,0.864760,-6.303384,-5.392196,-0.634827,6.099412,-0.270907,0.594283,-0.046895,29.872048,188.571140,0
0.009375,-4.761398,-153.110485,176.201326,6.275808,3.995078,2.788730,-6.710850,-4.079953,-2.629095,6.632377,-0.274560,0.603429,-0.028224,14.807128,188.495626,0
0.010417,64.201005,-184.255056,129.285606,5.416248,1.683847,4.689840,-6.205436,-1.800988,-4.494442,6.126060,-0.292825,0.601730,-0.035692,-2.282282,188.646473,0
0.011458,116.762152,-194.850009,46.779924,3.878088,-0.776496,5.771835,-4.755799,0.738955,-5.691003,4.736543,-0.216112,0.591931,-0.028224,-16.261441,188.646556,0
0.012500,165.852494,-161.579199,-24.609280,2.509578,-2.998970,6.061383,-2.679291,2.903972,-5.973020,2.829288,-0.183235,0.590233,0.005384,-28.057771,188.571087,0
0.013542,179.270672,-110.029982,-91.061932,1.197618,-4.841564,5.238458,-0.022929,4.837417,-5.215601,0.175882,-0.172276,0.578997,-0.020755,-32.966311,188.495664,0
0.014583,182.854902,-23.325333,-139.787311,0.349368,-5.917298,3.863105,2.496306,5.892357,-3.857887,-2.317635,-0.084604,0.586510,-0.031958,-39.661831,188.721974,0
0.015625,154.838926,53.352164,-169.258902,-0.238752,-6.066410,1.942945,4.435686,6.134956,-2.073118,-4.346710,-0.051727,0.597811,-0.046895,-37.648651,188.646362,0
0.016667,78.288390,109.008889,-189.829925,-0.657222,-5.267598,-0.712514,6.257527,5.238073,0.597994,-6.048393,0.003068,0.600881,-0.017021,-24.167131,188.570960,0
0.017708,2.996872,153.345807,-176.312879,-0.374472,-3.918492,-2.625054,6.617977,3.933182,2.584204,-6.543289,-0.004238,0.583439,-0.017021,-11.522551,188.495640,0
0.018750,-64.320869,184.562863,-128.929356,0.496398,-1.529155,-4.549023,6.085138,1.624811,4.453579,-6.044586,-0.022503,0.601273,-0.028224,7.964578,188.722143,0
0.019792,-117.505853,194.638337,-47.679356,2.000628,0.909887,-5.642447,4.619829,-0.859996,5.694457,-4.685524,-0.026156,0.600554,-0.028224,20.450818,188.646525,0
0.020833,-166.641565,161.814520,23.956061,3.369138,3.118160,-5.977713,2.617762,-3.032364,5.968418,-2.686904,-0.077298,0.593826,-0.031958,33.853168,188.571093,0
0.021875,-179.299796,109.008889,91.492046,4.715028,4.964304,-5.059542,-0.120877,-4.925376,5.158624,0.004572,-0.110175,0.572203,-0.024490,37.958698,188.495702,0
0.022917,-183.235644,21.953895,139.540341,5.585898,6.054240,-3.638471,-2.663619,-5.947234,3.776737,2.494281,-0.194194,0.556656,-0.013287,43.376187,188.646632,0
0.023958,-155.208325,-52.983953,169.122728,6.151398,6.118145,-1.706882,-4.548148,-6.215564,1.979881,4.435798,-0.208806,0.594022,-0.028224,45.298887,188.571062,0
0.025000,-79.905464,-108.024551,190.124622,6.603798,5.393888,0.872380,-6.342564,-5.377493,-0.659000,6.164129,-0.252642,0.602188,-0.043161,29.939908,188.571071,0
0.026042,-4.092191,-153.122566,175.819698,6.321048,4.009280,2.784920,-6.718686,-4.061574,-2.641182,6.685674,-0.278213,0.610549,-0.028224,16.356598,188.495720,0
0.027083,64.836185,-184.689968,128.805493,5.393628,1.673196,4.712700,-6.189764,-1.767906,-4.450124,6.152708,-0.263601,0.604213,-0.035692,-2.712061,188.646426,0
0.028125,117.068399,-194.547986,46.410606,3.855468,-0.804898,5.752786,-4.704865,0.738955,-5.674887,4.728929,-0.241683,0.592323,-0.058098,-16.532881,188.646505,0
0.029167,166.294852,-161.905383,-24.313826,2.554818,-3.020271,6.084242,-2.718470,2.907648,-5.977049,2.810254,-0.197847,0.590429,-0.017021,-27.085111,188.571123,0
0.030208,178.964425,-109.921253,-91.443561,1.231548,-4.841564,5.253697,-0.019011,4.841092,-5.280062,0.191109,-0.102869,0.583178,0.001650,-33.463951,188.495680,0
0.031250,182.968327,-22.914583,-139.861175,0.304128,-6.002505,3.859295,2.464962,5.892357,-3.902204,-2.313828,-0.080951,0.587293,-0.017021,-39.311221,188.646458,0
0.032292,154.385226,54.330717,-168.815720,-0.227442,-6.094812,1.954375,4.412178,6.105550,-2.052973,-4.320062,-0.069992,0.586771,-0.035692,-39.107641,188.646478,0
0.033333,78.220335,109.057213,-190.076137,-0.623292,-5.317301,-0.697274,6.237937,5.329967,0.585907,-6.036972,-0.018850,0.585399,-0.039427,-25.614811,188.571040,0
0.034375,3.915614,153.490778,-176.054357,-0.419712,-3.907841,-2.625054,6.637567,3.958912,2.604348,-6.566131,-0.037115,0.604931,-0.020755,-11.646961,188.495749,0
0.035417,-64.173416,184.635348,-129.150947,0.496398,-1.589509,-4.587122,6.143907,1.690975,4.457608,-6.063620,-0.007891,0.608132,-0.020755,7.489558,188.721157,0
0.036458,-117.664648,194.686660,-47.371591,2.045868,0.877934,-5.642447,4.678598,-0.882051,5.718630,-4.715979,-0.059033,0.602383,-0.020755,20.145448,188.646332,0
0.037500,-166.562168,161.717873,24.793182,3.425688,3.107509,-5.970094,2.649105,-2.995607,5.992590,-2.740200,-0.033462,0.592127,-0.017021,32.993608,188.570825,0
0.038542,-179.379194,108.900161,92.033712,4.681098,4.978505,-5.067161,-0.089534,-4.958457,5.247258,-0.029691,-0.102869,0.574686,-0.024490,37.755118,188.495513,0
0.039583,-183.224301,22.642506,139.761932,5.597208,6.082642,-3.661330,-2.659701,-6.035452,3.837169,2.429564,-0.183235,0.584615,-0.073035,44.077407,188.721712,0
0.040625,-155.231010,-52.766497,169.295076,6.162708,6.210452,-1.832607,-4.595163,-6.292755,2.036284,4.462447,-0.230724,0.599379,-0.024490,44.620287,188.570703,0
0.041667,-79.610559,-108.519869,190.063069,6.581178,5.489746,0.849521,-6.401333,-5.465711,-0.606625,6.209812,-0.248989,0.605258,-0.031958,29.894668,188.570734,0
0.042708,-3.105393,-153.460831,176.041288,6.321048,4.012830,2.830638,-6.781373,-4.090980,-2.657297,6.750391,-0.256295,0.602841,-0.031958,14.626168,188.495345,0
0.043750,65.301227,-184.726211,128.460796,5.404938,1.648344,4.743178,-6.260287,-1.812015,-4.518614,6.247881,-0.281866,0.597419,-0.017021,-2.678131,188.721730,0
0.044792,117.329277,-194.765442,46.890720,3.878088,-0.794247,5.798504,-4.712701,0.779389,-5.751435,4.805067,-0.223418,0.597876,-0.028224,-16.340611,188.570850,0
0.045833,166.896004,-161.820817,-24.030682,2.520888,-3.073526,6.156629,-2.718470,2.948081,-6.065683,2.844516,-0.190541,0.596896,-0.035692,-28.204801,188.570893,0
0.046875,179.293357,-109.679635,-91.640531,1.254168,-4.930321,5.322274,-0.026847,4.877850,-5.340495,0.172075,-0.135746,0.589318,-0.024490,-33.068101,188.495417,0
0.047917,183.059067,-21.730654,-139.984281,0.292818,-6.069960,3.878344,2.558993,6.021008,-3.910262,-2.389966,-0.055380,0.569460,-0.039427,-39.752311,188.721697,0
0.048958,154.101664,55.055572,-169.037311,-0.261372,-6.162268,1.920086,4.529716,6.237877,-2.028800,-4.380972,-0.069992,0.566912,-0.028224,-37.546861,188.570788,0
0.050000,78.311075,108.924323,-190.777841,-0.679842,-5.335053,-0.800140,6.331968,5.352022,0.674541,-6.170214,-0.011544,0.586444,-0.013287,-24.099271,188.570709,0
0.051042,4.301259,153.974014,-175.734281,-0.408402,-3.879439,-2.712680,6.759023,3.947885,2.697011,-6.642269,0.003068,0.610745,-0.024490,-11.918401,188.495369,0
0.052083,-64.377581,185.481011,-128.498485,0.485088,-1.518504,-4.689987,6.202676,1.599081,4.582502,-6.116917,-0.000585,0.606956,-0.061832,7.862788,188.721684,0
0.053125,-117.846128,194.783307,-46.448296,2.068488,0.956040,-5.756743,4.670762,-0.918808,5.827409,-4.693138,-0.033462,0.597484,-0.024490,20.552608,188.495412,0
0.054167,-166.845731,162.152786,25.999621,3.436998,3.256621,-6.008192,2.574665,-3.135285,6.057052,-2.671676,-0.080951,0.592258,0.009119,33.773998,188.570955,0
0.055208,-179.231741,109.081374,92.144508,4.681098,5.053061,-5.128119,-0.203154,-5.046675,5.299633,0.038834,-0.143052,0.582982,-0.061832,37.936078,188.495419,0
0.056250,-183.836796,22.932448,140.377463,5.597208,6.196251,-3.680379,-2.769404,-6.123670,3.857313,2.555192,-0.205153,0.590364,-0.050629,43.681557,188.721583,0
0.057292,-154.868050,-53.370542,169.307387,6.151398,6.260156,-1.729741,-4.665686,-6.377297,1.947650,4.546198,-0.216112,0.602906,-0.043161,45.208407,188.495528,0
0.058333,-77.727704,-108.278250,191.564963,6.569868,5.471994,1.009534,-6.487527,-5.473062,-0.747634,6.358281,-0.289172,0.599966,-0.017021,29.679778,188.570790,0
0.059375,-2.436186,-153.726611,175.548864,6.275808,3.984428,2.941124,-6.855814,-4.065250,-2.758018,6.796074,-0.270907,0.600162,-0.013287,16.073848,188.495468,0
0.060417,64.666047,-185.922221,128.054546,5.382318,1.584439,4.887952,-6.264205,-1.771582,-4.679767,6.240267,-0.278213,0.610157,-0.028224,-2.972191,188.721681,0
0.061458,117.522099,-194.125154,47.198485,3.844158,-0.922057,5.867081,-4.736209,0.830849,-5.791723,4.782226,-0.241683,0.605976,-0.050629,-16.419781,188.495417,0
0.062500,167.111512,-162.400700,-24.609280,2.532198,-3.197785,6.198537,-2.687127,3.058354,-6.118058,2.749343,-0.168623,0.603690,-0.013287,-27.198211,188.570810,0
0.063542,178.737575,-108.580273,-92.046781,1.231548,-4.983575,5.299415,0.098527,5.006501,-5.316322,0.031220,-0.121134,0.583701,-0.028224,-33.610981,188.495419,0
0.064583,183.478740,-20.546726,-140.058144,0.292818,-6.133865,3.832626,2.692203,6.101875,-3.817599,-2.500366,-0.069992,0.552279,-0.024490,-39.593971,188.721757,0
0.065625,154.192404,54.898520,-168.988069,-0.238752,-6.219072,1.859129,4.588485,6.278311,-1.932109,-4.441883,-0.044421,0.568480,-0.039427,-39.039781,188.495474,0
0.066667,77.902745,108.320277,-191.688826,-0.702462,-5.310201,-0.895386,6.414245,5.296885,0.734974,-6.189248,0.014027,0.604213,-0.050629,-25.592191,188.570850,0
0.067708,4.108437,154.179389,-175.069508,-0.351852,-3.843936,-2.781257,6.715926,3.896425,2.733271,-6.672724,0.043251,0.607479,-0.031958,-11.839231,188.495519,0
0.068750,-64.627116,186.326675,-127.821402,0.496398,-1.465250,-4.747135,6.163496,1.543945,4.655020,-6.090269,-0.022503,0.595263,-0.054364,7.738378,188.721630,0
0.069792,-117.732703,194.457123,-45.525000,2.079798,1.019945,-5.722454,4.588485,-0.977620,5.795178,-4.647455,-0.022503,0.593173,-0.031958,20.269858,188.570854,0
0.070833,-167.151978,162.261514,26.282765,3.436998,3.334727,-6.031051,2.449291,-3.201449,6.061080,-2.603152,-0.062686,0.589384,-0.002084,32.744788,188.570845,0
0.071875,-179.231741,109.250507,92.070644,4.669788,5.099215,-5.082401,-0.238415,-5.090784,5.267402,0.092130,-0.128440,0.583831,-0.035692,37.936078,188.495454,0
0.072917,-184.177071,22.521697,140.377463,5.574588,6.206902,-3.653711,-2.808583,-6.164103,3.829111,2.604681,-0.197847,0.586771,-0.002084,44.405397,188.721742,0
0.073958,-154.414350,-53.998749,169.184281,6.174018,6.270807,-1.672593,-4.736209,-6.318485,1.842901,4.599495,-0.238030,0.594806,-0.024490,44.484567,188.570913,0
0.075000,-75.958274,-108.205765,192.463637,6.592488,5.393888,1.066682,-6.558050,-5.425278,-0.864470,6.388736,-0.289172,0.585072,-0.017021,29.453578,188.495448,0
0.076042,-2.821831,-154.185686,175.130304,6.287118,3.913422,2.998271,-6.851896,-3.984384,-2.830537,6.769426,-0.278213,0.609243,-0.043161,14.219008,188.495530,0
0.077083,64.155635,-186.792046,127.759091,5.371008,1.509884,4.926051,-6.291630,-1.672337,-4.703940,6.217426,-0.285519,0.608132,-0.031958,-2.485861,188.722944,0
0.078125,117.658209,-194.088912,46.816856,3.855468,-0.978861,5.954708,-4.681358,0.930094,-5.868271,4.755578,-0.252642,0.606172,-0.024490,-16.227511,188.570861,0
0.079167,167.395074,-162.424862,-25.766477,2.532198,-3.282992,6.225206,-2.561753,3.201708,-6.174462,2.650364,-0.175929,0.596439,-0.035692,-27.933361,188.495457,0
0.080208,178.726232,-107.106403,-92.096023,1.242858,-5.122036,5.204169,0.294424,5.105746,-5.195457,-0.109635,-0.143052,0.574098,-0.013287,-33.192511,188.495468,0
0.081250,184.045865,-20.232622,-140.292046,0.258888,-6.151617,3.722141,2.837167,6.101875,-3.696734,-2.645028,-0.051727,0.569002,-0.050629,-40.272571,188.646196,0
0.082292,153.795416,54.197828,-169.542046,-0.283992,-6.187120,1.725784,4.713859,6.259932,-1.835417,-4.578931,-0.026156,0.596896,-0.024490,-37.264111,188.570718,0
0.083333,76.518960,107.909527,-193.018372,-0.759012,-5.310201,-0.975393,6.523947,5.329967,0.884040,-6.349138,-0.018850,0.602449,-0.050629,-24.155821,188.495483,0
0.084375,3.246407,154.747192,-174.466288,-0.374472,-3.780031,-2.937461,6.802120,3.811882,2.874280,-6.726020,0.017680,0.610092,-0.035692,-11.850541,188.495414,0
0.085417,-65.194241,187.631412,-126.725758,0.552948,-1.294836,-4.861430,6.139989,1.371184,4.832289,-6.097883,-0.018850,0.601861,-0.043161,8.315188,188.646212,0
0.086458,-117.846128,194.106777,-44.897159,2.102418,1.211660,-5.836749,4.478783,-1.128326,5.855610,-4.518021,0.010374,0.594544,-0.024490,20.496058,188.570834,0
0.087500,-168.014008,163.010530,26.639773,3.425688,3.494489,-6.076769,2.367014,-3.407291,6.121513,-2.439456,-0.088257,0.590298,-0.050629,33.626968,188.495320,0
0.088542,-179.118316,108.247792,92.218371,4.658478,5.251877,-5.097640,-0.395133,-5.252517,5.243229,0.236792,-0.102869,0.589188,-0.024490,38.094418,188.495416,0
0.089583,-184.993731,21.434416,140.685228,5.597208,6.331161,-3.600373,-2.988808,-6.285403,3.676016,2.829288,-0.205153,0.586444,-0.046895,44.280987,188.646236,0
0.090625,-153.234730,-55.122273,169.455114,6.174018,6.306310,-1.531629,-4.924270,-6.377297,1.774410,4.763191,-0.212459,0.566781,-0.031958,44.993517,188.495387,0
0.091667,-74.653886,-107.420506,194.199432,6.716898,5.365486,1.207646,-6.683424,-5.362790,-1.029652,6.495329,-0.256295,0.567043,-0.013287,29.182138,188.495383,0
0.092708,-3.627148,-154.705165,174.133144,6.275808,3.810464,3.154475,-6.930254,-3.896166,-3.019891,6.826529,-0.256295,0.611137,-0.028224,16.017298,188.495363,0
0.093750,63.849387,-188.181350,127.315909,5.382318,1.378523,5.082254,-6.295548,-1.495901,-4.877180,6.213619,-0.241683,0.609569,-0.031958,-2.802541,188.646223,0
0.094792,117.748949,-193.424462,46.016667,3.900708,-1.138624,6.034714,-4.583409,1.088152,-5.904530,4.633757,-0.219765,0.600293,-0.031958,-16.182271,188.495423,0
0.095833,167.542527,-163.101393,-27.354546,2.464338,-3.485358,6.289974,-2.444215,3.348738,-6.174462,2.520930,-0.179582,0.592977,-0.039427,-27.017251,188.495405,0
0.096875,178.442670,-106.333225,-92.699243,1.208928,-5.182391,5.238458,0.384537,5.179261,-5.255889,-0.258104,-0.143052,0.582198,-0.020755,-33.577051,188.495341,0
0.097917,185.055347,-20.655454,-140.722917,0.315438,-6.300728,3.710711,2.946869,6.252580,-3.761195,-2.793497,-0.084604,0.588861,-0.031958,-40.102921,188.646210,0
0.098958,153.307688,54.451527,-169.603599,-0.272682,-6.226173,1.702925,4.847069,6.300365,-1.779013,-4.689331,-0.037115,0.604605,-0.024490,-38.847511,188.495358,0
0.100000,74.942353,107.631666,-194.323296,-0.781632,-5.352804,-1.112547,6.672828,5.304237,0.984761,-6.470958,0.024986,0.605323,-0.020755,-25.603501,188.495472,0
0.101042,2.236924,155.061295,-174.047728,-0.363162,-3.748078,-2.994608,6.868725,3.764098,2.958885,-6.760282,0.043251,0.602057,-0.009553,-11.364211,188.495354,0
0.102083,-65.024104,188.609966,-126.196402,0.496398,-1.238032,-4.960486,6.179168,1.293994,4.908836,-6.109303,0.035945,0.603821,-0.039427,8.315188,188.646259,0
0.103125,-118.061636,193.768512,-45.192614,2.068488,1.286216,-5.909136,4.435686,-1.260653,5.948273,-4.510407,-0.048074,0.596570,-0.002084,20.235928,188.570792,0
0.104167,-168.626503,163.433362,26.812121,3.436998,3.611648,-6.126297,2.300409,-3.495509,6.202089,-2.431842,-0.073645,0.600489,-0.035692,32.699548,188.495416,0
0.105208,-179.038919,107.474614,92.403031,4.658478,5.379687,-5.112880,-0.493081,-5.326032,5.259344,0.350999,-0.157664,0.589384,-0.013287,38.173588,188.495492,0
0.106250,-185.413404,20.057193,140.734470,5.608518,6.423469,-3.550845,-3.122018,-6.311133,3.692131,2.966337,-0.183235,0.583962,-0.013287,44.778627,188.569891,0
0.107292,-152.928482,-55.557185,169.553599,6.174018,6.363114,-1.470672,-4.983039,-6.377297,1.709949,4.850750,-0.230724,0.565475,-0.005818,44.179197,188.570052,0
0.108333,-74.188844,-107.009756,195.110417,6.682968,5.354835,1.325751,-6.781373,-5.388520,-1.094113,6.609536,-0.278213,0.592585,-0.024490,29.114278,188.495660,0
0.109375,-3.888026,-155.188401,173.739205,6.241878,3.803363,3.257340,-6.989024,-3.892490,-3.096439,6.895053,-0.263601,0.616363,-0.046895,14.433898,188.495010,0
0.110417,64.110265,-188.918285,126.552652,5.416248,1.321719,5.169880,-6.326892,-1.404007,-4.977901,6.247881,-0.252642,0.609047,-0.035692,-2.418001,188.570531,0
0.111458,117.658209,-193.605675,45.007197,3.878088,-1.241582,6.057573,-4.555984,1.150639,-5.977049,4.614722,-0.241683,0.596374,-0.009553,-16.137031,188.570260,0
0.112500,167.667294,-163.403415,-28.437879,2.441718,-3.552813,6.267115,-2.314923,3.462686,-6.202663,2.437178,-0.172276,0.585072,-0.050629,-27.458341,188.495671,0
0.113542,178.692205,-106.333225,-92.366856,1.208928,-5.260497,5.185120,0.529501,5.274831,-5.195457,-0.334242,-0.128440,0.582851,-0.028224,-33.305611,188.495070,0
0.114583,185.531732,-20.788344,-141.030682,0.270198,-6.364633,3.653564,3.076161,6.322420,-3.700763,-2.884862,-0.080951,0.589776,-0.039427,-40.691041,188.569043,0
0.115625,152.570426,54.705225,-170.096023,-0.317922,-6.258125,1.573391,4.972443,6.344474,-1.678293,-4.792117,-0.040768,0.602449,-0.031958,-36.947431,188.569650,0
0.116667,72.809962,107.353805,-195.640531,-0.792942,-5.292449,-1.223032,6.692418,5.285858,1.085481,-6.543289,0.014027,0.589384,-0.024490,-24.087961,188.494717,0
0.117708,1.771882,155.604936,-173.542993,-0.329232,-3.638020,-3.162241,6.896151,3.712637,3.120038,-6.817386,0.035945,0.594479,-0.020755,-11.386831,188.493293,0
0.118750,-64.627116,189.334820,-125.950190,0.541638,-1.117322,-5.082401,6.147825,1.227830,5.025672,-6.135951,0.010374,0.604213,-0.087972,8.597938,188.495311,0
0.119792,-118.163718,193.381923,-45.254167,2.057178,1.431778,-5.958664,4.376916,-1.370925,5.992590,-4.457110,-0.011544,0.599509,-0.039427,20.292478,188.570837,0
0.120833,-168.513078,164.134054,27.870833,3.459618,3.739458,-6.187255,2.194625,-3.682972,6.238349,-2.332863,-0.099216,0.598007,-0.028224,33.479938,188.495423,0
0.121875,-178.970864,105.747045,92.353788,4.669788,5.468444,-5.029063,-0.681142,-5.462035,5.134451,0.526116,-0.132093,0.578540,-0.035692,38.139658,188.495428,0
0.122917,-186.093954,19.126963,140.722160,5.619828,6.469622,-3.451789,-3.266982,-6.425082,3.579324,3.152874,-0.194194,0.584158,-0.046895,44.778627,188.495332,0
0.123958,-152.134507,-54.928978,170.206061,6.219258,6.348913,-1.341137,-5.120167,-6.406703,1.581027,4.983991,-0.223418,0.600750,-0.024490,44.733387,188.495289,0
0.125000,-73.837226,-106.429872,196.033713,6.682968,5.400989,1.440046,-6.855814,-5.432629,-1.206920,6.716129,-0.278213,0.602971,-0.024490,29.114278,188.495323,0
0.126042,-3.536408,-155.526666,173.074432,6.287118,3.721707,3.352586,-7.032121,-3.833678,-3.172987,6.963577,-0.307437,0.617212,-0.080503,16.085158,188.495383,0
0.127083,64.643362,-189.474006,125.986364,5.371008,1.254264,5.272746,-6.350400,-1.326816,-5.054448,6.282143,-0.256295,0.603494,-0.035692,-3.085291,188.570674,0
