1-Time,2-VGERA,3-VGERB,4-VGERC,5-VN,6-IGERAN,7-IGERBN,8-IGERCN,9-IGERAT,10-IGERBT,11-IGERCT,12-IN,13-IFD,14-IFAULT,15-VFAULT,16-Speed (rad/s),17-Active Power,18-Reactive Power,19-FAULT 
0.000000,-162.002483,138.679589,-13.431250,2.633988,6.111044,-0.739650,-5.330066,-5.601714,0.937095,5.107614,-0.263601,0.182801,-0.031958,3.757258,188.495349,985.298761,-1272.589032,0
0.001042,-195.905217,83.433615,42.003409,3.708438,4.623478,1.776432,-6.094997,-4.252713,-1.585117,5.908129,-0.241683,0.189921,-0.024490,3.621538,188.495258,985.331544,-1273.068776,0
0.002083,-171.518841,37.622827,126.971213,5.291838,2.958397,3.879781,-6.262908,-2.492029,-3.624710,6.061117,-0.241683,0.194560,-0.024490,2.841148,188.495436,986.334375,-1273.837202,0
0.003125,-124.651629,-3.464327,185.975948,6.411528,0.672018,5.026702,-4.986780,-0.308634,-4.858538,4.958184,-0.241683,0.200831,-0.017021,1.076788,188.570832,986.530633,-1273.680331,0
0.004167,-71.239794,-67.130691,197.375569,6.615108,-1.972939,6.205371,-3.524083,2.393043,-6.004235,3.442541,-0.205153,0.177706,-0.050629,-0.653642,188.495410,986.489743,-1273.810271,0
0.005208,-29.794297,-143.784027,166.352841,6.060918,-4.007249,5.959319,-1.255410,4.480869,-5.970661,1.400337,-0.172276,0.180580,-0.020755,-1.648922,188.495407,987.499206,-1274.735878,0
0.006250,13.602110,-196.722549,101.045076,4.828128,-5.544519,4.740964,1.304310,5.943817,-4.703260,-1.111502,-0.091910,0.181233,-0.046895,-1.773332,188.495535,988.214054,-1274.965785,0
0.007292,88.145023,-186.018868,55.840530,3.957258,-6.304279,3.022567,3.595371,6.877458,-3.108517,-3.320925,-0.037115,0.176726,-0.073035,-0.291722,188.495293,988.010531,-1275.075581,0
0.008333,161.406234,-139.289931,14.304545,3.199488,-5.988304,0.879532,5.192397,6.451071,-0.913646,-4.943303,-0.051727,0.183781,-0.035692,1.088098,188.495372,987.941613,-1275.615552,0
0.009375,195.411050,-84.128523,-41.524053,2.113728,-4.518489,-1.636550,5.931209,5.113098,1.579189,-5.740261,0.003068,0.192012,-0.013287,1.291678,188.495019,988.397056,-1276.412156,0
0.010417,171.512402,-37.689528,-126.504167,0.541638,-2.814355,-3.712120,6.106583,3.308305,3.631372,-5.836323,0.017680,0.200177,-0.024490,2.117308,188.495329,989.135984,-1276.796232,0
0.011458,124.531765,3.603002,-186.025948,-0.566742,-0.549278,-4.827292,4.811798,1.121233,4.835823,-4.786758,-0.018850,0.210956,-0.009553,3.791188,188.570805,989.124911,-1276.555986,0
0.012500,70.813682,66.906939,-197.425569,-0.770322,2.085029,-5.962307,3.356563,-1.543686,6.006700,-3.306694,-0.077298,0.197042,-0.043161,5.487688,188.495327,989.377333,-1276.799372,0
0.013542,29.311473,143.995187,-166.452084,-0.238752,4.144190,-5.807532,1.158786,-3.576375,5.998307,-1.292953,-0.091910,0.189725,-0.054364,6.415108,188.495376,989.981511,-1275.998249,0
0.014583,-13.438411,196.474634,-100.504167,0.937488,5.688561,-4.585208,-1.419590,-5.024621,4.726709,1.282928,-0.139399,0.180123,-0.031958,6.765718,188.495369,990.097205,-1275.331815,0
0.015625,-88.264887,186.713264,-54.991856,1.830978,6.458971,-2.862843,-3.680800,-5.998695,3.152949,3.492351,-0.230724,0.173264,0.001650,4.843018,188.570772,990.323417,-1275.285783,0
0.016667,-161.106425,139.404443,-13.923674,2.645298,6.128796,-0.672184,-5.318872,-5.598038,0.874145,5.089824,-0.238030,0.181103,-0.039427,3.531058,188.495403,989.241549,-1275.679707,0
0.017708,-196.120724,83.941013,41.387879,3.663198,4.658980,1.792306,-6.061414,-4.252713,-1.568331,5.897456,-0.234377,0.189007,-0.020755,3.497128,188.495432,989.099976,-1275.706017,0
0.018750,-171.609581,37.598665,125.961743,5.291838,2.908693,3.836127,-6.244251,-2.436893,-3.595333,6.011307,-0.234377,0.171630,-0.054364,2.773288,188.495477,987.853545,-1275.084193,0
0.019792,-124.538204,-3.246871,186.246781,6.366288,0.700420,5.002890,-4.986780,-0.327012,-4.845948,4.983089,-0.219765,0.200243,-0.024490,1.167268,188.568980,988.266767,-1274.991958,0
0.020833,-71.046971,-66.260866,197.486364,6.592488,-1.944537,6.165686,-3.471844,2.367313,-5.937088,3.385616,-0.223418,0.196127,-0.058098,-0.676262,188.489131,987.125106,-1274.124994,0
0.021875,-29.454022,-143.844432,166.771402,6.060918,-3.996598,5.979162,-1.296455,4.484545,-5.979055,1.457263,-0.175929,0.192796,-0.031958,-1.524512,188.495343,987.923772,-1274.032835,0
0.022917,13.182437,-196.106423,101.020455,4.850748,-5.498366,4.740964,1.285653,5.892357,-4.699063,-1.139965,-0.117481,0.198544,-0.020755,-1.739402,188.495665,987.194461,-1273.633700,0
0.023958,87.918173,-186.671237,55.668182,4.013808,-6.311379,3.062253,3.539400,6.895837,-3.129500,-3.313810,-0.059033,0.176007,-0.050629,-0.303032,188.571062,987.643252,-1273.854020,0
0.025000,160.737026,-139.471145,14.612311,3.233418,-5.981203,0.879532,5.170009,6.465774,-0.926237,-4.907725,-0.048074,0.184173,-0.054364,0.963688,188.495622,987.562629,-1273.520548,0
0.026042,195.819380,-84.116442,-40.982386,2.125038,-4.507838,-1.676236,5.931209,5.116774,1.579189,-5.729588,0.028639,0.190052,-0.054364,1.280368,188.495694,987.481638,-1273.554588,0
0.027083,171.228839,-38.353978,-126.245644,0.530328,-2.800154,-3.680371,6.128971,3.330359,3.656552,-5.864786,-0.011544,0.196193,-0.009553,2.128618,188.495716,987.575417,-1274.077601,0
0.028125,125.166945,3.156008,-186.025948,-0.566742,-0.549278,-4.859040,4.856574,1.165342,4.886183,-4.836568,-0.026156,0.209258,-0.043161,3.745948,188.571046,988.435116,-1274.898718,0
0.029167,71.902562,66.713644,-197.093182,-0.804252,2.088579,-5.986118,3.408802,-1.499577,5.985717,-3.306694,-0.040768,0.195278,-0.017021,5.498998,188.495600,988.303529,-1274.608354,0
0.030208,29.889941,143.777731,-166.759849,-0.238752,4.158391,-5.859123,1.184906,-3.598430,5.981520,-1.264490,-0.106522,0.190771,-0.043161,6.460348,188.482903,987.619675,-1275.122988,0
0.031250,-13.030081,196.317582,-101.021212,0.960108,5.688561,-4.628862,-1.445710,-5.065054,4.735102,1.275813,-0.113828,0.181233,-0.028224,6.731788,188.495571,987.638592,-1275.748261,0
0.032292,-87.890585,186.556212,-55.632008,1.830978,6.508675,-2.886654,-3.714383,-6.013398,3.131965,3.499467,-0.197847,0.174243,-0.005818,4.967428,188.495883,987.161947,-1276.145956,0
0.033333,-161.310590,139.416524,-14.477652,2.622678,6.164298,-0.735682,-5.333797,-5.645823,0.907718,5.157424,-0.270907,0.181037,-0.017021,3.757258,188.495640,987.824060,-1277.140885,0
0.034375,-196.064012,84.303440,40.993940,3.663198,4.680282,1.780400,-6.083803,-4.318877,-1.572527,5.943708,-0.274560,0.190379,-0.013287,3.610228,188.495575,988.507507,-1277.923783,0
0.035417,-171.688978,38.299358,126.072538,5.269218,2.937095,3.895656,-6.259177,-2.492029,-3.607923,6.075348,-0.274560,0.197499,-0.058098,2.863768,188.495609,989.463010,-1278.680804,0
0.036458,-124.821766,-2.666988,185.877463,6.354978,0.675568,5.078294,-4.997974,-0.349067,-4.921488,5.018668,-0.216112,0.208670,-0.028224,1.110718,188.570893,989.845601,-1279.666487,0
0.037500,-71.387246,-66.043410,197.646402,6.637728,-1.990691,6.185528,-3.501695,2.411422,-6.037808,3.485236,-0.186888,0.183977,-0.039427,-0.631022,188.495568,991.182740,-1281.227421,0
0.038542,-29.782955,-143.421600,166.697538,6.049608,-4.032101,6.002974,-1.259141,4.513951,-5.995841,1.432358,-0.164970,0.178098,-0.024490,-1.637612,188.495584,990.774749,-1281.795328,0
0.039583,12.842162,-196.613821,100.946591,4.805508,-5.580022,4.820336,1.334161,5.998954,-4.736834,-1.083040,-0.095563,0.160786,-0.035692,-1.807262,188.495591,991.932404,-1282.728292,0
0.040625,87.271651,-186.526266,55.520455,3.979878,-6.357533,3.066222,3.599102,6.925243,-3.188254,-3.335157,-0.026156,0.172480,-0.013287,-0.269102,188.495495,992.413754,-1283.055132,0
0.041667,160.737026,-139.446983,14.550758,3.188178,-6.006055,0.855720,5.166278,6.509883,-0.909450,-4.925514,-0.015197,0.183912,-0.031958,1.088098,188.495512,992.677477,-1283.579812,0
0.042708,195.774010,-83.802339,-40.625379,2.170278,-4.532690,-1.628613,5.972254,5.124125,1.587582,-5.758050,-0.022503,0.191097,0.020321,1.314298,188.495629,992.704273,-1283.863666,0
0.043750,171.455689,-37.713690,-125.617803,0.575568,-2.835657,-3.652591,6.158822,3.356089,3.601995,-5.879017,-0.015197,0.187962,-0.054364,2.105998,188.495636,993.196173,-1283.175339,0
0.044792,124.690560,2.841905,-185.853599,-0.589362,-0.570579,-4.839197,4.867768,1.191073,4.856806,-4.843684,-0.015197,0.204424,-0.005818,3.757258,188.626201,993.282090,-1282.560532,0
0.045833,71.516917,65.976709,-197.487122,-0.815562,2.021124,-6.021835,3.386414,-1.477522,5.989913,-3.299578,-0.080951,0.183258,-0.017021,5.498998,188.478538,993.206573,-1282.415457,0
0.046875,30.014708,143.765650,-166.956819,-0.272682,4.108687,-5.835312,1.199832,-3.561672,6.015093,-1.303626,-0.106522,0.177183,-0.031958,6.392488,188.483309,993.952106,-1282.189204,0
0.047917,-12.599066,195.906832,-101.624432,0.982728,5.663709,-4.601082,-1.445710,-5.054027,4.735102,1.236676,-0.117481,0.180319,-0.050629,6.765718,188.487579,993.919788,-1281.974176,0
0.048958,-87.663735,187.063610,-56.050568,1.808358,6.494474,-2.926340,-3.691994,-6.009722,3.186522,3.442541,-0.208806,0.176464,-0.005818,4.854328,188.637270,994.661823,-1281.575353,0
0.050000,-160.471245,140.165540,-14.736174,2.611368,6.132346,-0.755525,-5.326334,-5.664201,0.966472,5.118287,-0.252642,0.184042,-0.028224,3.564988,188.485849,995.036786,-1281.151989,0
0.051042,-196.540397,85.233670,40.686174,3.617958,4.698033,1.792306,-6.083803,-4.307850,-1.564134,5.925918,-0.238030,0.191097,-0.024490,3.564988,188.486918,994.847634,-1281.357220,0
0.052083,-171.972541,38.915484,125.223106,5.235288,2.965498,3.867876,-6.281565,-2.488353,-3.582743,6.025538,-0.230724,0.199198,-0.020755,2.795908,188.475250,994.087149,-1280.925691,0
0.053125,-125.559029,-2.123347,186.234470,6.366288,0.721722,5.006859,-5.027825,-0.367446,-4.875324,5.004436,-0.252642,0.210564,-0.024490,1.144648,188.622160,994.000888,-1280.714596,0
0.054167,-72.328674,-65.258151,197.437122,6.626418,-1.937437,6.165686,-3.479306,2.374664,-5.995841,3.435426,-0.208806,0.197695,-0.035692,-0.653642,188.545839,992.975862,-1280.308901,0
0.055208,-30.327395,-143.566571,167.263826,6.094848,-4.014349,6.046628,-1.307649,4.447787,-5.987448,1.407453,-0.175929,0.191751,-0.024490,-1.581062,188.490552,992.720817,-1280.037198,0
0.056250,12.399805,-195.695672,101.549811,4.895988,-5.551620,4.764775,1.244608,5.910736,-4.724244,-1.107945,-0.095563,0.183781,-0.031958,-1.773332,188.504022,991.697611,-1279.365217,0
0.057292,87.294336,-187.335686,55.717424,3.979878,-6.318480,3.090033,3.554326,6.884810,-3.158877,-3.292462,-0.077298,0.175289,-0.024490,-0.257792,188.553484,991.435223,-1278.926134,0
0.058333,159.874996,-139.809410,14.760038,3.165558,-6.009606,0.867626,5.218517,6.513559,-0.917843,-4.943303,-0.040768,0.181756,-0.020755,0.952378,188.485154,991.177695,-1279.180902,0
0.059375,196.273080,-84.152685,-40.256061,2.136348,-4.522039,-1.668299,5.953597,5.124125,1.545616,-5.775840,-0.007891,0.189007,-0.020755,1.280368,188.489900,991.519815,-1279.281477,0
0.060417,171.342264,-37.822418,-125.150000,0.598188,-2.835657,-3.684340,6.162554,3.330359,3.622978,-5.879017,-0.011544,0.184434,-0.024490,2.117308,188.487601,990.969081,-1279.526895,0
0.061458,124.826670,3.059361,-186.099811,-0.589362,-0.613183,-4.807449,4.893888,1.161667,4.873593,-4.843684,-0.018850,0.203444,-0.076769,3.712018,188.494323,990.884643,-1279.957354,0
0.062500,71.414835,65.771334,-197.425569,-0.826872,2.035325,-5.994055,3.431191,-1.517955,5.973126,-3.313810,-0.044421,0.190901,-0.031958,5.453758,188.496123,990.641974,-1280.124437,0
0.063542,29.617721,143.499870,-167.227652,-0.272682,4.161941,-5.859123,1.207294,-3.594754,6.040274,-1.328531,-0.095563,0.188550,-0.013287,6.494278,188.496078,991.085157,-1280.497774,0
0.064583,-12.406244,195.918912,-101.316667,0.948798,5.667259,-4.609020,-1.415859,-5.068730,4.760282,1.272255,-0.139399,0.186982,-0.035692,6.777028,188.496011,991.061185,-1280.931749,0
0.065625,-87.085267,187.111933,-55.939773,1.830978,6.469622,-2.926340,-3.703189,-6.079561,3.190719,3.513698,-0.175929,0.175419,-0.009553,5.012668,188.420759,991.039207,-1282.285040,0
0.066667,-160.301108,140.008489,-15.105492,2.588748,6.210452,-0.735682,-5.348723,-5.660526,0.970669,5.125403,-0.230724,0.181756,0.005384,3.802498,188.496206,990.856132,-1282.320699,0
0.067708,-196.313547,85.173265,40.304546,3.663198,4.690933,1.788338,-6.091265,-4.329904,-1.530560,5.933034,-0.230724,0.192926,-0.024490,3.632848,188.496114,991.143134,-1282.091698,0
0.068750,-171.983883,39.277911,125.420076,5.269218,2.993900,3.824221,-6.330073,-2.510408,-3.591136,6.078906,-0.245336,0.194037,-0.031958,2.852458,188.496100,991.769308,-1282.683758,0
0.069792,-125.751851,-1.869648,185.852841,6.388908,0.693320,5.030671,-5.027825,-0.404203,-4.929881,5.018668,-0.230724,0.204097,-0.013287,1.122028,188.420685,992.125253,-1283.156719,0
0.070833,-73.009224,-65.209828,197.597160,6.637728,-1.972939,6.173623,-3.553934,2.404070,-6.033612,3.467446,-0.190541,0.193253,-0.043161,-0.642332,188.496149,992.459863,-1284.100754,0
0.071875,-31.189425,-143.059173,167.374622,6.049608,-4.074704,6.022817,-1.285261,4.462490,-6.029415,1.460821,-0.186888,0.188680,-0.031958,-1.648922,188.496111,992.961182,-1284.573136,0
0.072917,12.002817,-195.852724,102.029925,4.839438,-5.569371,4.780650,1.319235,5.973223,-4.770407,-1.107945,-0.091910,0.180907,-0.028224,-1.784642,188.496092,993.476439,-1285.654412,0
0.073958,86.965403,-187.045745,56.456061,4.002498,-6.371734,3.062253,3.599102,6.947297,-3.142090,-3.345830,-0.059033,0.175681,-0.013287,-0.280412,188.420765,993.110546,-1286.937868,0
0.075000,159.920366,-140.328889,15.203220,3.210798,-6.034458,0.891438,5.199860,6.535613,-0.938827,-4.971766,-0.059033,0.182932,-0.020755,1.054168,188.496069,993.419372,-1287.563960,0
0.076042,196.159655,-84.962106,-39.775947,2.158968,-4.585944,-1.680205,5.998373,5.149855,1.562402,-5.758050,-0.015197,0.190640,-0.039427,1.291678,188.492079,993.222275,-1287.875536,0
0.077083,171.818649,-38.462706,-124.608334,0.552948,-2.807255,-3.692277,6.121508,3.341386,3.593602,-5.921711,0.017680,0.197760,-0.009553,2.094688,188.495968,993.506190,-1288.203243,0
0.078125,125.166945,2.201617,-185.976705,-0.589362,-0.577680,-4.839197,4.905082,1.198424,4.915560,-4.872146,-0.033462,0.209062,-0.024490,3.723328,188.496025,993.883878,-1288.833370,0
0.079167,71.891220,65.082722,-197.671781,-0.826872,2.063727,-5.994055,3.401340,-1.525307,5.994110,-3.292462,-0.037115,0.193776,-0.020755,5.465068,188.495873,993.455513,-1289.397392,0
0.080208,29.901283,143.487789,-167.338447,-0.250062,4.115788,-5.831343,1.192369,-3.605781,5.994110,-1.257374,-0.113828,0.186067,-0.050629,6.415108,188.495982,992.222195,-1289.631442,0
0.081250,-12.077311,195.496081,-101.550568,0.937488,5.621106,-4.565365,-1.393471,-4.984188,4.709922,1.268697,-0.164970,0.170651,-0.009553,6.765718,188.495946,991.252693,-1288.615166,0
0.082292,-86.892445,187.740140,-55.705871,1.808358,6.455421,-2.946183,-3.703189,-6.020749,3.157146,3.474562,-0.208806,0.172414,-0.035692,4.865638,188.495825,990.785261,-1287.869265,0
0.083333,-159.178200,140.431320,-14.748485,2.577438,6.160748,-0.739650,-5.292752,-5.620092,0.937095,5.054246,-0.227071,0.179992,-0.024490,3.576298,188.495778,989.810405,-1286.967574,0
0.084375,-196.665164,84.677948,40.119886,3.685818,4.669631,1.780400,-6.050220,-4.274768,-1.547347,5.879666,-0.230724,0.190183,-0.054364,3.542368,188.495960,988.965301,-1286.375768,0
0.085417,-172.074623,38.528895,124.127462,5.257908,2.926445,3.804378,-6.206938,-2.492029,-3.519793,6.004191,-0.241683,0.198414,-0.009553,2.807218,188.495940,988.092472,-1284.773630,0
0.086458,-125.468289,-1.628030,186.086743,6.388908,0.686219,4.990985,-5.020362,-0.363770,-4.866931,5.025783,-0.197847,0.223890,-0.009553,1.201198,188.556418,987.705054,-1284.354833,0
0.087500,-72.555524,-64.255436,197.301705,6.603798,-1.958738,6.153780,-3.512889,2.337907,-5.974858,3.460331,-0.248989,0.198283,-0.046895,-0.563162,188.495997,987.324399,-1282.976183,0
0.088542,-30.713040,-143.373277,167.830114,6.106158,-3.996598,5.991068,-1.311380,4.451463,-6.025218,1.446589,-0.161317,0.190967,-0.031958,-1.569752,188.496016,987.428390,-1282.940500,0
0.089596,12.808135,-196.408445,101.143561,4.862058,-5.572921,4.705247,1.315504,5.929114,-4.707457,-1.143523,-0.113828,0.185937,-0.031958,-1.728092,188.496025,986.881019,-1282.217567,0
0.090634,87.782063,-186.598751,56.062121,4.002498,-6.346882,3.006693,3.614028,6.877458,-3.100123,-3.370735,-0.040768,0.177379,-0.013287,-0.303032,188.496020,986.190944,-1281.616884,0
0.091667,158.876856,-140.884610,15.437121,3.210798,-5.998955,0.903343,5.184935,6.513559,-0.917843,-4.953977,-0.033462,0.182670,-0.039427,0.884518,188.496174,985.354228,-1281.537966,0
0.092708,196.579328,-85.324533,-39.665152,2.125038,-4.532690,-1.644487,5.972254,5.149855,1.574992,-5.754492,-0.000585,0.189725,-0.043161,1.246438,188.496183,985.308716,-1281.855888,0
0.093750,171.807307,-39.127156,-124.202084,0.609498,-2.800154,-3.692277,6.095389,3.308305,3.622978,-5.861228,0.024986,0.198152,-0.020755,2.105998,188.496177,984.096327,-1281.928985,0
0.094792,125.926892,1.911675,-185.964395,-0.623292,-0.584781,-4.843166,4.901350,1.187397,4.907166,-4.865031,-0.026156,0.209519,-0.013287,3.689398,188.496006,983.844817,-1282.227107,0
0.095833,72.798620,64.853185,-197.228599,-0.815562,2.056626,-5.990087,3.401340,-1.499577,5.994110,-3.274673,-0.051727,0.194755,-0.031958,5.419828,188.495997,983.510774,-1282.205521,0
0.096875,30.275586,143.318656,-167.867804,-0.329232,4.129989,-5.863092,1.158786,-3.616809,5.968930,-1.307184,-0.106522,0.190705,-0.031958,6.471658,188.496138,983.675436,-1282.237699,0
0.097917,-11.884489,195.157815,-102.030682,0.948798,5.656609,-4.612988,-1.419590,-5.028297,4.693135,1.265139,-0.168623,0.179404,-0.020755,6.720478,188.496074,983.427716,-1282.766371,0
0.098958,-86.699622,187.885111,-55.915152,1.830978,6.469622,-2.922371,-3.721845,-6.053831,3.169736,3.449657,-0.219765,0.171696,-0.046895,5.012668,188.496025,983.791244,-1282.904201,0
0.100000,-159.098803,140.612534,-15.093182,2.622678,6.150097,-0.711870,-5.352454,-5.671553,0.962275,5.079151,-0.252642,0.178816,0.020321,3.802498,188.496036,984.374972,-1283.476665,0
0.101042,-196.767247,84.750434,39.725947,3.617958,4.701584,1.820086,-6.139773,-4.307850,-1.559937,5.975728,-0.230724,0.187047,-0.039427,3.587608,188.496205,984.927258,-1284.732313,0
0.102083,-171.961198,38.698028,124.127462,5.246598,2.958397,3.844064,-6.251714,-2.514084,-3.595333,6.036212,-0.270907,0.212393,-0.087972,2.875078,188.496054,985.134663,-1285.750634,0
0.103125,-125.502316,-1.748839,185.680493,6.343668,0.707521,5.054482,-5.068870,-0.393176,-4.917291,5.025783,-0.267254,0.225916,-0.031958,1.167268,188.496000,985.377188,-1286.022077,0
0.104167,-72.317331,-64.207113,197.474054,6.592488,-1.944537,6.157748,-3.497963,2.345258,-5.991645,3.431868,-0.186888,0.207886,-0.073035,-0.551852,188.495957,985.151570,-1286.213392,0
0.105208,-30.406792,-142.781312,167.842425,6.094848,-4.010799,6.006942,-1.303918,4.484545,-6.016825,1.450147,-0.128440,0.186525,-0.013287,-1.660232,188.496138,984.917125,-1286.353598,0
0.106250,11.424350,-194.994979,102.362311,4.895988,-5.523218,4.776681,1.278190,5.932790,-4.757817,-1.097271,-0.077298,0.185349,-0.050629,-1.773332,188.496031,984.834227,-1286.568121,0
0.107292,86.171428,-187.746437,56.332955,4.025118,-6.385935,3.038441,3.580446,6.936270,-3.163074,-3.352946,-0.033462,0.169279,-0.065566,-0.325652,188.420616,985.499444,-1287.335401,0
0.108333,158.434499,-140.872529,15.400189,3.199488,-6.023807,0.839846,5.151352,6.520910,-0.926237,-4.950419,0.010374,0.181821,-0.046895,1.008928,188.495948,985.490823,-1287.228808,0
0.109375,196.522615,-85.264128,-39.283523,2.158968,-4.546891,-1.692110,5.968522,5.146180,1.591779,-5.747377,0.003068,0.186851,-0.013287,1.269058,188.496045,985.155438,-1287.285876,0
0.110417,171.909389,-39.211722,-123.611175,0.620808,-2.764651,-3.664497,6.099120,3.315656,3.618782,-5.861228,0.017680,0.188223,-0.039427,2.072068,188.495946,985.027078,-1287.243010,0
0.111458,125.904207,1.428439,-185.939773,-0.566742,-0.577680,-4.835229,4.897619,1.180045,4.881986,-4.872146,-0.044421,0.203248,-0.017021,3.712018,188.496029,984.837201,-1287.125307,0
