1-Time,2-VGERA,3-VGERB,4-VGERC,5-VN,6-IGERAN,7-IGERBN,8-IGERCN,9-IGERAT,10-IGERBT,11-IGERCT,12-IN,13-IFD,14-IFAULT,15-VFAULT,16-Speed (rad/s),17-Active Power,18-Reactive Power,19-FAULT 
0.000000,-74.842304,-86.338977,200.191654,4.097394,3.106427,3.218657,-5.831405,-2.891767,-3.311113,5.624444,0.146652,0.445045,-0.033307,-45.983788,188.492707,1572.537529,-20.755013,0
0.001042,-14.365104,-144.230132,174.551627,3.658281,1.190962,4.558669,-5.085243,-0.931681,-4.629519,4.771487,0.088314,0.428992,-0.040740,3.642907,188.571246,1571.275152,-19.699270,0
0.002083,47.422888,-186.981969,125.410267,2.689981,-1.051086,5.648990,-3.805555,1.276658,-5.630449,3.514899,0.099252,0.427269,-0.025873,49.216605,188.495580,1570.281885,-18.356829,0
0.003125,102.363125,-189.507146,50.325087,1.248791,-3.083974,5.528305,-1.729445,3.273797,-5.529033,1.462473,0.048206,0.455794,-0.011006,96.051236,188.721824,1570.160715,-16.462200,0
0.004167,161.552134,-163.069128,-15.281788,-0.000992,-4.632491,4.929045,0.381460,4.822598,-4.902901,-0.597570,0.022683,0.454829,-0.048173,136.344780,188.571129,1569.373135,-14.393429,0
0.005208,181.846800,-101.325610,-71.932882,-1.093144,-5.208598,3.222818,2.438239,5.374683,-3.095053,-2.764232,-0.046595,0.456345,-0.029590,150.699144,188.571107,1568.323022,-12.262934,0
0.006250,190.061845,-27.942787,-130.200147,-2.162777,-5.304005,1.304353,4.243720,5.504367,-1.291615,-4.401604,-0.090349,0.456827,-0.063040,148.886553,188.495702,1567.967466,-9.485380,0
0.007292,149.732412,37.007119,-169.279924,-2.995965,-4.434340,-0.747281,5.167725,4.566935,0.868982,-5.376411,-0.101287,0.456552,-0.022156,107.782410,188.721933,1567.574395,-7.803495,0
0.008333,76.113398,86.559316,-199.440373,-3.570190,-2.797755,-3.127676,5.759242,2.969965,3.192728,-5.844776,-0.104934,0.469574,-0.007290,47.358982,188.495736,1566.087083,-5.783762,0
0.009375,16.099495,143.980670,-174.274261,-3.074780,-0.893298,-4.476011,4.982150,1.028405,4.577274,-5.022282,-0.079410,0.472537,-0.011006,-1.367047,188.571042,1565.142456,-4.492458,0
0.010417,-46.682890,186.802977,-125.764787,-2.219074,1.323063,-5.578816,3.772053,-1.168818,5.609070,-3.723808,-0.042949,0.467851,0.007577,-49.113602,188.495658,1564.127412,-3.609486,0
0.011458,-102.933918,188.952314,-51.457315,-0.777883,3.315587,-5.533040,1.715274,-3.140020,5.472379,-1.713267,-0.017425,0.460341,-0.018440,-95.441608,188.721934,1562.542464,-1.705224,0
0.012500,-162.134227,162.925372,14.319684,0.494418,4.919147,-4.912972,-0.391765,-4.707348,4.872703,0.365814,0.000805,0.459790,-0.018440,-137.142442,188.495598,1561.848164,0.447249,0
0.013542,-181.660498,102.415080,72.586950,1.620348,5.484245,-3.256683,-2.448545,-5.285370,3.082493,2.437280,0.070083,0.458963,-0.033307,-149.729249,188.571098,1560.080534,2.513008,0
0.014583,-189.943343,28.773866,131.060794,2.768796,5.612677,-1.392318,-4.219231,-5.378001,1.257008,4.097499,0.095606,0.455932,-0.063040,-148.074275,188.495772,1558.500355,3.793842,0
0.015625,-150.303205,-36.998190,169.265650,3.489392,4.687970,0.646831,-5.178030,-4.492443,-0.850677,5.030421,0.121129,0.486799,-0.044457,-107.803248,188.721875,1556.872765,4.894814,0
0.016667,-76.333894,-86.914483,199.693436,4.074875,3.135783,3.073003,-5.765681,-2.917704,-3.156785,5.525440,0.106545,0.471227,-0.025873,-45.601004,188.495743,1555.115002,6.358339,0
0.017708,-15.495096,-144.194897,174.490869,3.590725,1.220318,4.429662,-4.988590,-1.002081,-4.492828,4.744832,0.091960,0.475499,-0.025873,3.361449,188.571040,1553.667782,7.555777,0
0.018750,47.592387,-187.075929,125.288750,2.667463,-0.988705,5.536628,-3.763028,1.202552,-5.564308,3.507284,0.088314,0.469849,-0.007290,49.734488,188.495669,1552.645777,8.574060,0
0.019792,103.108920,-189.248756,50.434452,1.260050,-2.973889,5.461721,-1.787437,3.192281,-5.436436,1.458665,0.040913,0.457516,-0.022156,96.175077,188.721876,1551.061594,9.273205,0
0.020833,162.083230,-162.740268,-15.585580,-0.012251,-4.555432,4.879107,0.300271,4.748493,-4.827941,-0.612801,0.019036,0.452900,-0.011006,137.279221,188.571131,1549.658718,9.311594,0
0.021875,181.541702,-101.149435,-73.002229,-1.126922,-5.116862,3.202010,2.418909,5.296872,-3.073006,-2.695691,-0.053887,0.452693,-0.011006,149.753444,188.495624,1548.312710,10.291672,0
0.022917,189.734148,-27.014931,-130.601153,-2.241592,-5.223276,1.350130,4.154799,5.404325,-1.256340,-4.344486,-0.086703,0.461788,-0.018440,149.044170,188.495736,1546.547257,10.458783,0
0.023958,149.495114,38.310815,-169.061194,-3.007225,-4.404984,-0.693181,5.113599,4.540998,0.868982,-5.258368,-0.119518,0.483285,-0.029590,107.669827,188.721735,1544.956955,11.212549,0
0.025000,74.780007,87.357977,-199.440373,-3.558930,-2.812433,-3.086060,5.705116,3.007017,3.214775,-5.814313,-0.108580,0.430163,-0.007290,45.962950,188.571096,1544.853044,11.975705,0
0.026042,13.952509,144.391746,-174.116289,-3.097299,-0.863943,-4.446880,4.982150,1.054342,4.524361,-5.003243,-0.101287,0.425064,-0.025873,-1.524664,188.495644,1544.123314,13.362130,0
0.027083,-48.400479,186.744252,-124.804805,-2.140259,1.271691,-5.533040,3.752722,-1.120650,5.551748,-3.761886,-0.028364,0.473226,-0.018440,-50.498376,188.495671,1543.511660,15.193242,0
0.028125,-103.318116,189.198959,-49.549502,-0.732846,3.282562,-5.466455,1.734604,-3.132610,5.406238,-1.736114,-0.021072,0.457241,-0.040740,-95.745582,188.721866,1542.754462,16.097880,0
0.029167,-161.580531,162.702217,16.130283,0.561974,4.915477,-4.925456,-0.403364,-4.699937,4.828609,0.346775,0.029975,0.452004,0.007577,-136.939792,188.571085,1542.065832,16.648274,0
0.030208,-181.592699,100.629838,73.437567,1.620348,5.454890,-3.194260,-2.440812,-5.274254,3.139815,2.448704,0.055498,0.454554,0.011294,-149.830574,188.495667,1542.128868,17.859000,0
0.031250,-189.728645,27.070840,131.340282,2.768796,5.583321,-1.396479,-4.234695,-5.385412,1.305511,4.162233,0.091960,0.442221,-0.011006,-147.882884,188.571022,1542.763509,18.588320,0
0.032292,-149.274912,-37.890811,169.812475,3.523169,4.676961,0.663478,-5.139369,-4.492443,-0.824221,5.060883,0.121129,0.453382,0.011294,-108.850272,188.721809,1542.987996,19.338455,0
0.033333,-75.294301,-87.572204,199.438251,4.074875,3.117435,3.077165,-5.788878,-2.939936,-3.209697,5.517824,0.132068,0.470125,-0.029590,-47.008295,188.571105,1543.198766,19.545719,0
0.034375,-14.658902,-145.040538,174.029105,3.568207,1.271691,4.413016,-5.042716,-0.994671,-4.475190,4.794334,0.110191,0.458550,-0.025873,3.406483,188.495763,1543.591359,20.352857,0
0.035417,48.134783,-186.829284,125.847727,2.689981,-0.981366,5.524144,-3.840350,1.191437,-5.577536,3.511092,0.081021,0.469643,-0.037023,50.083496,188.571103,1543.815458,20.491640,0
0.036458,104.069414,-188.896406,51.017733,1.260050,-2.970220,5.519982,-1.799035,3.155228,-5.476121,1.492935,0.059144,0.461857,-0.014723,97.222102,188.571207,1544.262155,21.384696,0
0.037500,162.490028,-162.775503,-15.306092,-0.057288,-4.570110,4.937368,0.284807,4.696619,-4.854397,-0.574723,0.004452,0.463028,-0.037023,136.637496,188.571118,1544.092609,22.255738,0
0.038542,181.632101,-101.854136,-73.524751,-1.126922,-5.109523,3.218657,2.403444,5.319104,-3.108282,-2.710922,-0.050241,0.466267,-0.033307,150.338877,188.495703,1544.911963,22.367430,0
0.039583,189.609848,-28.259903,-131.318101,-2.252852,-5.274649,1.370938,4.104540,5.430262,-1.309253,-4.340678,-0.061180,0.461513,-0.011006,148.413704,188.570971,1545.538997,22.822006,0
0.040625,149.935811,37.594369,-169.401440,-2.995965,-4.419662,-0.651566,5.094268,4.566935,0.816070,-5.269792,-0.112226,0.476188,-0.014723,107.287044,188.721837,1545.982277,23.269006,0
0.041667,75.785701,87.886502,-199.039368,-3.570190,-2.871144,-3.073576,5.743777,3.040365,3.175090,-5.783850,-0.101287,0.481631,-0.007290,45.996725,188.571053,1545.711841,23.851699,0
0.042708,14.901703,144.732351,-173.666677,-3.074780,-0.922654,-4.409427,4.962820,1.069163,4.515543,-5.029898,-0.086703,0.462408,-0.007290,-3.269704,188.495678,1545.945496,24.033519,0
0.043750,-48.298779,186.826467,-124.987080,-2.162777,1.257013,-5.516393,3.783651,-1.079892,5.534110,-3.773310,-0.053887,0.469436,0.003860,-50.577184,188.571071,1545.766479,24.550997,0
0.044792,-103.939612,188.975804,-49.270014,-0.732846,3.267884,-5.503909,1.738470,-3.062210,5.419466,-1.709459,-0.028364,0.455105,0.026161,-96.027040,188.646400,1545.322477,25.201938,0
0.045833,-162.292426,162.338121,16.592047,0.561974,4.823740,-4.912972,-0.329907,-4.644358,4.819790,0.312505,0.019036,0.454209,-0.033307,-137.153700,188.571064,1544.764514,26.217101,0
0.046875,-181.445799,100.453663,74.227425,1.620348,5.396178,-3.231714,-2.394419,-5.226085,3.073674,2.441088,0.062790,0.451040,-0.007290,-149.605407,188.495700,1543.778923,26.013506,0
0.047917,-189.559146,26.319159,131.656226,2.735018,5.590660,-1.371510,-4.176703,-5.344654,1.239371,4.063229,0.091960,0.431610,-0.022156,-147.533876,188.646505,1542.275452,26.245229,0
0.048958,-149.161913,-39.171017,169.314257,3.534429,4.687970,0.621862,-5.135503,-4.455390,-0.810993,4.996150,0.110191,0.461926,-0.018440,-106.846290,188.649075,1541.082201,26.792161,0
0.050000,-73.927010,-88.406099,199.620526,4.108653,3.121105,3.039711,-5.781146,-2.936231,-3.192060,5.525440,0.091960,0.453451,-0.003573,-44.036097,188.575684,1541.003353,27.565292,0
0.051042,-12.941313,-144.934833,173.846830,3.579466,1.297377,4.375562,-5.011787,-1.016902,-4.453144,4.779103,0.110191,0.420104,-0.014723,4.791257,188.495986,1540.466671,28.473470,0
0.052083,49.366475,-187.158144,124.596105,2.656203,-0.915315,5.495013,-3.821020,1.135858,-5.537852,3.511092,0.077375,0.422033,-0.018440,50.871579,188.646418,1539.757050,29.952811,0
0.053125,104.216313,-189.143051,49.049162,1.203754,-2.951873,5.457559,-1.818366,3.136702,-5.489349,1.504359,0.073729,0.462339,-0.029590,97.233360,188.646424,1539.723901,30.948447,0
0.054167,162.399628,-162.364428,-17.165297,-0.034769,-4.507729,4.962337,0.230681,4.741082,-4.885263,-0.525221,-0.021072,0.457861,-0.025873,137.549420,188.571085,1540.345764,32.173982,0
0.055208,181.507802,-100.292049,-74.387519,-1.149440,-5.113192,3.256110,2.318389,5.326514,-3.161194,-2.669036,-0.028364,0.460824,-0.007290,149.877286,188.495864,1540.344009,33.815271,0
0.056250,189.587249,-26.263251,-131.609741,-2.207814,-5.256302,1.404230,4.123870,5.456199,-1.353347,-4.272137,-0.079410,0.463511,-0.018440,148.762712,188.721889,1540.054277,35.680499,0
0.057292,148.805818,39.074240,-169.814597,-2.962187,-4.430670,-0.655727,5.136796,4.592872,0.767567,-5.345948,-0.093995,0.458825,-0.003573,107.591019,188.646399,1540.925915,36.902863,0
0.058333,74.418410,88.368048,-199.148733,-3.547671,-2.830780,-3.106868,5.720581,2.958849,3.205956,-5.810505,-0.093995,0.457516,-0.022156,46.660966,188.570908,1540.852624,36.330482,0
0.059380,13.726511,146.106517,-172.694543,-3.063521,-0.885959,-4.480173,4.958954,1.054342,4.537590,-5.041321,-0.068472,0.463993,-0.011006,-1.682280,188.503364,1541.185470,36.902500,0
0.060417,-48.886375,186.685527,-125.132900,-2.174036,1.293707,-5.558009,3.795250,-1.102123,5.569385,-3.765694,-0.064826,0.462133,-0.025873,-51.162617,188.722261,1541.625315,36.654300,0
0.061458,-104.708007,188.635199,-49.379379,-0.721587,3.297240,-5.533040,1.726872,-3.121494,5.445923,-1.701844,-0.017425,0.456345,-0.007290,-96.961481,188.571543,1542.369061,36.297010,0
0.062500,-162.597524,162.573021,16.628502,0.550714,4.889791,-4.858872,-0.376301,-4.677706,4.855065,0.342967,0.029975,0.460135,0.003860,-137.243767,188.571554,1543.228085,36.008103,0
0.063542,-181.875197,100.559368,74.373246,1.654126,5.462229,-3.260845,-2.483340,-5.240906,3.078084,2.486782,0.066437,0.456690,-0.018440,-150.224615,188.496074,1543.848297,35.594098,0
0.064583,-189.480046,27.387955,132.421781,2.746278,5.546626,-1.346541,-4.211498,-5.429875,1.283465,4.131770,0.102898,0.462064,-0.014723,-147.398776,188.722277,1545.752011,35.651622,0
0.065625,-148.596917,-38.172691,170.808912,3.500651,4.669622,0.730062,-5.205093,-4.492443,-0.850677,5.053268,0.132068,0.469643,-0.011006,-107.499273,188.571533,1547.074001,35.170791,0
0.066667,-74.977903,-88.453079,199.474706,4.007319,3.113766,3.156234,-5.800476,-2.906588,-3.240563,5.540671,0.113837,0.467782,-0.014723,-45.533455,188.571558,1547.550347,34.125190,0
0.067708,-13.958306,-146.050609,173.263550,3.624503,1.172615,4.421339,-5.023385,-0.950208,-4.563378,4.790526,0.106545,0.476257,-0.007290,4.960131,188.496083,1548.848162,32.673050,0
0.068755,49.886272,-186.864519,124.425981,2.656203,-1.051086,5.536628,-3.805555,1.284068,-5.542261,3.457782,0.091960,0.468265,-0.022156,51.772245,188.722242,1548.864809,30.755406,0
0.069794,105.493204,-188.743720,48.550943,1.215013,-3.014254,5.470044,-1.737177,3.233039,-5.467302,1.435818,0.022683,0.458205,-0.007290,98.426742,188.646761,1549.108968,29.637340,0
0.070833,162.399628,-162.622818,-17.894398,-0.057288,-4.573780,4.920722,0.389192,4.774430,-4.872035,-0.650879,0.000805,0.455794,-0.025873,136.288488,188.571565,1549.504733,28.109546,0
0.071875,181.858100,-98.671238,-74.569794,-1.138181,-5.102184,3.143749,2.503963,5.345041,-3.011275,-2.802310,-0.064826,0.449248,-0.014723,151.025635,188.496047,1549.236188,25.797209,0
0.072917,189.248251,-25.605530,-131.986443,-2.264111,-5.237954,1.312676,4.208925,5.430262,-1.203428,-4.386372,-0.083057,0.444701,-0.029590,147.636879,188.722309,1549.528040,23.462126,0
0.073959,147.641926,39.638001,-170.568001,-3.018484,-4.313247,-0.801381,5.159992,4.515061,0.899848,-5.330717,-0.101287,0.417348,-0.074190,105.316837,188.584587,1548.905047,21.952052,0
0.075000,73.005919,88.873083,-199.403918,-3.570190,-2.772068,-3.177614,5.712848,2.958849,3.236821,-5.799082,-0.104934,0.448904,-0.044457,44.150359,188.522822,1548.892028,22.195752,0
0.076042,12.257520,145.977322,-172.791757,-3.029743,-0.819909,-4.521788,4.935757,1.002468,4.594912,-5.052745,-0.064826,0.444150,-0.011006,-4.823353,188.515602,1549.404312,21.741801,0
0.077083,-50.129367,186.932172,-123.650396,-2.128999,1.381775,-5.553847,3.737258,-1.153997,5.604660,-3.750463,-0.057533,0.445872,-0.022156,-51.759308,188.735464,1549.706052,21.785172,0
0.078125,-105.137404,188.787884,-47.580932,-0.676550,3.344943,-5.508070,1.715274,-3.162252,5.534110,-1.705652,-0.017425,0.455863,0.000144,-97.355523,188.589840,1550.974619,22.362659,0
0.079167,-162.202027,162.161946,18.730741,0.584492,4.948502,-4.917133,-0.426560,-4.733285,4.872703,0.396277,0.011744,0.451935,0.003860,-136.804692,188.575901,1551.578961,22.284476,0
0.080208,-181.909096,98.233856,75.029436,1.699163,5.480576,-3.194260,-2.525867,-5.318717,3.073674,2.566747,0.084667,0.453865,-0.018440,-150.539848,188.495698,1552.504605,22.193093,0
0.081250,-189.095849,25.320833,132.713421,2.802574,5.620016,-1.334056,-4.254026,-5.411349,1.234961,4.185080,0.110191,0.440705,-0.003573,-146.824601,188.721953,1552.449923,21.979458,0
0.082292,-147.229626,-39.558602,170.979036,3.579466,4.724665,0.746708,-5.243754,-4.477621,-0.938865,5.148464,0.135714,0.455932,-0.018440,-105.720458,188.722052,1553.323680,21.281816,0
0.083333,-72.876117,-88.993350,199.814952,4.119912,3.117435,3.139588,-5.873933,-2.943641,-3.267019,5.586365,0.139360,0.465440,0.003860,-44.385105,188.571118,1554.062919,22.197633,0
0.084383,-11.992119,-147.530480,172.157748,3.534429,1.132251,4.525377,-5.038849,-0.950208,-4.682431,4.813374,0.121129,0.465715,-0.011006,5.106490,188.571087,1555.421930,22.689868,0
0.085427,50.903265,-187.028949,123.879156,2.644944,-1.091450,5.636505,-3.840350,1.284068,-5.674543,3.453974,0.084667,0.471227,-0.007290,52.706686,188.721806,1556.908949,22.852954,0
0.086461,106.193800,-188.661505,48.648157,1.192494,-3.109660,5.565759,-1.737177,3.299733,-5.555489,1.473896,0.044560,0.470470,-0.007290,99.327408,188.646542,1558.663152,23.045671,0
0.087504,163.021124,-162.611073,-18.489830,-0.046029,-4.661847,4.995630,0.396924,4.833714,-4.951404,-0.658495,0.011744,0.462270,-0.040740,137.358029,188.571071,1560.236214,23.467574,0
0.088545,182.558695,-98.647748,-75.323198,-1.171959,-5.281988,3.206172,2.515562,5.500662,-3.108282,-2.905122,-0.050241,0.463442,-0.014723,151.453451,188.571131,1563.537272,23.429086,0
0.089588,189.338650,-26.415936,-133.274520,-2.275370,-5.388403,1.325161,4.293980,5.519188,-1.256340,-4.477761,-0.083057,0.455449,0.022444,147.850788,188.721936,1565.882179,23.621173,0
0.090628,146.896131,38.933300,-172.475813,-3.052262,-4.474704,-0.809704,5.322370,4.596577,1.005673,-5.498262,-0.057533,0.480253,-0.011006,105.035379,188.646538,1569.079869,22.480600,0
0.091676,72.666921,89.941879,-199.488979,-3.558930,-2.838119,-3.310783,5.848163,2.992196,3.360284,-5.913317,-0.083057,0.481356,-0.007290,44.195393,188.571125,1571.558882,22.130252,0
0.092723,11.681224,148.937065,-171.321404,-3.052262,-0.783214,-4.663280,5.067205,0.909836,4.806562,-5.144133,-0.093995,0.472812,0.015011,-4.553153,188.646431,1574.835441,21.209154,0
0.093757,-50.762163,186.709017,-123.735458,-2.128999,1.392783,-5.720308,3.775919,-1.257745,5.710486,-3.742847,-0.064826,0.482320,-0.025873,-53.166599,188.721878,1576.319608,19.930884,0
0.094802,-107.001891,188.811374,-45.709574,-0.642772,3.532086,-5.616270,1.579959,-3.366041,5.600251,-1.545722,-0.013779,0.450282,-0.011006,-99.179371,188.571219,1578.165586,17.657449,0
0.095837,-162.269826,162.326376,20.079576,0.618270,5.102620,-4.979556,-0.538678,-4.862969,4.824200,0.514320,-0.006487,0.451867,0.007577,-136.692109,188.571053,1579.228450,15.723313,0
0.096878,-183.276387,95.591229,75.321076,1.687904,5.623685,-3.098545,-2.765567,-5.433580,2.972258,2.779986,0.081021,0.446079,0.007577,-152.127272,188.646444,1580.988864,13.345187,0
0.097918,-189.028049,24.698348,133.175185,2.802574,5.686066,-1.230018,-4.435734,-5.448401,1.151183,4.261236,0.048206,0.447526,-0.014723,-146.306718,188.721864,1581.937064,12.260073,0
0.098958,-145.365138,-39.452897,173.044820,3.613244,4.665953,0.904846,-5.375202,-4.436864,-1.057918,5.262699,0.139360,0.468954,-0.011006,-104.459526,188.571116,1583.274292,10.731821,0
0.100000,-71.497526,-89.146035,199.972924,4.086135,3.066063,3.293564,-5.866201,-2.880652,-3.434576,5.613020,0.128422,0.430576,-0.018440,-43.034106,188.571210,1584.156111,8.944867,0
0.101042,-11.133325,-147.882830,172.218506,3.601985,1.077209,4.616930,-5.062046,-0.827934,-4.770619,4.820989,0.091960,0.423411,-0.007290,6.603847,188.646741,1585.031528,7.369995,0
0.102083,50.903265,-186.758814,123.453848,2.678722,-1.194195,5.703090,-3.743697,1.387816,-5.687771,3.423511,0.110191,0.425340,0.000144,52.301386,188.721873,1585.109811,6.028704,0
0.103125,106.498898,-189.248756,46.339339,1.169976,-3.212405,5.611536,-1.590265,3.429418,-5.617221,1.344430,0.048206,0.457310,-0.011006,99.518800,188.571078,1586.331202,4.414451,0
0.104167,161.868532,-162.399663,-20.361187,-0.113585,-4.779270,4.920722,0.485845,4.933756,-4.841169,-0.738460,0.000805,0.457034,-0.025873,136.029547,188.574029,1586.016835,2.727812,0
0.105208,183.598288,-95.770221,-74.849283,-1.160699,-5.315013,3.089649,2.708868,5.534009,-3.024503,-3.026973,-0.057533,0.447044,-0.011006,153.175975,188.646433,1586.205673,1.385256,0
0.106250,188.728454,-24.442774,-133.007184,-2.286629,-5.359047,1.212799,4.367436,5.530304,-1.150515,-4.546302,-0.057533,0.432781,-0.011006,146.657405,188.721936,1586.278463,0.386522,0
0.107292,145.009043,39.638001,-173.411492,-3.097299,-4.404984,-0.947034,5.345566,4.578050,1.080633,-5.540148,-0.057533,0.469712,0.000144,103.650605,188.571170,1586.587897,-0.022452,0
0.108333,71.480429,89.436844,-199.525434,-3.570190,-2.797755,-3.344075,5.852029,2.951438,3.417606,-5.886662,-0.093995,0.482803,0.022444,44.071551,188.571071,1586.122938,-0.805574,0
0.109375,11.556925,148.185384,-171.819623,-3.029743,-0.750189,-4.704895,5.051741,0.932068,4.815381,-5.174596,-0.119518,0.457861,-0.018440,-4.676994,188.646542,1586.471081,-0.639701,0
0.110417,-50.637864,186.662037,-123.674700,-2.162777,1.462503,-5.774408,3.741124,-1.328145,5.767808,-3.712384,-0.075764,0.473846,-0.029590,-52.344741,188.721819,1587.088712,-1.839709,0
0.111458,-106.662894,189.034529,-45.721726,-0.620253,3.612814,-5.616270,1.537432,-3.403094,5.578204,-1.503836,-0.021072,0.450351,-0.003573,-99.010497,188.571020,1586.964913,-2.799473,0
