1-Time,2-VGERA,3-VGERB,4-VGERC,5-VN,6-IGERAN,7-IGERBN,8-IGERCN,9-IGERAT,10-IGERBT,11-IGERCT,12-IN,13-IFD,14-IFAULT,15-VFAULT,16-Speed (rad/s),17-FAULT 
0.000000,148.214906,-178.130037,2.769508,3.007218,-2.540984,6.546670,-3.255424,2.554776,-6.470068,3.268207,-0.234377,0.597353,-0.050629,-94.843319,188.571576,0
0.001042,180.302840,-128.356713,-65.874432,1.672638,-4.791860,6.010911,-0.568838,4.683035,-5.966465,0.745694,-0.128440,0.587424,-0.054364,-64.261080,188.496154,0
0.002083,190.964790,-47.015986,-119.967235,0.666048,-6.002505,4.721121,1.748343,6.072469,-4.741030,-1.556233,-0.051727,0.595198,-0.035692,-14.700661,188.722346,0
0.003125,159.852311,22.642506,-168.975758,-0.250062,-6.471142,2.768578,3.998359,6.484153,-2.806355,-3.737193,-0.048074,0.604801,-0.069301,22.294348,188.646991,0
0.004167,110.467064,91.153313,-183.243751,-0.544122,-5.860494,0.121532,5.647624,5.870302,-0.204405,-5.409381,-0.015197,0.607544,-0.017021,60.081057,188.571516,0
0.005208,27.802921,139.923922,-188.918940,-0.657222,-4.362277,-2.338990,6.446138,4.440436,2.267447,-6.170761,-0.004238,0.613815,-0.050629,86.308947,188.496199,0
0.006250,-48.044380,169.401328,-158.216288,-0.103032,-2.264062,-4.339156,6.061807,2.334231,4.353203,-5.939500,-0.000585,0.612248,-0.035692,102.651896,188.722360,0
0.007292,-103.554578,194.590013,-79.428409,1.344648,0.459001,-6.021835,4.927470,-0.356418,5.935356,-4.829452,-0.059033,0.601665,-0.031958,115.884596,188.647027,0
0.008333,-148.856525,178.401602,-2.856439,2.747088,2.656624,-6.371071,3.061785,-2.624356,6.434763,-3.071876,-0.051727,0.597549,-0.039427,96.917726,188.571603,0
0.009375,-180.286594,128.531630,66.230682,4.092978,4.896849,-5.855155,0.408781,-4.730561,5.956340,-0.567152,-0.143052,0.583962,-0.009553,68.043297,188.496107,0
0.010417,-191.549697,46.623101,120.274243,5.144808,6.086192,-4.541554,-1.856160,-6.108967,4.756086,1.702754,-0.194194,0.595002,-0.046895,18.234058,188.722271,0
0.011458,-159.824723,-23.554871,168.790341,6.060918,6.597432,-2.513607,-4.132296,-6.546381,2.775247,3.841020,-0.223418,0.609961,-0.035692,-19.168111,188.646916,0
0.012500,-109.713556,-91.497875,183.464584,6.377598,5.937081,0.002475,-5.747979,-5.943558,0.206871,5.570134,-0.241683,0.567957,-0.043161,-55.473210,188.571589,0
0.013542,-25.699654,-139.785248,188.832008,6.490698,4.463715,2.498714,-6.542761,-4.498989,-2.277572,6.295935,-0.267254,0.593107,-0.069301,-82.153500,188.496100,0
0.014583,49.523809,-169.166007,157.895455,5.891268,2.369051,4.486975,-6.203206,-2.425866,-4.287787,6.121600,-0.300131,0.590756,-0.043161,-97.614269,188.722377,0
0.015625,103.831701,-194.584229,78.602841,4.409658,-0.368214,6.141874,-5.083795,0.305217,-5.941284,4.986647,-0.216112,0.600685,-0.058098,-110.745179,188.496253,0
0.016667,148.543838,-178.117957,2.375568,2.973288,-2.498380,6.518889,-3.240499,2.492288,-6.428101,3.293112,-0.197847,0.597680,-0.050629,-92.287260,188.571511,0
0.017708,180.144045,-127.994286,-66.514584,1.672638,-4.738606,6.014879,-0.609883,4.649953,-5.937088,0.759925,-0.143052,0.589449,-0.065566,-62.813400,188.496250,0
0.018750,190.942105,-46.508588,-120.619697,0.643428,-5.945701,4.725090,1.688641,6.039387,-4.782997,-1.545560,-0.110175,0.588469,-0.058098,-14.723281,188.722333,0
0.019792,159.455324,23.113662,-169.185038,-0.283992,-6.478242,2.705080,4.002090,6.429016,-2.802158,-3.698057,-0.062686,0.601600,-0.043161,22.486618,188.496118,0
0.020833,110.206187,91.624468,-183.231440,-0.566742,-5.835642,0.153281,5.632699,5.899708,-0.204405,-5.391592,-0.033462,0.609177,-0.046895,61.110267,188.571545,0
0.021875,27.292508,140.419239,-188.635796,-0.691152,-4.387129,-2.331052,6.408824,4.400002,2.267447,-6.138740,0.003068,0.612052,-0.043161,87.507807,188.496154,0
0.022917,-48.532108,169.655027,-157.896213,-0.114342,-2.242760,-4.319313,6.084195,2.334231,4.323826,-5.943058,0.014027,0.613685,-0.069301,103.059056,188.722315,0
0.023958,-103.872168,194.964521,-78.702084,1.389888,0.483853,-6.033741,4.923739,-0.400527,5.960536,-4.815221,-0.015197,0.603494,-0.050629,115.647086,188.496217,0
0.025000,-149.174115,177.688828,-2.450189,2.803638,2.685026,-6.303605,3.050591,-2.613329,6.426369,-3.064760,-0.066339,0.595459,-0.039427,97.924316,188.496174,0
0.026042,-181.023856,127.843018,66.649243,4.149528,4.864897,-5.823406,0.419975,-4.759967,5.897586,-0.517342,-0.102869,0.584092,-0.039427,67.262907,188.496282,0
0.027083,-191.050627,45.970732,120.877462,5.167428,6.096843,-4.561397,-1.878549,-6.108967,4.709922,1.745449,-0.154011,0.577299,0.001650,20.235928,188.646982,0
0.028125,-159.870093,-24.291806,169.221213,6.106158,6.572580,-2.521544,-4.150953,-6.520651,2.758460,3.915735,-0.245336,0.576776,-0.050629,-19.360381,188.496085,0
0.029167,-109.123745,-92.391862,183.082955,6.332358,5.908678,0.073909,-5.744248,-5.943558,0.185887,5.545229,-0.245336,0.575078,-0.017021,-56.208360,188.496056,0
0.030208,-25.223269,-140.304727,188.881251,6.456768,4.431763,2.542369,-6.550224,-4.465907,-2.252391,6.349302,-0.245336,0.589906,-0.076769,-82.243980,188.496348,0
0.031250,50.090934,-169.021036,157.403031,5.868648,2.340649,4.479037,-6.177087,-2.418514,-4.291984,6.068232,-0.248989,0.599836,-0.028224,-98.541689,188.646964,0
0.032292,103.945126,-195.321164,77.839584,4.398348,-0.357563,6.153780,-5.042750,0.283162,-6.000038,4.990205,-0.212459,0.600489,-0.054364,-110.292779,188.496096,0
0.033333,148.748003,-177.296455,1.883144,3.007218,-2.487730,6.483172,-3.247961,2.506991,-6.423904,3.261091,-0.208806,0.597680,-0.002084,-94.390919,188.496062,0
0.034375,180.688485,-127.607697,-66.748485,1.695258,-4.774109,5.995036,-0.609883,4.620547,-5.924498,0.752809,-0.139399,0.589384,-0.054364,-63.865230,188.496226,0
0.035417,190.443035,-46.013271,-120.989016,0.688668,-5.974103,4.721121,1.714761,6.013657,-4.728440,-1.524213,-0.113828,0.594153,-0.028224,-14.123851,188.571645,0
0.036458,159.443981,23.572736,-169.345076,-0.250062,-6.471142,2.740798,3.994628,6.447395,-2.785371,-3.705173,-0.066339,0.606107,-0.073035,22.905088,188.496134,0
0.037500,109.843227,92.300999,-182.997538,-0.544122,-5.807240,0.133438,5.614042,5.855599,-0.225389,-5.334667,0.014027,0.612182,-0.046895,60.669177,188.496226,0
0.038542,26.770753,140.793747,-188.561932,-0.713772,-4.390679,-2.335021,6.405093,4.411030,2.217086,-6.131624,-0.015197,0.612835,-0.031958,86.704797,188.496167,0
0.039583,-49.031178,169.425490,-157.502273,-0.091722,-2.299565,-4.291533,6.095389,2.367313,4.260876,-5.928827,-0.018850,0.612248,-0.058098,102.674516,188.420699,0
0.040625,-104.325868,194.819550,-78.123485,1.423818,0.473202,-5.986118,4.916276,-0.360094,5.977323,-4.797432,-0.026156,0.605258,-0.043161,115.941146,188.496109,0
0.041667,-149.366937,177.604262,-1.846970,2.781018,2.631772,-6.303605,3.080442,-2.532462,6.422173,-3.082550,-0.055380,0.595655,-0.043161,96.487946,188.496118,0
0.042708,-180.672239,127.504753,67.166288,4.092978,4.861346,-5.859123,0.483408,-4.719534,5.956340,-0.552920,-0.121134,0.587032,-0.028224,67.455177,188.496129,0
0.043750,-191.039284,45.632467,121.148296,5.144808,6.096843,-4.545522,-1.815115,-6.079561,4.793856,1.734775,-0.179582,0.587424,-0.046895,17.657248,188.496000,0
0.044792,-159.461763,-24.678395,169.245834,6.083538,6.593882,-2.616790,-4.102445,-6.447136,2.875967,3.851694,-0.208806,0.570440,-0.046895,-19.869331,188.496063,0
0.045833,-108.874210,-92.766370,183.132198,6.343668,5.901578,-0.029274,-5.721860,-5.987667,0.198477,5.516766,-0.274560,0.596570,-0.013287,-56.106570,188.496183,0
0.046875,-24.917022,-140.510102,188.585796,6.456768,4.495668,2.470934,-6.550224,-4.487961,-2.197834,6.313724,-0.270907,0.609831,-0.069301,-82.492800,188.496170,0
0.047917,50.544634,-169.226411,157.218372,5.879958,2.408104,4.451257,-6.206938,-2.473650,-4.258411,6.082464,-0.270907,0.614730,-0.028224,-97.648199,188.420878,0
0.048958,104.705074,-194.994979,77.408712,4.375728,-0.329160,6.149811,-5.068870,0.224350,-5.953875,4.993763,-0.208806,0.601861,-0.035692,-110.903519,188.496121,0
0.050000,149.190361,-177.248131,1.526136,2.995908,-2.459327,6.499047,-3.274081,2.455531,-6.453281,3.264649,-0.164970,0.598529,-0.054364,-91.767000,188.496170,0
0.051042,180.472977,-127.124461,-67.364015,1.661328,-4.763458,6.018848,-0.617346,4.631575,-5.962268,0.767041,-0.139399,0.591736,-0.009553,-62.304450,188.496177,0
0.052083,190.522433,-45.723330,-121.321402,0.677358,-5.967002,4.764775,1.677447,6.017332,-4.762014,-1.506423,-0.117481,0.598399,-0.017021,-14.282191,188.269998,0
0.053125,159.205789,24.140538,-169.529735,-0.238752,-6.464041,2.720955,4.002090,6.425341,-2.839928,-3.726520,-0.055380,0.605715,-0.024490,23.153908,188.496127,0
0.054167,109.525637,92.784235,-183.009849,-0.532812,-5.842743,0.133438,5.621505,5.907060,-0.267356,-5.380919,0.003068,0.610680,-0.061832,61.709697,188.496105,0
0.055208,26.317053,141.192417,-188.426516,-0.657222,-4.369377,-2.346927,6.431212,4.425733,2.238070,-6.152971,-0.015197,0.613685,-0.031958,87.971517,188.496145,0
0.056250,-49.473535,169.763755,-157.280682,-0.080412,-2.242760,-4.307407,6.065538,2.374664,4.286056,-5.914596,-0.018850,0.611856,-0.084238,103.070366,188.269875,0
0.057292,-104.790910,195.423595,-77.274053,1.367268,0.476753,-5.998024,4.931201,-0.338040,5.952143,-4.797432,-0.026156,0.602971,-0.020755,115.907216,188.496149,0
0.058333,-149.843322,176.976055,-1.514583,2.803638,2.663724,-6.339322,3.046860,-2.576571,6.422173,-3.064760,-0.037115,0.598007,-0.024490,97.505846,188.496074,0
0.059375,-181.341446,126.840303,67.597159,4.126908,4.854246,-5.803563,0.401318,-4.748940,5.964733,-0.517342,-0.077298,0.586510,-0.005818,66.584307,188.496217,0
0.060417,-190.540214,44.883451,121.714584,5.156118,6.079092,-4.541554,-1.867355,-6.079561,4.726709,1.759680,-0.183235,0.588012,-0.013287,19.647808,188.270049,0
0.061458,-159.563845,-25.620705,169.615152,6.072228,6.600983,-2.577105,-4.124833,-6.502272,2.779443,3.905062,-0.219765,0.577560,-0.035692,-20.152081,188.496172,0
0.062500,-108.170975,-93.587871,182.849054,6.343668,5.851874,0.034224,-5.789024,-5.906801,0.206871,5.534555,-0.248989,0.584092,-0.031958,-56.819100,188.420788,0
0.063542,-24.349897,-140.945015,188.782766,6.513318,4.492117,2.506651,-6.587538,-4.454880,-2.290162,6.338629,-0.274560,0.604474,-0.061832,-82.651140,188.496054,0
0.064583,50.986992,-169.153926,156.849054,5.868648,2.319347,4.486975,-6.203206,-2.429541,-4.317164,6.075348,-0.256295,0.609896,-0.043161,-98.598239,188.270121,0
0.065625,104.727759,-195.780238,76.386932,4.387038,-0.329160,6.169654,-5.106184,0.286838,-6.000038,4.997320,-0.252642,0.602383,-0.035692,-110.462429,188.496196,0
0.066667,149.530636,-176.185012,0.972159,2.973288,-2.512582,6.522858,-3.277812,2.495964,-6.419707,3.268207,-0.194194,0.599379,-0.065566,-93.836729,188.420788,0
0.067708,181.028760,-126.544577,-67.671781,1.661328,-4.742156,6.014879,-0.606152,4.657305,-5.941284,0.742136,-0.183235,0.590690,-0.035692,-63.130080,188.496065,0
0.068750,189.853225,-45.191770,-121.776894,0.643428,-5.967002,4.701278,1.718492,6.024684,-4.766210,-1.517097,-0.099216,0.599313,-0.009553,-13.637521,188.269997,0
0.069792,159.319214,24.792907,-169.751326,-0.306612,-6.471142,2.748735,3.961045,6.458423,-2.806355,-3.669594,-0.037115,0.606434,-0.046895,23.640238,188.420736,0
0.070833,108.981197,93.460766,-182.603599,-0.544122,-5.814340,0.145344,5.617773,5.859275,-0.246372,-5.348898,-0.015197,0.611202,-0.050629,61.200747,188.420746,0
0.071875,25.886038,141.385712,-188.426516,-0.668532,-4.372927,-2.346927,6.401361,4.436760,2.229676,-6.163645,0.006721,0.613815,-0.050629,87.021477,188.496121,0
0.072917,-49.983948,169.497975,-156.972917,-0.069102,-2.253411,-4.319313,6.050612,2.356285,4.294449,-5.879017,-0.015197,0.609177,-0.073035,102.787616,188.270000,0
0.073958,-105.029103,195.592728,-76.720076,1.435128,0.455451,-6.025804,4.923739,-0.360094,5.943750,-4.836568,-0.015197,0.605323,-0.017021,116.178656,188.345420,0
0.075000,-150.013460,176.625709,-1.145265,2.826258,2.645973,-6.299636,3.061785,-2.594950,6.409582,-3.061202,-0.069992,0.596243,-0.035692,95.990306,188.420705,0
0.076042,-181.443529,126.477876,67.904924,4.126908,4.864897,-5.839281,0.461020,-4.748940,5.905979,-0.506668,-0.132093,0.586640,-0.031958,66.776577,188.496243,0
0.077083,-190.483502,44.388133,121.997728,5.167428,6.068441,-4.537585,-1.822578,-6.075885,4.764479,1.716986,-0.146705,0.574816,-0.035692,17.001268,188.270072,0
0.078125,-159.257598,-26.248912,169.676705,6.060918,6.569030,-2.585042,-4.121102,-6.458163,2.779443,3.901504,-0.212459,0.552671,-0.076769,-20.774131,188.420741,0
0.079167,-107.966810,-93.877813,182.935228,6.354978,5.901578,0.010412,-5.725591,-5.954586,0.190084,5.520324,-0.238030,0.604213,-0.046895,-56.638140,188.420728,0
0.080208,-23.714717,-141.234957,188.524243,6.490698,4.431763,2.482840,-6.576343,-4.447528,-2.252391,6.342187,-0.270907,0.604931,-0.024490,-82.866030,188.496112,0
0.081250,51.372637,-169.335139,156.528978,5.868648,2.383252,4.451257,-6.169624,-2.403811,-4.287787,6.100253,-0.259948,0.594022,-0.020755,-97.783919,188.269904,0
0.082292,105.079376,-195.901047,75.882197,4.375728,-0.361113,6.145843,-5.080064,0.268459,-6.000038,4.958184,-0.245336,0.603233,-0.054364,-111.254129,188.345339,0
0.083333,149.893596,-176.088365,0.713636,2.939358,-2.530333,6.546670,-3.229305,2.503315,-6.440691,3.246860,-0.179582,0.600946,-0.017021,-91.099710,188.420736,0
0.084375,181.357692,-126.025098,-68.114962,1.638708,-4.784760,6.022817,-0.594957,4.683035,-5.953875,0.710115,-0.124787,0.592062,-0.043161,-61.614540,188.496192,0
0.085417,189.841883,-44.793100,-122.109281,0.586878,-5.956351,4.729058,1.752074,6.024684,-4.762014,-1.531328,-0.117481,0.598529,-0.028224,-13.897651,188.269966,0
0.086458,159.228474,25.409033,-170.046781,-0.295302,-6.503094,2.713018,4.043135,6.447395,-2.781175,-3.737193,-0.048074,0.606042,-0.061832,24.013468,188.345399,0
0.087500,108.459442,93.919840,-182.739016,-0.578052,-5.785938,0.046129,5.670013,5.892357,-0.212799,-5.416497,-0.022503,0.608720,-0.031958,62.241267,188.420698,0
0.088542,25.092063,141.917272,-188.414205,-0.657222,-4.323224,-2.414393,6.475989,4.403678,2.330397,-6.177876,0.006721,0.612378,-0.035692,88.446537,188.420743,0
0.089583,-50.437648,170.041616,-156.357387,-0.057792,-2.217909,-4.366936,6.043150,2.319528,4.340613,-5.907480,-0.015197,0.616232,-0.050629,103.172156,188.269919,0
0.090625,-105.255953,196.607524,-75.378220,1.435128,0.551309,-6.037710,4.871500,-0.418906,6.040274,-4.800990,-0.015197,0.602449,-0.028224,116.597126,188.270038,0
0.091667,-150.489845,175.731722,-0.554356,2.837568,2.724079,-6.319479,2.990889,-2.650086,6.409582,-3.004277,-0.080951,0.594544,-0.050629,96.940346,188.420755,0
0.092708,-182.226161,125.777184,68.077273,4.126908,4.932352,-5.759909,0.334154,-4.822455,5.889193,-0.456859,-0.110175,0.586640,-0.039427,65.883087,188.496214,0
0.093750,-189.814294,43.578713,122.477841,5.156118,6.100393,-4.497899,-1.975564,-6.090588,4.672152,1.809490,-0.164970,0.569982,-0.046895,19.014448,188.270945,0
0.094792,-159.563845,-27.154980,170.058334,6.072228,6.554829,-2.458047,-4.221849,-6.516975,2.737476,3.979776,-0.245336,0.587685,-0.073035,-21.181291,188.269528,0
0.095834,-106.934643,-94.723476,182.602841,6.366288,5.858974,0.129470,-5.826338,-5.899449,0.076773,5.552345,-0.223418,0.606107,-0.009553,-57.271500,188.420262,0
0.096875,-22.898057,-141.802759,188.782766,6.547248,4.417562,2.574117,-6.568881,-4.418122,-2.369899,6.349302,-0.238030,0.597745,-0.050629,-83.227950,188.420305,0
0.097916,51.758282,-169.455948,155.827273,5.913888,2.273193,4.542535,-6.154699,-2.326620,-4.354935,6.050443,-0.267254,0.589645,-0.024490,-98.756579,188.269472,0
0.098958,105.056691,-197.012490,74.380303,4.353108,-0.425018,6.217277,-5.061407,0.345650,-6.012628,4.961742,-0.212459,0.602906,-0.024490,-111.073169,188.269449,0
0.100000,150.506091,-174.807789,-0.074242,2.973288,-2.608439,6.526827,-3.162140,2.602561,-6.461674,3.214839,-0.205153,0.599313,-0.031958,-93.135510,188.420314,0
0.101041,182.242407,-125.517700,-68.311932,1.627398,-4.852215,5.991068,-0.535256,4.745523,-5.932891,0.681652,-0.150358,0.590037,-0.028224,-62.406240,188.495586,0
0.102083,189.138648,-44.152812,-122.503220,0.586878,-5.988304,4.645718,1.800582,6.046738,-4.715850,-1.581138,-0.095563,0.596570,-0.035692,-13.105951,188.269539,0
0.103125,159.387269,26.194292,-170.243751,-0.272682,-6.467592,2.645552,4.054329,6.487829,-2.760191,-3.829697,-0.044421,0.604539,0.012853,24.578968,188.194125,0
0.104166,107.858289,94.499723,-182.382008,-0.498882,-5.764636,0.065972,5.670013,5.837221,-0.099488,-5.448518,-0.015197,0.611856,-0.028224,61.596597,188.420197,0
0.105208,24.434198,142.183051,-188.648107,-0.679842,-4.326774,-2.422330,6.472257,4.374272,2.338790,-6.209897,-0.018850,0.612574,-0.039427,87.439947,188.420305,0
0.106250,-50.800608,169.787917,-155.938826,-0.046482,-2.139802,-4.414559,6.050612,2.275419,4.361596,-5.879017,-0.000585,0.610941,-0.039427,103.149536,188.269519,0
0.107291,-105.233268,197.114922,-74.491856,1.480368,0.576160,-6.105176,4.882694,-0.451988,6.069650,-4.783200,-0.029809,0.605323,-0.046895,116.789396,188.269552,0
0.108333,-150.886832,175.127677,0.036553,2.837568,2.756031,-6.331385,2.994620,-2.668465,6.451549,-2.965141,-0.051727,0.594544,-0.017021,95.289086,188.420330,0
0.109375,-182.600464,125.124815,68.557387,4.115598,4.989156,-5.815469,0.341616,-4.866564,5.918569,-0.410607,-0.069992,0.585399,-0.054364,65.860467,188.495622,0
0.110416,-189.700869,42.974668,122.748675,5.178738,6.100393,-4.462182,-1.953176,-6.083237,4.697332,1.827279,-0.146705,0.588927,-0.013287,16.322668,188.269433,0
0.111458,-159.439078,-27.976482,170.230682,6.060918,6.629385,-2.501702,-4.247969,-6.528003,2.649346,3.994008,-0.238030,0.591017,-0.039427,-21.837271,188.269481,0
0.112500,-106.537655,-95.037580,182.676705,6.343668,5.866075,0.133438,-5.818875,-5.892098,0.131330,5.616386,-0.263601,0.590168,-0.043161,-57.181020,188.420160,0
0.113541,-22.296904,-142.068539,188.893561,6.502008,4.431763,2.625709,-6.609926,-4.388716,-2.390882,6.377765,-0.267254,0.592454,-0.017021,-83.250570,188.495712,0
0.114583,51.905734,-169.697566,155.519508,5.891268,2.209288,4.578252,-6.173355,-2.322945,-4.354935,6.054001,-0.259948,0.588731,-0.039427,-98.066669,188.269411,0
0.115625,105.204144,-197.676940,73.617046,4.296558,-0.467621,6.249026,-5.027825,0.408138,-6.075579,4.965300,-0.212459,0.602710,-0.035692,-111.977969,188.269509,0
0.116666,150.823681,-174.493685,-0.271212,2.939358,-2.640392,6.530795,-3.087513,2.631967,-6.453281,3.175703,-0.216112,0.600554,-0.058098,-90.251460,188.420367,0
0.117708,182.775505,-124.756604,-68.730493,1.661328,-4.909019,6.006942,-0.430777,4.811686,-5.945481,0.599822,-0.106522,0.590102,-0.054364,-60.675810,188.495734,0
0.118750,188.945825,-43.391715,-122.921781,0.609498,-6.013156,4.625875,1.860284,6.098199,-4.648703,-1.677200,-0.055380,0.594740,-0.039427,-13.343461,188.269518,0
0.119791,159.478009,27.269492,-170.489963,-0.283992,-6.556349,2.593960,4.166271,6.484153,-2.676257,-3.868834,-0.040768,0.605519,-0.050629,25.246258,188.269351,0
0.120833,106.962231,95.115849,-182.529735,-0.544122,-5.785938,-0.041180,5.740909,5.829869,-0.032341,-5.473423,0.028639,0.610614,-0.046895,62.750217,188.420350,0
0.121875,23.594853,142.642126,-188.857387,-0.725082,-4.294821,-2.553293,6.498377,4.308109,2.460495,-6.231244,0.010374,0.614077,-0.020755,89.000726,188.495633,0
0.122916,-51.050143,170.500690,-155.101705,-0.046482,-2.086548,-4.474088,6.005836,2.179849,4.453924,-5.879017,-0.004238,0.611725,-0.035692,103.375736,188.269539,0
0.123958,-105.244610,198.250527,-73.125379,1.502988,0.672018,-6.097238,4.837917,-0.595342,6.120011,-4.719159,-0.048074,0.602057,-0.065566,117.581096,188.269593,0
0.125000,-151.567382,174.028314,0.528977,2.871498,2.866090,-6.386945,2.897605,-2.771386,6.476730,-2.911773,-0.077298,0.594349,-0.054364,96.148646,188.420349,0
0.126041,-183.496521,124.569093,68.742046,4.126908,5.116966,-5.823406,0.192362,-4.958457,5.914373,-0.325218,-0.132093,0.587293,-0.069301,64.989597,188.495709,0
0.127083,-188.918236,42.020276,123.117993,5.167428,6.196251,-4.366936,-2.102431,-6.171455,4.617595,1.966035,-0.172276,0.587555,-0.020755,18.301918,188.269487,0
