1-Time,2-VGERA,3-VGERB,4-VGERC,5-VN,6-IGERAN,7-IGERBN,8-IGERCN,9-IGERAT,10-IGERBT,11-IGERCT,12-IN,13-IFD,14-IFAULT,15-VFAULT,16-Speed (rad/s),17-Active Power,18-Reactive Power,19-FAULT 
0.000000,174.189232,-133.503178,7.804545,3.075078,-6.038008,0.542202,5.420011,6.509883,-0.582108,-5.270625,0.003068,0.186133,-0.031958,-59.544810,188.490396,1019.173983,-1320.095906,0
0.001042,195.921463,-79.984773,-52.492803,1.932768,-4.280620,-2.057220,6.061807,4.822714,1.914924,-5.861228,-0.007891,0.195605,-0.024490,-107.250389,188.495179,1019.269515,-1320.281685,0
0.002083,171.070044,-33.871963,-138.125379,0.326748,-2.604889,-4.112947,6.270763,3.069381,4.105598,-6.081814,-0.000585,0.203836,-0.039427,-161.153848,188.646523,1019.256014,-1320.971354,0
0.003125,120.879480,12.808650,-190.445455,-0.623292,-0.286557,-5.025721,4.789409,0.871282,5.066641,-4.744064,-0.018850,0.221800,0.005384,-183.219658,188.496116,1019.092002,-1321.400092,0
0.004167,67.887317,80.932868,-200.527842,-0.815562,2.361950,-6.144861,3.192383,-1.859800,6.153584,-3.185727,-0.066339,0.210760,-0.046895,-173.481748,188.495763,1019.727161,-1322.214232,0
0.005208,23.424715,151.473267,-161.663258,-0.103032,4.453064,-5.819438,0.852814,-3.929247,5.960536,-1.001209,-0.095563,0.187831,-0.024490,-133.274699,188.495653,1019.932310,-1322.797791,0
0.006250,-25.393407,206.610512,-96.367803,1.095828,5.851874,-4.474088,-1.688249,-5.333384,4.688938,1.517746,-0.132093,0.200961,-0.043161,-69.757740,188.646520,1020.759489,-1323.860158,0
0.007292,-98.110177,184.043384,-52.431250,1.944078,6.508675,-2.426298,-4.136027,-6.006046,2.695509,3.919293,-0.205153,0.175223,-0.013287,0.941068,188.495685,1021.017697,-1324.614654,0
0.008333,-174.864878,133.762661,-7.509849,2.781018,6.192701,-0.386446,-5.636038,-5.737716,0.622343,5.420704,-0.234377,0.186655,-0.028224,64.966977,188.515156,1022.108677,-1324.949380,0
0.009375,-196.041327,80.123448,52.849053,3.912018,4.453064,2.209007,-6.244251,-4.032168,-1.950230,6.007749,-0.216112,0.196258,-0.035692,113.724386,188.507673,1022.524980,-1325.149201,0
0.010417,-171.530183,34.240174,138.493940,5.551968,2.766682,4.276640,-6.453208,-2.326620,-4.086346,6.249683,-0.259948,0.204685,-0.058098,166.847455,188.504115,1023.474127,-1325.805726,0
0.011462,-120.341478,-12.851190,191.786554,6.592488,0.370244,5.237037,-4.971854,-0.084413,-5.089356,4.869238,-0.205153,0.222127,-0.039427,189.772824,188.498479,1023.768514,-1326.796730,0
0.012500,-67.576166,-80.745870,200.871781,5.823408,-2.285364,6.340303,-3.359903,2.650345,-6.184693,3.325132,-0.164970,0.214353,-0.017021,178.813435,188.495246,1024.806655,-1327.119240,0
0.013542,-23.703374,-151.213783,162.893561,6.026988,-4.330324,5.971225,-1.016602,4.738171,-5.928694,1.133499,-0.124787,0.205665,-0.061832,136.774165,188.495341,1025.197083,-1327.793755,0
0.014583,25.477708,-206.906751,96.453220,4.828128,-5.729134,4.653655,1.572968,6.157011,-4.631916,-1.385457,-0.110175,0.195343,-0.035692,75.044187,188.572809,1026.036853,-1328.975309,0
0.015625,98.081054,-183.518121,52.455114,3.968568,-6.332681,2.550306,4.035673,6.855404,-2.642684,-3.758540,-0.048074,0.176464,-0.024490,4.435858,188.495901,1026.006285,-1329.602865,0
0.016667,174.586219,-133.479016,7.533712,3.086388,-6.041558,0.562045,5.464787,6.531938,-0.619878,-5.238605,0.039598,0.189334,-0.054364,-59.838870,188.495913,1026.796244,-1329.111697,0
0.017709,195.581188,-80.190149,-52.911364,1.978008,-4.234467,-2.096906,6.114046,4.841092,1.982072,-5.829207,-0.000585,0.197042,-0.028224,-110.032649,188.497609,1026.455183,-1329.383054,0
0.018750,171.319579,-33.968610,-138.507008,0.394608,-2.583587,-4.081198,6.267032,3.080408,4.097205,-6.035562,0.014027,0.206775,-0.005818,-163.110478,188.571453,1026.361170,-1329.052388,0
0.019792,120.255642,13.026107,-190.531629,-0.487572,-0.261705,-5.085250,4.744633,0.790416,5.058247,-4.744064,-0.007891,0.223041,-0.039427,-185.481657,188.497117,1025.733842,-1329.254638,0
0.020833,66.889177,81.041596,-200.847917,-0.725082,2.383252,-6.105176,3.158801,-1.903909,6.187158,-3.132359,-0.044421,0.204489,-0.024490,-173.719258,188.492712,1025.336035,-1329.755328,0
0.021875,23.163838,151.449105,-161.367804,-0.136962,4.406911,-5.803563,0.867740,-3.921896,5.910176,-0.951399,-0.117481,0.205077,-0.013287,-135.514079,188.495597,1024.404344,-1329.406971,0
0.022917,-25.495489,208.857561,-96.023106,1.073208,5.844773,-4.422496,-1.755413,-5.303978,4.596611,1.596019,-0.146705,0.184108,-0.035692,-70.458960,188.646735,1023.412859,-1329.954834,0
0.023959,-98.280315,184.019222,-52.271212,1.932768,6.437670,-2.394550,-4.165878,-5.965613,2.682919,3.915735,-0.241683,0.176791,-0.017021,1.291678,188.495977,1023.106920,-1329.532999,0
0.025000,-174.864878,133.641852,-7.411364,2.758398,6.150097,-0.338823,-5.609919,-5.645823,0.563589,5.413589,-0.230724,0.186525,-0.043161,64.322307,188.496027,1021.685857,-1329.259837,0
0.026042,-196.132067,80.582522,53.132197,3.934638,4.385609,2.236788,-6.192012,-4.035844,-1.958623,5.968613,-0.234377,0.198152,-0.035692,113.204126,188.496100,1021.563162,-1329.110295,0
0.027084,-171.360046,34.095203,138.715531,5.574588,2.709878,4.260765,-6.404700,-2.242078,-4.098936,6.167852,-0.245336,0.204620,-0.031958,167.186755,188.646859,1020.030827,-1328.797384,0
0.028125,-120.216711,-12.851190,190.592425,6.535938,0.402197,5.221163,-4.856182,-0.062358,-5.059979,4.840775,-0.238030,0.231468,-0.050629,188.404314,188.496060,1019.099985,-1328.192105,0
0.029166,-66.940986,-80.685466,200.871781,6.728208,-2.274713,6.264900,-3.315126,2.668724,-6.151119,3.278880,-0.194194,0.192338,-0.028224,178.677715,188.496045,1018.329748,-1327.844801,0
0.030208,-23.442497,-151.322511,161.576326,6.015678,-4.312573,5.931539,-0.968094,4.771253,-5.899318,1.065900,-0.194194,0.172872,-0.024490,136.909885,188.496105,1017.351975,-1327.788492,0
0.031250,25.534420,-206.592647,96.440909,4.805508,-5.704282,4.590158,1.617745,6.153335,-4.623523,-1.424593,-0.099216,0.183716,-0.065566,74.625717,188.575236,1016.877048,-1327.970332,0
0.032291,98.251191,-183.795981,52.479735,3.945948,-6.322030,2.589992,4.039404,6.829673,-2.613307,-3.726520,-0.059033,0.175485,-0.050629,5.408518,188.439580,1016.607814,-1327.563970,0
0.033334,174.858439,-133.309884,7.669129,3.075078,-5.995405,0.490611,5.461056,6.495180,-0.544337,-5.220815,-0.015197,0.186851,-0.031958,-59.816250,188.495092,1015.582246,-1327.631668,0
0.034375,195.660585,-80.347200,-53.046780,1.955388,-4.220265,-2.096906,6.076732,4.826389,1.940105,-5.839881,0.021333,0.195278,-0.039427,-107.567069,188.498877,1015.793640,-1327.405191,0
0.035417,170.933934,-33.690749,-138.654735,0.338058,-2.587137,-4.148664,6.218524,3.036299,4.076221,-6.064025,0.010374,0.207233,-0.020755,-161.628868,188.497593,1015.673188,-1327.326194,0
0.036458,119.609120,13.545586,-190.654735,-0.668532,-0.204901,-5.085250,4.759558,0.838201,5.087624,-4.719159,-0.007891,0.200177,-0.031958,-183.185728,188.573547,1016.082993,-1326.903858,0
0.037500,66.582930,81.343619,-200.564773,-0.826872,2.425855,-6.109144,3.125218,-1.848773,6.157781,-3.082550,-0.069992,0.193776,-0.035692,-172.837078,188.497366,1015.724497,-1325.901605,0
0.038542,22.868933,151.799451,-161.158523,-0.114342,4.449514,-5.763877,0.808038,-3.914544,5.905979,-0.926494,-0.095563,0.185022,-0.046895,-132.516929,188.496514,1015.630145,-1325.791137,0
0.039583,-25.937847,206.779645,-96.183144,1.073208,5.890927,-4.430433,-1.762876,-5.296626,4.651168,1.574672,-0.183235,0.185283,-0.039427,-69.316650,188.496652,1015.917266,-1325.129952,0
0.040625,-98.802070,183.608471,-52.345076,1.932768,6.455421,-2.382644,-4.184535,-5.987667,2.628362,3.919293,-0.201500,0.176138,-0.028224,1.325608,188.571494,1015.574358,-1325.349175,0
0.041667,-175.352606,133.690176,-7.300568,2.781018,6.128796,-0.362635,-5.576336,-5.667877,0.601360,5.420704,-0.227071,0.187896,-0.058098,65.215797,188.496852,1016.367089,-1325.377895,0
0.042708,-195.769107,80.473794,53.464583,3.945948,4.385609,2.224882,-6.229326,-3.977032,-1.958623,5.979286,-0.241683,0.197368,-0.046895,114.007136,188.496373,1015.804212,-1325.264548,0
0.043750,-171.223936,33.394511,138.789394,5.563278,2.752481,4.304420,-6.378581,-2.227375,-4.048576,6.235451,-0.238030,0.197173,-0.073035,167.175445,188.571027,1016.512636,-1325.033952,0
0.044792,-119.331996,-13.274021,190.629357,6.547248,0.324091,5.241006,-4.908421,-0.010898,-5.114536,4.837217,-0.175929,0.193906,-0.028224,189.580554,188.495667,1016.287494,-1325.565384,0
0.045833,-66.759506,-81.108297,200.724054,6.739518,-2.324417,6.296649,-3.270350,2.771645,-6.134332,3.232628,-0.190541,0.170716,-0.043161,178.247935,188.495801,1015.266150,-1326.305747,0
0.046875,-23.295044,-151.394997,160.960796,6.015678,-4.372927,5.959319,-0.938243,4.782280,-5.907711,1.037437,-0.143052,0.187635,-0.031958,136.321765,188.495586,1015.068675,-1326.350211,0
0.047917,25.817983,-206.737618,96.440909,4.794198,-5.729134,4.610001,1.617745,6.171714,-4.610933,-1.453056,-0.066339,0.185741,-0.065566,74.546547,188.571082,1014.912876,-1326.747103,0
0.048959,98.659521,-183.179855,52.528977,3.945948,-6.325580,2.498714,4.050598,6.822322,-2.617504,-3.762098,-0.044421,0.176660,-0.039427,4.175728,188.495635,1014.814447,-1326.859466,0
0.050000,174.926494,-133.660230,7.410606,3.086388,-5.952801,0.510454,5.446130,6.476801,-0.540141,-5.242163,-0.026156,0.189072,-0.028224,-59.782320,188.495837,1014.729053,-1327.123840,0
0.051042,195.342995,-79.960611,-53.354546,1.966698,-4.170562,-2.065157,6.050612,4.778605,1.994662,-5.797187,-0.004238,0.195997,-0.031958,-110.281469,188.495694,1013.721132,-1326.891371,0
0.052083,170.831852,-32.651791,-138.531629,0.315438,-2.526783,-4.124852,6.225987,3.058354,4.093008,-6.053352,0.024986,0.191947,-0.009553,-163.087858,188.571069,1014.020969,-1326.576078,0
0.053125,119.370927,13.690556,-190.593182,-0.668532,-0.204901,-5.065407,4.666274,0.790416,5.079231,-4.640886,-0.062686,0.220690,-0.024490,-185.131047,188.497544,1012.775168,-1326.379842,0
0.054167,66.424135,81.307376,-200.552463,-0.872112,2.447157,-6.093270,3.110293,-1.940667,6.140994,-3.075434,-0.015197,0.193972,-0.039427,-173.187688,188.496386,1012.110753,-1327.059101,0
0.055219,22.358520,152.391415,-159.878220,-0.091722,4.481467,-5.708317,0.737142,-3.932923,5.830439,-0.869569,-0.095563,0.193972,-0.069301,-133.444349,188.493897,1011.080612,-1326.499284,0
0.056263,-27.264919,207.504499,-95.001326,1.118448,5.873176,-4.355030,-1.871086,-5.333384,4.521071,1.660060,-0.146705,0.184761,-0.035692,-68.852940,188.573357,1009.910672,-1326.842635,0
0.057301,-99.800210,182.654080,-51.384849,1.978008,6.391516,-2.267555,-4.195729,-5.925180,2.515052,3.919293,-0.216112,0.175289,-0.028224,2.897698,188.495725,1008.680658,-1325.918703,0
0.058333,-175.035016,133.629771,-7.054356,2.781018,6.086192,-0.271357,-5.594993,-5.612741,0.534213,5.395799,-0.212459,0.187504,-0.050629,64.559817,188.496594,1007.462112,-1325.644672,0
0.059375,-195.871189,79.881829,53.513826,3.957258,4.318154,2.232819,-6.165893,-3.932923,-1.971213,5.936592,-0.256295,0.195409,-0.043161,113.498186,188.495785,1006.806824,-1325.083449,0
0.060417,-170.906346,32.681737,138.629356,5.563278,2.667274,4.284577,-6.326342,-2.164887,-4.048576,6.160736,-0.248989,0.197042,-0.058098,167.141515,188.495948,1005.575624,-1324.374235,0
0.061458,-119.592873,-13.467316,190.715531,6.547248,0.302789,5.161634,-4.807674,0.040563,-5.043192,4.758945,-0.197847,0.201027,-0.069301,188.042394,188.573126,1004.231945,-1323.736967,0
0.062500,-66.884274,-81.011650,200.588637,6.716898,-2.320867,6.237120,-3.206916,2.734888,-6.109152,3.186376,-0.201500,0.198348,-0.024490,178.225315,188.494920,1003.661037,-1323.173036,0
0.063542,-23.204304,-151.539968,161.293182,5.993058,-4.287721,5.895822,-0.893467,4.756550,-5.874137,1.030321,-0.179582,0.190967,-0.017021,136.615825,188.496277,1003.397818,-1322.830665,0
0.064583,25.897380,-206.326867,96.637879,4.782888,-5.665229,4.522692,1.673715,6.127605,-4.539589,-1.438824,-0.077298,0.185937,-0.050629,74.444757,188.495336,1002.475018,-1322.041084,0
0.065625,98.841001,-183.554363,52.492046,3.945948,-6.229723,2.502683,4.009553,6.796592,-2.550357,-3.744309,-0.044421,0.176138,-0.028224,5.182318,188.570709,1001.766964,-1321.885157,0
0.066667,174.790384,-133.225317,7.238258,3.075078,-5.920849,0.466799,5.416280,6.476801,-0.519157,-5.231489,-0.015197,0.186851,-0.031958,-59.985900,188.495338,1001.559870,-1321.677749,0
0.067708,195.547160,-79.139110,-53.465341,1.978008,-4.191863,-2.120717,6.024493,4.727144,2.007252,-5.800744,0.014027,0.192796,-0.050629,-107.906369,188.495237,1001.130050,-1321.530006,0
0.068750,170.548289,-32.277283,-138.691667,0.360678,-2.512582,-4.164538,6.173748,2.940730,4.126582,-6.014215,0.003068,0.204946,-0.039427,-161.436598,188.495349,999.580729,-1321.778857,0
0.069792,119.416297,14.089226,-190.691667,-0.611982,-0.126795,-5.073344,4.681200,0.742631,5.087624,-4.608866,-0.044421,0.206122,-0.046895,-182.869048,188.570671,999.008046,-1322.056026,0
0.070833,66.435477,81.778531,-200.392425,-0.815562,2.457808,-6.089301,3.084173,-1.940667,6.120011,-3.061202,-0.066339,0.196519,-0.050629,-172.599568,188.495347,998.859650,-1321.807230,0
0.071875,22.925645,151.992745,-161.010796,-0.103032,4.456615,-5.751972,0.781918,-3.932923,5.893389,-0.866011,-0.091910,0.191881,-0.020755,-132.358589,188.495316,999.171255,-1322.761590,0
0.072917,-26.334834,206.538027,-96.478599,1.073208,5.869625,-4.366936,-1.781533,-5.292951,4.529464,1.560440,-0.164970,0.185414,-0.024490,-69.237480,188.495256,999.149440,-1321.961558,0
0.073958,-99.142345,183.451419,-52.308144,1.932768,6.409268,-2.315178,-4.225580,-5.954586,2.615772,3.915735,-0.201500,0.174178,-0.043161,1.370848,188.571015,1000.139146,-1322.515735,0
0.075000,-175.216496,133.339830,-6.648106,2.837568,6.079092,-0.311043,-5.580068,-5.616417,0.546803,5.385126,-0.248989,0.184761,-0.043161,65.555097,188.496232,1000.479594,-1322.173019,0
0.076042,-195.610312,79.048247,53.723106,3.957258,4.350106,2.288379,-6.177087,-3.925572,-2.029967,5.954381,-0.252642,0.191555,-0.039427,114.301196,188.570861,1000.222096,-1322.515815,0
0.077083,-170.895003,32.536767,138.764773,5.551968,2.617570,4.324263,-6.363655,-2.142833,-4.132510,6.174968,-0.267254,0.174701,-0.043161,166.971865,188.494174,1000.007084,-1323.585366,0
0.078125,-119.263941,-13.733096,190.678599,6.535938,0.242434,5.241006,-4.818868,0.047914,-5.055782,4.762503,-0.212459,0.212589,-0.054364,189.399594,188.570792,1000.084799,-1323.606074,0
0.079167,-66.850246,-81.506967,200.527084,6.739518,-2.324417,6.304586,-3.184528,2.753266,-6.079775,3.186376,-0.164970,0.194298,-0.024490,178.044355,188.493501,999.984970,-1323.465174,0
0.080208,-23.374442,-151.648696,160.948485,5.959128,-4.323224,5.887885,-0.889736,4.793308,-5.848957,0.959164,-0.121134,0.194233,-0.043161,136.129495,188.570586,998.945737,-1323.991951,0
0.081250,26.169600,-206.471838,96.724053,4.828128,-5.682980,4.494912,1.662521,6.123929,-4.518606,-1.445940,-0.066339,0.188158,-0.050629,74.546547,188.494515,998.779657,-1323.991168,0
0.082292,98.897714,-183.119451,52.368940,3.945948,-6.254575,2.482840,4.039404,6.807619,-2.554553,-3.751425,-0.051727,0.175485,-0.024490,4.085248,188.568886,998.853123,-1323.968625,0
0.083333,174.722329,-132.971618,6.647349,3.086388,-5.910198,0.458862,5.453593,6.395935,-0.519157,-5.235047,-0.029809,0.185675,-0.039427,-60.268650,188.496016,998.230833,-1323.364077,0
0.084375,195.286283,-78.861249,-53.576137,1.955388,-4.135059,-2.140560,5.979716,4.694062,2.053415,-5.811418,0.032292,0.191751,-0.039427,-110.586839,188.496074,997.631526,-1323.690702,0
0.085417,170.661714,-31.999423,-138.728599,0.360678,-2.420274,-4.132789,6.155091,2.962784,4.160155,-5.978637,0.021333,0.195997,-0.050629,-163.110478,188.495850,997.590522,-1323.681791,0
0.086458,119.200790,14.185873,-190.543940,-0.611982,-0.101943,-5.045564,4.636423,0.720577,5.083428,-4.583961,-0.011544,0.216182,-0.043161,-185.063187,188.495660,997.109017,-1323.558155,0
0.087500,66.775752,81.790612,-200.343182,-0.849492,2.450707,-6.037710,3.028203,-1.903909,6.124207,-2.997161,-0.029809,0.198936,-0.076769,-173.006728,188.495801,996.542961,-1323.383697,0
0.088542,22.891618,151.847775,-160.986175,-0.091722,4.488567,-5.708317,0.703559,-3.910869,5.801062,-0.826875,-0.128440,0.189856,-0.061832,-134.145569,188.495770,995.259162,-1322.719763,0
0.089583,-26.402889,206.320571,-96.293940,1.061898,5.819921,-4.303439,-1.807653,-5.241490,4.516874,1.613808,-0.139399,0.185349,-0.099175,-70.311930,188.567063,994.528610,-1322.465821,0
0.090625,-99.096975,183.511824,-51.815720,1.955388,6.352463,-2.287398,-4.158416,-5.921504,2.544428,3.883714,-0.212459,0.173982,-0.073035,1.744078,188.543169,993.743089,-1321.862917,0
0.091667,-174.887563,132.977403,-6.143371,2.803638,6.022287,-0.275326,-5.524097,-5.546577,0.546803,5.353105,-0.208806,0.184238,-0.058098,65.170557,188.483298,993.082034,-1320.849260,0
0.092708,-195.791792,79.084490,53.907765,3.945948,4.208095,2.296316,-6.150967,-3.866760,-2.013180,5.915245,-0.230724,0.190640,-0.058098,113.803556,188.446439,992.464184,-1320.273154,0
0.093750,-170.815606,32.391796,138.789394,5.506728,2.589168,4.268702,-6.274102,-2.120778,-4.090543,6.078906,-0.267254,0.196715,-0.031958,167.118895,188.518959,991.539234,-1319.076032,0
0.094792,-119.683613,-13.829743,190.666288,6.479388,0.242434,5.189414,-4.774092,0.055266,-5.030602,4.684230,-0.190541,0.214549,-0.054364,188.031084,188.577391,990.609790,-1318.694587,0
0.095833,-67.213206,-81.506967,200.243940,6.694278,-2.338618,6.233151,-3.150946,2.786348,-6.071382,3.111662,-0.190541,0.197760,-0.039427,178.168765,188.508145,989.423294,-1319.020657,0
0.096875,-23.283702,-151.672858,161.170076,5.947818,-4.291271,5.836293,-0.830034,4.771253,-5.798597,0.980511,-0.124787,0.187374,-0.035692,136.446175,188.574004,989.244795,-1318.419577,0
0.097917,26.475848,-206.230220,96.502462,4.771578,-5.675880,4.483006,1.636402,6.083496,-4.464049,-1.445940,-0.088257,0.188550,-0.035692,74.263797,188.499124,988.581161,-1317.680950,0
0.098958,98.897714,-183.409392,51.617993,3.957258,-6.229723,2.451091,4.020747,6.741455,-2.512586,-3.758540,-0.044421,0.173394,-0.043161,4.775158,188.574246,987.852090,-1317.151686,0
0.100000,174.813069,-132.572948,6.438068,3.086388,-5.913748,0.419176,5.401354,6.414313,-0.481387,-5.224373,-0.007891,0.183846,-0.084238,-60.607950,188.499911,987.765149,-1317.185258,0
0.101042,195.399708,-78.643793,-53.883902,1.932768,-4.103106,-2.104843,6.050612,4.730820,2.082792,-5.782955,-0.000585,0.189138,-0.061832,-108.166499,188.575255,988.021519,-1317.144736,0
0.102083,170.446207,-32.168555,-139.073296,0.326748,-2.473529,-4.140727,6.196136,2.948081,4.134975,-5.999984,-0.018850,0.196911,-0.043161,-161.651488,188.493051,988.152072,-1317.082561,0
0.103125,119.575092,14.379168,-190.667046,-0.657222,-0.148096,-5.073344,4.643886,0.720577,5.100214,-4.580403,-0.037115,0.216770,-0.054364,-182.970838,188.570828,988.255894,-1317.396459,0
0.104167,67.161397,82.213444,-200.047728,-0.838182,2.489760,-6.089301,3.054322,-1.933315,6.124207,-3.032740,-0.073645,0.197434,-0.054364,-172.701358,188.496358,988.555394,-1317.696228,0
0.105208,22.789535,152.210202,-160.764584,-0.103032,4.463715,-5.716254,0.725948,-3.907193,5.876602,-0.833990,-0.110175,0.189399,-0.050629,-132.211559,188.712594,989.482290,-1318.023236,0
0.106250,-26.765849,206.622593,-96.109281,1.129758,5.851874,-4.366936,-1.792727,-5.300302,4.525267,1.603135,-0.168623,0.185545,-0.054364,-68.954730,188.480770,990.075404,-1318.525445,0
0.107292,-99.312483,183.233963,-51.212500,1.989318,6.419918,-2.295335,-4.203192,-5.914152,2.544428,3.961987,-0.183235,0.171304,-0.039427,2.151238,188.555721,989.901514,-1319.029131,0
0.108333,-175.466031,132.844513,-5.971023,2.837568,6.068441,-0.275326,-5.636038,-5.598038,0.509032,5.410031,-0.230724,0.181495,-0.020755,66.301557,188.479931,990.349560,-1320.186021,0
0.109375,-195.383462,78.746224,54.301705,3.968568,4.286201,2.328065,-6.203206,-3.877787,-2.055147,5.918803,-0.241683,0.191097,-0.043161,114.651806,188.639430,990.300970,-1320.376059,0
