1-Time,2-VGERA,3-VGERB,4-VGERC,5-VN,6-IGERAN,7-IGERBN,8-IGERCN,9-IGERAT,10-IGERBT,11-IGERCT,12-IN,13-IFD,14-IFAULT,15-VFAULT,16-Speed (rad/s),17-Active Power,18-Reactive Power,19-FAULT 
0.000000,139.889510,66.484107,-169.160417,-0.261372,-4.632098,1.581971,3.196114,4.723468,-1.706821,-2.965141,-0.048074,0.530003,-0.050629,5.668648,188.344844,1081.286388,802.029372,0
0.001042,59.232989,119.072282,-191.528788,-0.736392,-4.085355,-0.469787,4.464780,4.208863,0.412508,-4.310007,-0.011544,0.527064,-0.061832,6.053188,188.495674,1081.235905,801.877510,0
0.002083,-9.389139,160.558106,-161.958713,-0.159582,-2.817906,-2.009597,4.647617,2.955433,1.940105,-4.445205,-0.040768,0.528762,-0.020755,6.279388,188.420269,1080.884756,801.427577,0
0.003125,-78.170062,183.511824,-110.832765,0.790458,-0.925607,-3.835146,4.382690,1.062421,3.778256,-4.231734,-0.062686,0.521380,-0.050629,6.652618,188.495738,1080.257986,801.556934,0
0.004167,-127.997666,182.339976,-31.798674,2.317308,0.771426,-4.569334,3.326712,-0.657830,4.600808,-3.271115,-0.073645,0.521903,-0.046895,6.064498,188.344807,1079.866812,802.012864,0
0.005208,-168.626503,154.070661,41.904924,3.697128,2.571417,-4.918569,1.890135,-2.425866,4.949133,-1.879997,-0.080951,0.525496,-0.046895,4.051318,188.495579,1078.856445,802.210043,0
0.006250,-173.322298,91.068747,108.542235,4.907298,3.934724,-4.335187,-0.001670,-3.844705,4.441334,-0.101074,-0.121134,0.523993,-0.013287,2.162548,188.420220,1077.665464,802.806682,0
0.007292,-177.450968,8.809871,149.573485,5.710308,4.790341,-3.287481,-1.710637,-4.679100,3.341800,1.624482,-0.172276,0.525235,-0.031958,0.737488,188.495674,1076.884976,802.933788,0
0.008333,-140.837377,-65.789711,168.925758,6.106158,4.719335,-1.501618,-3.274081,-4.690128,1.675713,3.047620,-0.197847,0.528436,-0.024490,-0.981632,188.344898,1076.643757,803.906112,0
0.009375,-60.010718,-118.740313,191.355682,6.547248,4.261349,0.518391,-4.546478,-4.197577,-0.426830,4.403160,-0.223418,0.524124,-0.061832,-1.128662,188.495741,1075.945801,804.409198,0
0.010417,8.770205,-160.093248,162.265720,6.026988,2.947746,2.109793,-4.725584,-2.962525,-1.975410,4.595284,-0.256295,0.510928,-0.031958,-1.411412,188.420200,1075.590193,804.725903,0
0.011458,77.732608,-183.324826,111.053599,5.009088,1.087401,3.907561,-4.505433,-1.069514,-3.800971,4.413834,-0.201500,0.508054,-0.035692,-1.773332,188.495725,1074.619867,805.708173,0
0.012500,127.446787,-182.322111,32.081061,3.550098,-0.645135,4.673498,-3.441993,0.658089,-4.623523,3.421194,-0.219765,0.523732,-0.039427,-0.857222,188.344874,1073.502702,806.565209,0
0.013542,168.370529,-153.642045,-41.400947,2.158968,-2.438026,5.014796,-2.001684,2.473909,-5.005422,2.058539,-0.183235,0.524647,-0.046895,0.579148,188.420309,1073.114909,807.067343,0
0.014583,172.986927,-91.220014,-108.013637,0.948798,-3.840386,4.490943,-0.109879,3.881722,-4.531196,0.293847,-0.128440,0.525757,-0.054364,2.660188,188.420222,1073.245749,808.152564,0
0.015625,177.013515,-8.671197,-149.143372,0.134478,-4.717304,3.411488,1.572968,4.723468,-3.448449,-1.421035,-0.121134,0.526802,-0.065566,4.051318,188.495624,1072.049047,809.006900,0
0.016667,140.955705,65.686767,-168.938826,-0.295302,-4.596595,1.641500,3.166263,4.734496,-1.782362,-2.933120,-0.069992,0.530918,-0.050629,5.804368,188.344831,1071.859823,809.697311,0
0.017708,60.571404,118.830664,-191.073296,-0.691152,-4.145710,-0.418195,4.479706,4.234594,0.349558,-4.267312,-0.029809,0.529611,-0.050629,6.166288,188.420285,1071.225036,810.109849,0
0.018750,-8.379656,160.231922,-162.549622,-0.148272,-2.856959,-2.029440,4.636423,3.010569,1.919121,-4.430973,-0.026156,0.517788,-0.039427,6.211528,188.420164,1071.164413,810.438076,0
0.019792,-77.580252,183.233963,-111.411364,0.824388,-0.989512,-3.815303,4.382690,1.080800,3.736289,-4.245965,-0.040768,0.521838,-0.046895,6.652618,188.495680,1070.816711,810.525595,0
0.020833,-127.600679,182.774889,-31.958712,2.305998,0.767875,-4.565365,3.349101,-0.613721,4.563038,-3.278231,-0.066339,0.520401,-0.058098,6.177598,188.344809,1070.188184,810.721741,0
0.021875,-168.445023,154.131065,41.498674,3.663198,2.571417,-4.922538,1.893866,-2.425866,4.902970,-1.890671,-0.073645,0.524581,-0.058098,4.073938,188.420227,1069.787666,810.340391,0
0.022917,-173.503778,91.515740,108.012879,4.952538,3.963126,-4.358999,-0.016595,-3.852057,4.424547,-0.083285,-0.117481,0.521707,-0.031958,2.207788,188.420200,1070.071499,809.814651,0
0.023958,-177.598421,9.365593,149.142614,5.710308,4.776140,-3.287481,-1.736757,-4.671749,3.366980,1.588903,-0.135746,0.527129,-0.028224,0.680938,188.495624,1069.792978,810.078492,0
0.025000,-141.177652,-65.137342,169.061175,6.094848,4.694483,-1.485744,-3.251693,-4.719534,1.658926,3.079641,-0.212459,0.530003,-0.028224,-0.778052,188.420213,1070.651182,809.880775,0
0.026042,-61.496586,-118.377886,191.158713,6.547248,4.236497,0.530297,-4.583792,-4.208604,-0.422633,4.424507,-0.274560,0.530918,-0.046895,-1.162592,188.345059,1071.241878,809.718954,0
0.027083,7.885490,-159.803306,162.795076,5.993058,2.993900,2.097887,-4.755435,-2.973552,-1.929246,4.598842,-0.248989,0.521250,-0.069301,-1.490582,188.420356,1071.066308,809.832569,0
0.028125,76.949975,-183.095289,111.779925,5.043018,1.108702,3.875813,-4.497970,-1.076865,-3.725431,4.385371,-0.234377,0.522687,-0.035692,-1.784642,188.495584,1070.160708,809.365304,0
0.029167,127.276650,-182.539567,32.351894,3.572718,-0.634484,4.665561,-3.460650,0.643386,-4.610933,3.449657,-0.190541,0.524843,-0.017021,-1.185212,188.495604,1070.078731,809.684498,0
0.030208,168.155022,-153.762854,-40.945455,2.181588,-2.423825,5.026702,-2.031535,2.418773,-5.022209,2.069213,-0.179582,0.523602,-0.043161,0.499978,188.344800,1069.678580,809.992723,0
0.031250,172.862159,-91.715331,-107.595076,0.914868,-3.872338,4.486975,-0.162119,3.881722,-4.501819,0.286731,-0.117481,0.521642,-0.076769,2.705428,188.420150,1069.678226,809.408349,0
0.032292,176.990830,-9.178595,-148.946402,0.157098,-4.678251,3.439268,1.569237,4.690387,-3.452646,-1.424593,-0.088257,0.527652,-0.061832,3.949528,188.495620,1069.448153,809.113543,0
0.033333,141.670283,65.300178,-168.507955,-0.283992,-4.646299,1.708966,3.106562,4.741847,-1.799149,-2.879752,-0.055380,0.529742,-0.017021,5.623408,188.420271,1069.008238,809.256473,0
0.034375,62.102642,118.685693,-190.667046,-0.725082,-4.124408,-0.398352,4.453586,4.230918,0.324378,-4.245965,-0.044421,0.530853,-0.035692,6.064498,188.344760,1068.848307,809.069943,0
0.035417,-7.324804,159.555391,-163.152841,-0.193512,-2.871160,-1.926257,4.625229,3.039975,1.843581,-4.420300,-0.062686,0.519813,-0.024490,6.279388,188.420314,1068.227039,809.317329,0
0.036458,-76.706879,183.161478,-111.891478,0.779148,-1.025015,-3.759743,4.390153,1.135936,3.652355,-4.224618,-0.055380,0.525039,-0.031958,6.641308,188.495769,1067.030781,809.465279,0
0.037500,-127.044896,183.064831,-32.635796,2.272068,0.686219,-4.517742,3.371489,-0.573288,4.512677,-3.317367,-0.069992,0.522164,-0.020755,6.143668,188.420222,1066.429549,809.795219,0
0.038542,-168.501736,153.623667,40.513826,3.685818,2.511062,-4.894758,1.949837,-2.389108,4.898773,-1.940481,-0.066339,0.523536,-0.046895,4.017388,188.344721,1065.864575,810.258897,0
0.039583,-173.401696,92.590940,107.582008,4.952538,3.920523,-4.351062,0.091615,-3.800596,4.441334,-0.179347,-0.135746,0.524059,-0.031958,2.185168,188.420314,1065.033084,811.087760,0
0.040625,-177.326201,9.764263,148.970266,5.710308,4.751288,-3.319230,-1.639741,-4.653370,3.400554,1.524862,-0.124787,0.529742,-0.058098,0.726178,188.495579,1064.243791,811.663985,0
0.041667,-142.402642,-64.774915,168.445644,6.083538,4.680282,-1.592896,-3.165871,-4.745264,1.759647,2.983579,-0.197847,0.530003,-0.054364,-0.981632,188.420278,1063.285234,812.954937,0
0.042708,-62.676206,-118.377886,190.518561,6.535938,4.279101,0.474736,-4.542747,-4.219632,-0.313519,4.388929,-0.256295,0.534445,-0.028224,-1.128662,188.344921,1062.242398,813.726311,0
0.043750,6.717212,-159.283827,163.410607,6.026988,3.025852,1.990735,-4.733047,-3.061770,-1.857902,4.534800,-0.241683,0.526802,-0.024490,-1.400102,188.420200,1061.185263,814.306113,0
0.044792,76.258083,-182.986561,112.272349,5.043018,1.154856,3.836127,-4.535284,-1.135677,-3.717037,4.342677,-0.212459,0.525496,-0.039427,-1.807262,188.495591,1060.703323,814.254225,0
0.045833,126.652812,-183.131532,32.979735,3.572718,-0.542177,4.590158,-3.497963,0.558844,-4.560573,3.481678,-0.194194,0.523602,-0.046895,-0.936392,188.495611,1059.800093,814.883734,0
0.046875,168.291132,-153.327942,-39.911364,2.192898,-2.349269,4.987016,-2.106162,2.337907,-4.942472,2.083444,-0.190541,0.520270,-0.046895,0.624388,188.344778,1058.200085,814.567686,0
0.047917,172.952899,-92.488509,-107.127273,0.960108,-3.804883,4.506817,-0.236746,3.878046,-4.506016,0.354330,-0.164970,0.521511,-0.058098,2.671498,188.420074,1057.995829,815.059298,0
0.048958,176.854720,-9.456456,-148.663258,0.134478,-4.649849,3.490860,1.502072,4.683035,-3.482022,-1.364110,-0.106522,0.521772,-0.024490,4.073938,188.495401,1057.359145,815.621931,0
0.050000,142.248751,64.865266,-168.347917,-0.250062,-4.624997,1.724840,3.035666,4.767577,-1.841116,-2.865521,-0.059033,0.528893,-0.061832,5.793058,188.420175,1057.447608,816.158956,0
0.051042,63.236892,118.564884,-190.174622,-0.702462,-4.167011,-0.350729,4.427466,4.256648,0.240444,-4.238850,-0.051727,0.535033,-0.050629,6.211528,188.344728,1057.014183,816.910773,0
0.052083,-6.281293,159.229207,-163.620644,-0.170892,-2.913763,-1.902445,4.587915,3.069381,1.805810,-4.420300,-0.015197,0.530199,-0.031958,6.211528,188.420215,1056.903360,817.123702,0
0.053125,-76.173782,182.823212,-112.543940,0.733908,-1.028565,-3.735931,4.349108,1.124909,3.635569,-4.253081,-0.037115,0.523863,-0.046895,6.618688,188.464134,1057.086858,817.011498,0
0.054167,-126.749991,183.523905,-33.226705,2.260758,0.700420,-4.549491,3.349101,-0.573288,4.512677,-3.310252,-0.102869,0.522622,-0.024490,6.188908,188.491693,1057.316469,816.780666,0
0.055208,-168.297571,153.780719,39.812121,3.663198,2.500411,-4.922538,1.931180,-2.352351,4.923953,-1.933365,-0.106522,0.519617,-0.031958,4.040008,188.289508,1057.274200,816.813456,0
0.056250,-173.458408,92.808397,106.978788,4.929918,3.888570,-4.362967,0.106540,-3.837354,4.474907,-0.179347,-0.143052,0.521511,-0.031958,2.241718,188.438927,1057.966541,816.978104,0
0.057292,-177.428283,10.102528,148.637879,5.732928,4.751288,-3.335104,-1.669592,-4.627640,3.396357,1.531978,-0.186888,0.520335,-0.043161,0.680938,188.420596,1057.828494,816.609910,0
0.058333,-142.720232,-64.279598,168.556440,6.106158,4.737087,-1.573053,-3.180797,-4.686452,1.734467,3.012042,-0.230724,0.527782,-0.054364,-0.800672,188.481512,1057.937117,815.645213,0
0.059375,-63.674346,-117.930893,190.296970,6.479388,4.240048,0.478705,-4.561404,-4.204929,-0.351290,4.374697,-0.248989,0.531963,-0.054364,-1.151282,188.269892,1058.195711,814.801270,0
0.060417,5.832497,-158.993885,163.939963,5.993058,3.047154,1.998673,-4.710658,-3.058095,-1.870492,4.541916,-0.238030,0.529481,-0.017021,-1.490582,188.496082,1058.675210,814.451666,0
0.061458,75.509478,-182.744943,113.109470,5.076948,1.165507,3.816284,-4.483045,-1.154056,-3.687660,4.346235,-0.241683,0.521903,-0.061832,-1.773332,188.496241,1058.503773,814.366014,0
0.062500,126.335222,-183.264422,33.915341,3.550098,-0.563479,4.649687,-3.524083,0.599277,-4.568966,3.453215,-0.227071,0.521968,-0.031958,-1.253072,188.496111,1059.084686,813.484950,0
0.063542,167.950857,-153.569560,-39.234280,2.215518,-2.363470,4.959236,-2.083774,2.374664,-4.950865,2.101233,-0.164970,0.519159,-0.009553,0.567838,188.269883,1059.622399,813.327613,0
0.064583,172.862159,-92.718046,-106.708712,0.914868,-3.762280,4.486975,-0.255403,3.844964,-4.476639,0.336541,-0.157664,0.514325,-0.035692,2.739358,188.496112,1059.243168,812.680333,0
0.065625,176.922775,-9.879287,-148.207766,0.157098,-4.628547,3.459111,1.502072,4.627899,-3.536579,-1.364110,-0.095563,0.523667,-0.058098,3.960838,188.496105,1058.785333,812.864580,0
0.066667,142.861246,64.599486,-168.003220,-0.238752,-4.621447,1.752620,3.002083,4.716117,-1.857902,-2.851289,-0.066339,0.529024,-0.031958,5.623408,188.496141,1058.294717,812.495864,0
0.067708,64.042210,118.371590,-189.731440,-0.657222,-4.184763,-0.334855,4.416272,4.238269,0.223657,-4.224618,-0.048074,0.532159,-0.005818,6.053188,188.269879,1058.019920,812.188047,0
0.068766,-6.893789,159.881576,-162.611175,-0.227442,-2.920864,-1.922288,4.584184,3.025272,1.814204,-4.427416,-0.033462,0.531571,-0.080503,6.222838,188.420725,1057.860222,811.991389,0
0.069796,-75.731424,182.859455,-112.679356,0.733908,-1.060518,-3.708151,4.367765,1.169018,3.639765,-4.199713,-0.048074,0.522230,-0.050629,6.652618,188.496134,1057.439338,811.809134,0
0.070833,-126.534484,183.668876,-34.051515,2.226828,0.657817,-4.482025,3.360295,-0.587991,4.504284,-3.342272,-0.073645,0.518833,-0.043161,6.211528,188.496031,1057.752721,811.822011,0
0.071875,-168.388311,153.442454,38.741099,3.651888,2.401003,-4.878883,1.961031,-2.264133,4.856806,-1.944039,-0.084604,0.521838,-0.058098,4.006078,188.269962,1056.225175,811.576269,0
0.072917,-173.401696,93.593655,106.486364,4.907298,3.831766,-4.355030,0.196093,-3.793245,4.437137,-0.182904,-0.150358,0.516612,-0.069301,2.230408,188.496002,1055.702776,810.967127,0
0.073958,-177.212776,10.477036,148.059281,5.687688,4.666081,-3.370821,-1.606159,-4.557801,3.396357,1.485726,-0.186888,0.518963,-0.065566,0.737488,188.496165,1054.481656,810.708611,0
0.075000,-143.570919,-64.001737,167.928599,6.106158,4.726436,-1.640519,-3.128558,-4.668073,1.814204,2.962232,-0.219765,0.531506,-0.013287,-0.970322,188.496188,1053.653361,811.336359,0
0.076042,-64.536376,-118.100025,189.595266,6.524628,4.279101,0.439019,-4.546478,-4.260065,-0.263159,4.335561,-0.245336,0.531441,-0.046895,-1.139972,188.269648,1052.829246,812.479762,0
0.077083,5.163290,-158.389840,164.641667,6.072228,3.050704,1.982798,-4.706927,-3.098528,-1.807542,4.556147,-0.223418,0.532094,-0.050629,-1.411412,188.496049,1052.559648,813.066835,0
0.078125,74.726845,-182.467082,113.872728,5.054328,1.225861,3.788504,-4.494239,-1.179786,-3.641497,4.388929,-0.230724,0.524908,-0.009553,-1.784642,188.420710,1052.394864,813.444856,0
0.079167,125.983605,-183.699334,34.727841,3.572718,-0.492473,4.594126,-3.509157,0.562519,-4.573163,3.531488,-0.208806,0.521707,-0.058098,-1.015562,188.495834,1052.622987,814.441213,0
0.080208,168.245762,-153.231294,-38.150947,2.192898,-2.320867,4.998922,-2.106162,2.279095,-4.917291,2.115465,-0.154011,0.518114,-0.035692,0.635698,188.269955,1051.348785,814.573616,0
0.081250,173.281832,-93.587871,-106.068561,0.914868,-3.765830,4.530629,-0.266597,3.793504,-4.543786,0.397025,-0.124787,0.509557,-0.061832,2.671498,188.496165,1051.102738,815.655935,0
0.082292,176.752637,-10.096744,-147.826137,0.111858,-4.610796,3.478954,1.490878,4.635250,-3.452646,-1.321415,-0.095563,0.521119,-0.035692,4.062628,188.420696,1050.641207,814.821934,0
0.083333,143.428371,64.224978,-167.892425,-0.250062,-4.646299,1.756589,3.005815,4.701414,-1.874689,-2.808595,-0.073645,0.530003,-0.073035,5.759128,188.496092,1050.167149,814.847714,0
0.084375,64.632020,118.238700,-189.239016,-0.668532,-4.149260,-0.283263,4.434929,4.275027,0.190084,-4.203271,-0.051727,0.528109,-0.069301,6.188908,188.269868,1049.859371,815.310953,0
0.085417,-4.965563,158.443948,-164.839394,-0.204822,-2.967017,-1.882602,4.599110,3.098787,1.759647,-4.438089,-0.037115,0.531179,-0.020755,6.245458,188.496174,1050.212041,815.712747,0
0.086458,-74.483749,182.267491,-114.058144,0.722598,-1.085370,-3.684340,4.397616,1.205776,3.581012,-4.221060,-0.033462,0.525561,-0.073035,6.629998,188.420784,1049.849020,815.763452,0
0.087500,-126.035414,184.007141,-34.864015,2.204208,0.654267,-4.478056,3.352832,-0.576963,4.529464,-3.335157,-0.084604,0.521707,-0.073035,6.211528,188.496181,1050.279393,815.596381,0
0.088542,-168.331598,153.611587,37.953220,3.572718,2.482660,-4.839197,1.964762,-2.300890,4.852609,-1.940481,-0.080951,0.519878,-0.031958,3.994768,188.269872,1050.782473,815.144705,0
0.089583,-173.560491,94.004406,105.932387,4.873368,3.881469,-4.362967,0.117734,-3.789569,4.424547,-0.204251,-0.146705,0.517592,-0.035692,2.219098,188.420698,1050.700534,815.046008,0
0.090633,-177.371571,9.558887,148.330114,5.676378,4.719335,-3.315261,-1.632278,-4.638667,3.387964,1.578230,-0.175929,0.512627,-0.050629,0.680938,188.420596,1052.310324,814.970207,0
0.091667,-143.707029,-63.893009,168.113258,6.083538,4.705134,-1.608770,-3.136020,-4.712182,1.763844,2.948001,-0.197847,0.520662,-0.065566,-0.778052,188.496183,1052.769056,814.800802,0
0.092708,-64.899336,-117.665113,189.607576,6.547248,4.240048,0.482674,-4.557672,-4.212280,-0.326109,4.339119,-0.216112,0.523144,-0.061832,-1.128662,188.270004,1053.166732,813.543387,0
0.093750,4.766302,-158.124060,164.924811,6.026988,3.054255,2.002641,-4.718121,-3.076473,-1.853706,4.556147,-0.248989,0.529807,-0.058098,-1.490582,188.420623,1053.768564,812.871647,0
0.094792,74.000925,-182.285868,114.660606,5.076948,1.186808,3.788504,-4.445731,-1.146705,-3.645693,4.342677,-0.230724,0.523667,-0.061832,-1.739402,188.420766,1053.884459,811.752642,0
0.095833,125.722727,-183.675172,35.552652,3.572718,-0.549278,4.598095,-3.490500,0.573547,-4.568966,3.435426,-0.245336,0.521315,-0.046895,-1.320932,188.496080,1053.842650,810.317856,0
0.096875,168.052939,-153.593721,-37.129167,2.215518,-2.342168,4.967173,-2.057654,2.293798,-4.921488,2.076328,-0.179582,0.518376,-0.043161,0.533908,188.345314,1054.326374,809.520280,0
0.097917,173.100352,-94.034865,-105.563826,0.937488,-3.740978,4.435383,-0.247940,3.804531,-4.476639,0.311636,-0.157664,0.511843,-0.054364,2.716738,188.420708,1054.706745,807.746650,0
0.098958,176.820692,-10.338362,-147.592235,0.145788,-4.600145,3.490860,1.487147,4.624223,-3.456842,-1.328531,-0.095563,0.509426,-0.061832,3.972148,188.420792,1054.711362,807.589188,0
0.100000,143.632536,64.224978,-167.609281,-0.272682,-4.607246,1.764526,3.039397,4.708765,-1.862099,-2.780133,-0.080951,0.513084,-0.069301,5.623408,188.496006,1054.498139,807.512180,0
0.101042,64.972295,117.985001,-189.103599,-0.702462,-4.202514,-0.263420,4.405078,4.230918,0.177494,-4.181924,-0.029809,0.527260,-0.069301,6.064498,188.269888,1054.015515,806.971610,0
0.102083,-4.772741,157.888227,-165.233334,-0.250062,-2.981218,-1.846885,4.599110,3.076732,1.776434,-4.409626,-0.069992,0.530134,-0.065566,6.268078,188.420656,1053.987399,806.253235,0
0.103125,-73.905281,182.170844,-114.636743,0.733908,-1.071169,-3.660528,4.423735,1.220479,3.593602,-4.217503,-0.037115,0.522752,-0.069301,6.629998,188.420575,1054.227918,806.120700,0
0.104167,-125.490974,184.285002,-36.107386,2.170278,0.650716,-4.482025,3.390146,-0.488745,4.516874,-3.349388,-0.055380,0.522818,-0.039427,6.234148,188.496112,1053.732947,806.595185,0
0.105208,-168.308913,153.490778,36.611364,3.561408,2.436506,-4.855072,2.009539,-2.264133,4.869396,-1.961828,-0.099216,0.518702,-0.039427,4.006078,188.269919,1053.581278,806.783094,0
0.106250,-173.707943,95.019202,105.316856,4.895988,3.824665,-4.362967,0.143854,-3.752811,4.462317,-0.232714,-0.106522,0.511908,-0.054364,2.162548,188.420643,1053.521003,807.187043,0
0.107292,-177.190091,11.165647,147.345266,5.698998,4.690933,-3.307324,-1.598696,-4.598234,3.408947,1.475052,-0.172276,0.507401,-0.054364,0.692248,188.420672,1052.330549,807.318672,0
0.108333,-144.444292,-63.542663,167.657766,6.060918,4.708684,-1.628613,-3.087513,-4.693803,1.810007,2.958674,-0.197847,0.514195,-0.028224,-0.925082,188.496100,1052.317468,807.440487,0
0.109375,-65.568544,-117.665113,189.078220,6.535938,4.229397,0.423145,-4.527821,-4.219632,-0.275749,4.342677,-0.248989,0.529350,-0.076769,-1.128662,188.269935,1052.055344,807.820486,0
0.110417,4.550794,-157.652905,165.675758,6.106158,3.068456,1.962955,-4.721853,-3.109555,-1.836919,4.598842,-0.227071,0.531637,-0.024490,-1.388792,188.420746,1052.499562,808.390987,0
0.111458,73.671993,-181.971765,115.140720,5.122188,1.211660,3.748818,-4.535284,-1.212868,-3.616317,4.364024,-0.230724,0.523340,-0.076769,-1.784642,188.420765,1052.098832,809.127857,0
