1-Time,2-VGERA,3-VGERB,4-VGERC,5-VN,6-IGERAN,7-IGERBN,8-IGERCN,9-IGERAT,10-IGERBT,11-IGERCT,12-IN,13-IFD,14-IFAULT,15-VFAULT,16-Speed (rad/s),17-Active Power,18-Reactive Power,19-FAULT 
0.000000,-158.690473,143.149524,-11.412311,2.679228,5.887377,-0.731713,-5.024094,-5.388520,0.932898,4.819428,-0.216112,0.183062,-0.017021,-8.333131,188.495211,963.248010,-1270.244013,0
0.001042,-197.651962,84.690029,40.439962,3.674508,4.488567,1.812149,-5.889771,-4.068926,-1.576724,5.733795,-0.230724,0.185479,-0.031958,19.851388,188.344381,962.379870,-1269.840788,0
0.002083,-172.823228,38.009416,122.551705,5.269218,2.731179,3.796441,-5.997981,-2.253105,-3.637300,5.765815,-0.263601,0.181429,-0.031958,66.674787,188.419996,959.576030,-1269.349002,0
0.003125,-128.508079,-3.875078,189.459849,6.456768,0.427049,4.895739,-4.628568,-0.106467,-4.808177,4.652209,-0.259948,0.217619,-0.024490,110.320076,188.495725,959.448817,-1269.077709,0
0.004167,-73.417554,-63.663472,196.723107,6.603798,-2.132702,5.999005,-3.139752,2.584182,-5.861547,3.097430,-0.164970,0.174701,-0.017021,122.014616,188.495752,957.737518,-1268.146720,0
0.005208,-28.954952,-141.549060,165.072538,6.060918,-4.106657,6.122031,-1.303918,4.631575,-6.083972,1.393222,-0.099216,0.166339,-0.017021,107.583056,188.343108,957.200688,-1268.217295,0
0.006250,12.853505,-190.814987,102.817803,4.873368,-5.409609,4.856053,1.140130,5.851924,-4.795587,-0.954957,-0.091910,0.157847,-0.009553,72.895287,188.420710,955.404722,-1267.408113,0
0.007292,87.294336,-189.957242,55.766667,3.991188,-6.275877,3.189248,3.461042,6.781889,-3.217631,-3.210632,-0.022503,0.177444,-0.017021,45.683427,188.496147,955.199154,-1265.963941,0
0.008333,157.561126,-143.276629,11.854735,3.154248,-5.757536,0.871595,4.942396,6.256256,-0.875876,-4.744064,-0.007891,0.183781,-0.058098,13.495168,188.496089,953.524830,-1265.602467,0
0.009384,196.874233,-83.633206,-41.179356,2.136348,-4.298372,-1.644487,5.767028,4.881526,1.595976,-5.548137,0.028639,0.189203,-0.009553,-14.497081,188.345249,952.023379,-1265.047515,0
0.010417,172.521884,-37.629124,-122.478599,0.586878,-2.608439,-3.561313,5.871507,3.168626,3.551635,-5.629968,0.024986,0.182213,-0.050629,-62.191350,188.419712,951.022977,-1264.120169,0
0.011458,128.728490,4.339937,-189.288258,-0.645912,-0.325610,-4.700297,4.580453,0.941122,4.772872,-4.562614,0.006721,0.184303,-0.031958,-103.981799,188.495311,951.187692,-1263.990155,0
0.012500,73.320375,63.983360,-196.625379,-0.781632,2.262543,-5.831343,3.084173,-1.720122,5.847226,-2.961583,-0.033462,0.189334,-0.002084,-115.269179,188.343321,950.268425,-1263.798241,0
0.013542,28.642266,141.518602,-165.233334,-0.216132,4.215196,-5.938495,1.225951,-3.712378,6.086437,-1.271606,-0.080951,0.186198,-0.013287,-101.459669,188.342316,950.089222,-1264.367474,0
0.014583,-13.030081,191.146955,-102.633902,0.948798,5.592704,-4.696328,-1.214365,-4.921700,4.810643,1.129941,-0.128440,0.133285,-0.013287,-68.592810,188.494945,949.250695,-1263.975053,0
0.015625,-87.380172,190.385858,-55.644318,1.797048,6.409268,-2.981900,-3.576322,-5.983992,3.211703,3.357153,-0.168623,0.173590,-0.017021,-39.039781,188.495329,949.847394,-1264.365053,0
0.016667,-158.021265,143.499870,-11.744697,2.656608,5.894477,-0.723776,-5.031556,-5.414250,0.874145,4.847891,-0.208806,0.181886,-0.039427,-8.333131,188.496020,949.199749,-1265.264981,0
0.017708,-197.606592,84.774596,40.107576,3.697128,4.492117,1.792306,-5.900965,-4.090980,-1.589314,5.726679,-0.197847,0.186851,-0.050629,18.686458,188.344120,949.184332,-1265.383408,0
0.018750,-172.947996,38.214792,122.305493,5.246598,2.766682,3.752787,-5.997981,-2.275160,-3.565956,5.765815,-0.234377,0.178947,-0.020755,66.855747,188.495336,949.516807,-1264.663560,0
0.019799,-128.576134,-4.720741,189.152084,6.456768,0.380895,4.911613,-4.636031,-0.029276,-4.803981,4.609515,-0.179582,0.216509,0.001650,108.578336,188.419891,948.558703,-1264.717125,0
0.020833,-73.599034,-63.470178,196.723107,6.626418,-2.143353,6.022817,-3.158409,2.617264,-5.815384,3.125893,-0.183235,0.160199,-0.020755,119.707376,188.495132,948.340437,-1264.660183,0
0.021875,-28.852869,-141.198714,165.207955,6.026988,-4.096006,6.133937,-1.262873,4.613196,-6.062989,1.396780,-0.095563,0.177248,-0.028224,105.999656,188.269960,948.138342,-1264.293289,0
0.022917,12.796792,-190.899553,103.027084,4.895988,-5.409609,4.856053,1.132667,5.822518,-4.803981,-0.958515,-0.062686,0.192600,-0.039427,73.211967,188.437574,948.119665,-1264.134237,0
0.023958,86.942718,-190.186780,55.963637,4.013808,-6.304279,3.185279,3.412534,6.855404,-3.209237,-3.217748,-0.000585,0.178032,-0.024490,45.988797,188.478243,948.328814,-1265.015203,0
0.025000,157.209509,-143.784027,11.830114,3.176868,-5.732684,0.903343,4.968515,6.256256,-0.892663,-4.669349,0.006721,0.182997,-0.020755,13.291588,188.495139,948.400833,-1264.220643,0
0.026042,197.441358,-84.660083,-39.825190,2.181588,-4.330324,-1.584959,5.763297,4.918283,1.574992,-5.587274,0.024986,0.187700,-0.031958,-13.863721,188.268974,948.704530,-1265.129014,0
0.027083,172.828132,-37.882823,-121.641478,0.620808,-2.590688,-3.553376,5.826730,3.153923,3.560028,-5.633526,-0.011544,0.188811,-0.020755,-60.732360,188.495162,948.253793,-1265.406683,0
0.028125,128.649092,3.941267,-189.152841,-0.623292,-0.336261,-4.696328,4.558064,0.955825,4.772872,-4.537709,-0.007891,0.177640,-0.005818,-105.406859,188.419847,947.957938,-1265.226090,0
0.029167,73.479170,63.427638,-196.613069,-0.781632,2.248342,-5.815469,3.076711,-1.698067,5.788472,-2.975814,-0.029809,0.190248,0.005384,-115.314419,188.495269,947.700924,-1264.548689,0
0.030219,27.973058,142.183051,-164.408523,-0.204822,4.254249,-5.906746,1.177443,-3.708702,6.073847,-1.243143,-0.073645,0.189464,-0.005818,-102.929969,188.269024,947.658846,-1264.119673,0
0.031251,-12.905314,190.446263,-102.978599,0.982728,5.521698,-4.672517,-1.210633,-4.943754,4.810643,1.090805,-0.146705,0.171957,-0.028224,-70.481580,188.495349,947.744855,-1264.033560,0
0.032291,-87.323460,190.905337,-55.718182,1.853598,6.402167,-2.993806,-3.527814,-5.925180,3.232686,3.353595,-0.172276,0.175877,-0.020755,-39.729691,188.419916,947.684512,-1263.631752,0
0.033333,-156.841645,144.212643,-11.375379,2.724468,5.830572,-0.672184,-4.983048,-5.337060,0.911915,4.790965,-0.212459,0.181625,-0.028224,-8.344441,188.360776,947.058234,-1262.375143,0
0.034375,-198.082977,85.112861,39.996780,3.663198,4.516969,1.780400,-5.822607,-4.046871,-1.576724,5.676869,-0.205153,0.186590,-0.058098,19.591258,188.401437,946.526977,-1261.918267,0
0.035416,-173.152161,38.371843,121.086743,5.190048,2.695677,3.752787,-5.945742,-2.271484,-3.519793,5.698216,-0.238030,0.194755,-0.035692,65.928327,188.495664,945.663066,-1260.931842,0
0.036458,-129.052519,-3.464327,189.459849,6.434148,0.459001,4.895739,-4.609911,-0.095440,-4.753620,4.687788,-0.194194,0.188288,-0.024490,110.161736,188.420459,946.700462,-1260.798326,0
0.037500,-74.222871,-62.757404,196.329167,6.637728,-2.107850,5.947413,-3.128558,2.576830,-5.769220,3.022716,-0.190541,0.183585,-0.031958,121.641386,188.495740,945.109030,-1260.130457,0
0.038556,-28.285744,-142.056458,164.420076,6.049608,-4.110207,6.034722,-1.255410,4.642602,-6.067185,1.361201,-0.139399,0.147983,-0.039427,107.198516,188.269644,945.122181,-1260.260568,0
0.039593,13.409287,-190.802906,102.559281,4.907298,-5.395408,4.832241,1.173712,5.826193,-4.824964,-0.954957,-0.095563,0.183389,-0.046895,72.940527,188.495948,945.598342,-1260.046032,0
0.040625,86.829293,-190.742501,56.012879,4.002498,-6.268776,3.141625,3.393877,6.818646,-3.217631,-3.196401,-0.033462,0.178032,-0.054364,46.124517,188.420405,945.607240,-1259.678805,0
0.041667,156.131971,-144.291425,11.645455,3.199488,-5.690081,0.899375,4.905082,6.248905,-0.922040,-4.701370,-0.011544,0.184303,-0.035692,13.472548,188.495848,945.511321,-1259.849685,0
0.042708,197.724920,-84.829216,-39.640530,2.215518,-4.362277,-1.592896,5.737177,4.947689,1.507845,-5.533906,0.024986,0.189987,-0.046895,-13.479181,188.269698,946.059945,-1258.915240,0
0.043750,172.748734,-38.015713,-121.247538,0.620808,-2.629741,-3.501785,5.811805,3.117166,3.526455,-5.587274,0.039598,0.210238,-0.031958,-61.524060,188.357913,945.222892,-1258.262925,0
0.044792,129.148162,3.965429,-189.152841,-0.611982,-0.361113,-4.724108,4.599110,0.977879,4.777069,-4.559056,-0.033462,0.189791,-0.046895,-103.766909,188.476663,945.665083,-1258.450898,0
0.045833,73.842130,63.234344,-196.379167,-0.781632,2.258992,-5.767846,3.065516,-1.628228,5.788472,-2.961583,-0.011544,0.171500,-0.058098,-114.862019,188.492236,945.751055,-1257.881176,0
0.046875,28.857773,141.240741,-165.676516,-0.216132,4.200995,-5.982150,1.255802,-3.697675,6.103224,-1.310742,-0.066339,0.192534,-0.058098,-101.821589,188.344876,946.248205,-1258.293676,0
0.047927,-13.427069,191.340250,-102.572349,0.948798,5.578502,-4.688391,-1.225559,-5.017269,4.848413,1.062342,-0.117481,0.199981,-0.050629,-68.581500,188.420374,947.530779,-1258.928722,0
0.048960,-87.221377,190.699962,-55.878220,1.819668,6.430569,-2.966026,-3.535277,-5.976640,3.266260,3.339364,-0.146705,0.172414,-0.031958,-39.186811,188.421776,948.171140,-1259.181805,0
0.050000,-156.955070,144.297210,-11.917045,2.701848,5.866075,-0.743619,-5.039019,-5.403223,0.937095,4.819428,-0.183235,0.185741,-0.031958,-8.570641,188.495416,948.907413,-1259.905641,0
0.051041,-197.935524,85.306155,39.812121,3.685818,4.527620,1.776432,-5.874846,-4.090980,-1.517970,5.748026,-0.234377,0.190117,-0.035692,18.528118,188.344446,949.959111,-1260.264874,0
0.052083,-173.220216,38.710109,121.492993,5.257908,2.795084,3.740881,-5.990518,-2.344999,-3.519793,5.808510,-0.230724,0.197564,-0.024490,66.380727,188.419876,951.693924,-1261.125713,0
0.053125,-129.517561,-3.500570,189.127463,6.490698,0.505155,4.895739,-4.654688,-0.154252,-4.791391,4.726924,-0.201500,0.218207,-0.039427,108.476546,188.419920,952.598397,-1261.447198,0
0.054166,-74.245556,-62.914456,196.710796,6.615108,-2.118501,6.006942,-3.191991,2.573155,-5.844761,3.136567,-0.143052,0.173786,-0.043161,119.515106,188.437427,954.437576,-1262.257618,0
0.055208,-29.340597,-140.872529,165.725001,6.106158,-4.106657,6.161717,-1.363620,4.620547,-6.096562,1.471494,-0.135746,0.143802,-0.043161,106.271096,188.327366,955.272782,-1262.417944,0
0.056250,12.467860,-190.210941,104.073485,4.975158,-5.416709,4.915582,1.069234,5.826193,-4.837554,-0.855337,-0.084604,0.188027,-0.046895,73.901877,188.344882,955.593265,-1262.233116,0
0.057291,86.602443,-190.561288,56.739205,4.036428,-6.282977,3.244808,3.386414,6.855404,-3.297368,-3.196401,-0.040768,0.182540,-0.046895,46.554297,188.420376,956.427726,-1262.623020,0
0.058343,158.275704,-143.119578,11.719318,3.154248,-5.732684,0.903343,4.994635,6.267283,-0.926237,-4.736948,-0.000585,0.189987,-0.039427,13.404688,188.495667,957.326604,-1262.960569,0
0.059375,197.498070,-85.397018,-39.505114,2.192898,-4.419081,-1.565116,5.781954,5.010177,1.541419,-5.565927,0.021333,0.192600,-0.031958,-13.592281,188.344872,957.746043,-1263.862043,0
0.060417,173.089009,-38.486868,-121.419887,0.632118,-2.679445,-3.533533,5.901358,3.190681,3.530651,-5.640641,0.035945,0.201092,-0.031958,-60.619260,188.344952,958.956804,-1264.434121,0
0.061458,129.284272,3.542597,-189.226705,-0.634602,-0.378864,-4.688391,4.625229,1.010961,4.814839,-4.591077,-0.015197,0.174831,-0.024490,-105.452099,188.420296,959.525806,-1264.930638,0
0.062500,74.318515,63.053130,-196.736175,-0.792942,2.195087,-5.811500,3.117756,-1.650282,5.830439,-3.032740,-0.026156,0.183193,-0.061832,-115.359659,188.495707,960.368379,-1265.835154,0
0.063542,29.232076,141.603168,-165.688826,-0.193512,4.186793,-5.946432,1.270728,-3.671945,6.107421,-1.328531,-0.073645,0.177118,-0.020755,-103.665119,188.344923,960.676555,-1265.655447,0
0.064583,-12.485641,190.168402,-104.025000,0.948798,5.514597,-4.720140,-1.199439,-4.940079,4.848413,1.012532,-0.157664,0.166927,-0.020755,-71.001840,188.286236,960.111539,-1264.857313,0
0.065625,-87.119295,191.050308,-56.678409,1.864908,6.427019,-3.017617,-3.497963,-5.995019,3.278850,3.293112,-0.183235,0.173394,0.005384,-40.295191,188.404506,960.440690,-1264.880958,0
0.066667,-156.694193,144.792527,-12.274053,2.645298,5.940631,-0.743619,-5.009168,-5.443656,0.987455,4.790965,-0.234377,0.185087,-0.043161,-8.898631,188.495696,961.128198,-1264.750776,0
0.067708,-198.082977,85.970605,39.762879,3.685818,4.509869,1.720872,-5.886040,-4.160820,-1.501183,5.716006,-0.241683,0.191555,-0.005818,19.365058,188.344883,961.829919,-1264.689331,0
0.068757,-173.050078,38.673866,122.871781,5.291838,2.795084,3.740881,-5.983056,-2.352351,-3.511399,5.801394,-0.267254,0.202203,-0.031958,66.934917,188.345073,962.341872,-1264.546100,0
0.069791,-129.755754,-2.908606,189.582955,6.479388,0.540658,4.891770,-4.714390,-0.187334,-4.803981,4.716251,-0.197847,0.202464,-0.028224,110.252216,188.420318,962.499272,-1264.729122,0
0.070833,-74.903421,-62.527867,196.513826,6.660348,-2.093649,6.034722,-3.206916,2.492288,-5.798597,3.172145,-0.201500,0.181690,-0.031958,121.675316,188.495705,962.864693,-1263.752741,0
0.071875,-29.885037,-141.331604,165.921970,6.072228,-4.028550,6.173623,-1.408396,4.550708,-6.109152,1.496399,-0.150358,0.162093,-0.054364,108.103316,188.344970,963.411547,-1263.247958,0
0.072916,12.150270,-189.739786,104.528978,4.907298,-5.377656,4.955267,1.065502,5.807815,-4.833358,-0.833990,-0.073645,0.190248,-0.009553,73.958427,188.344932,963.211523,-1262.983841,0
0.073958,86.647813,-190.839148,57.207008,4.047738,-6.307829,3.272588,3.382683,6.903188,-3.272188,-3.167938,-0.048074,0.178816,-0.005818,46.610847,188.420376,963.342673,-1263.377647,0
0.075000,156.256739,-144.738419,12.814962,3.199488,-5.835642,1.002558,4.916276,6.329771,-1.039547,-4.676465,-0.018850,0.188092,-0.069301,14.151148,188.509714,964.045588,-1263.028421,0
0.076041,197.758948,-85.928578,-39.258902,2.158968,-4.422631,-1.553210,5.811805,5.035907,1.486862,-5.597947,0.003068,0.193122,-0.031958,-13.230361,188.327730,964.776283,-1263.221188,0
0.077083,173.009612,-39.296289,-121.370644,0.632118,-2.704297,-3.533533,5.923746,3.275223,3.522258,-5.711798,0.024986,0.198022,-0.028224,-61.501440,188.207020,966.060316,-1263.725106,0
0.078125,129.874082,2.962714,-189.128220,-0.634602,-0.460521,-4.736014,4.670006,1.014637,4.777069,-4.648002,-0.026156,0.201223,-0.013287,-103.766909,188.420280,966.439412,-1263.866836,0
0.079174,74.295830,64.382030,-196.576137,-0.804252,2.255442,-5.871029,3.151338,-1.653958,5.868209,-3.050529,-0.048074,0.182540,-0.017021,-115.291799,188.495559,967.281682,-1264.125013,0
0.080208,29.651748,141.397793,-165.996591,-0.227442,4.176143,-6.009930,1.352818,-3.679296,6.157781,-1.360552,-0.044421,0.189791,0.005384,-101.945999,188.344798,967.878948,-1264.628228,0
0.081250,-12.168051,190.494587,-104.148106,0.914868,5.532349,-4.787606,-1.132275,-4.954782,4.953330,0.973396,-0.095563,0.167123,-0.028224,-69.486300,188.269454,969.322009,-1264.960899,0
0.082292,-86.597539,191.014065,-56.653788,1.853598,6.466072,-3.077146,-3.550202,-6.042804,3.337603,3.303785,-0.172276,0.179469,-0.054364,-39.605281,188.420240,970.010159,-1265.421394,0
0.083333,-157.363400,144.587151,-12.988068,2.667918,5.937081,-0.791242,-5.053944,-5.469387,0.991652,4.883469,-0.241683,0.188419,-0.024490,-9.170071,188.495622,970.300164,-1266.746658,0
0.084375,-197.980894,86.308870,39.418182,3.674508,4.627028,1.677217,-5.927085,-4.201253,-1.446626,5.783605,-0.197847,0.193580,-0.017021,18.154888,188.420336,971.213282,-1267.185376,0
0.085428,-173.004708,39.012131,123.893561,5.235288,2.834137,3.792472,-6.068877,-2.359702,-3.553366,5.872551,-0.201500,0.185610,-0.017021,67.715307,188.283951,972.009358,-1268.341069,0
0.086458,-130.277509,-2.630745,189.189016,6.468078,0.601012,4.931456,-4.747972,-0.213064,-4.762014,4.744713,-0.208806,0.199067,-0.024490,108.487856,188.404703,972.289696,-1268.029628,0
0.087500,-75.379807,-62.479543,196.821592,6.615108,-2.054596,6.062502,-3.274081,2.459206,-5.861547,3.243302,-0.186888,0.201615,-0.013287,119.650826,188.480398,973.613360,-1268.610426,0
0.088541,-30.474847,-140.860449,165.971213,6.083538,-4.053402,6.225214,-1.419590,4.580114,-6.184693,1.528420,-0.154011,0.174701,-0.005818,106.361576,188.399652,974.223888,-1269.462292,0
0.089583,11.946105,-190.561288,104.590531,4.918608,-5.391857,5.014796,1.054308,5.840896,-4.934078,-0.823317,-0.084604,0.157063,-0.024490,74.071527,188.338895,975.632967,-1270.270255,0
0.090625,86.341566,-190.525045,57.687121,4.002498,-6.318480,3.324180,3.427459,6.892161,-3.335138,-3.185727,-0.029809,0.183650,-0.039427,46.904907,188.442006,975.897268,-1270.330530,0
0.091666,157.062056,-144.726338,13.171970,3.188178,-5.860494,1.030338,4.920007,6.344474,-1.056334,-4.680023,0.010374,0.191032,-0.017021,14.151148,188.427251,976.385882,-1270.535554,0
0.092708,197.543440,-86.423895,-39.111174,2.215518,-4.514939,-1.489713,5.811805,5.065313,1.440698,-5.576600,0.017680,0.195735,-0.028224,-13.275601,188.420327,976.772554,-1270.109808,0
0.093750,173.372572,-39.719120,-121.333712,0.643428,-2.736249,-3.497816,5.979716,3.289926,3.501274,-5.729588,0.024986,0.196781,0.016587,-60.438300,188.269489,977.093309,-1270.252512,0
0.094791,129.828712,2.588206,-189.103599,-0.589362,-0.464071,-4.739983,4.643886,1.058746,4.856806,-4.658676,0.010374,0.206449,-0.050629,-105.361619,188.420363,977.574226,-1270.951764,0
0.095842,74.363885,64.092088,-197.019319,-0.860802,2.209288,-5.922621,3.177458,-1.668661,5.922766,-3.103897,-0.055380,0.187112,-0.035692,-115.721579,188.435765,978.357135,-1271.795395,0
0.096877,30.264243,141.566925,-165.639584,-0.227442,4.197444,-6.045647,1.352818,-3.693999,6.212338,-1.417477,-0.084604,0.179861,-0.039427,-103.619879,188.420730,979.274332,-1272.157011,0
0.097916,-11.657639,190.494587,-104.394319,0.960108,5.546550,-4.855072,-1.080036,-4.936403,4.986904,0.934259,-0.139399,0.182866,0.001650,-71.103630,188.400613,979.709585,-1271.930717,0
0.098958,-86.790362,191.134874,-57.540152,1.797048,6.490924,-3.140644,-3.483038,-5.987667,3.434127,3.318017,-0.172276,0.178751,-0.009553,-40.634491,188.419980,980.287256,-1271.763367,0
0.100000,-157.295345,144.852931,-13.037311,2.611368,5.972583,-0.811085,-5.076333,-5.480414,1.062996,4.833660,-0.238030,0.189007,-0.039427,-9.283171,188.420417,981.060629,-1270.985321,0
0.101041,-198.287142,86.864592,39.122727,3.629268,4.651880,1.701029,-5.934548,-4.245362,-1.459217,5.758700,-0.216112,0.193318,-0.061832,18.923968,188.420311,981.287271,-1271.227223,0
0.102083,-173.549148,40.002765,121.246781,5.246598,2.890942,3.717069,-6.053952,-2.444244,-3.507203,5.893898,-0.248989,0.200308,-0.024490,65.883087,188.269445,981.440318,-1271.048732,0
0.103125,-130.288851,-2.183751,189.595266,6.434148,0.647166,4.891770,-4.759166,-0.268200,-4.799784,4.790965,-0.197847,0.207494,0.005384,110.252216,188.420305,982.445523,-1271.500405,0
0.104166,-75.890219,-62.141278,196.809281,6.581178,-2.033294,6.074408,-3.296469,2.462882,-5.899318,3.268207,-0.164970,0.194560,-0.061832,121.924136,188.420300,982.715793,-1272.111822,0
0.105208,-30.996602,-141.089986,166.106629,6.072228,-4.064053,6.256963,-1.464367,4.521302,-6.193086,1.567556,-0.154011,0.189725,-0.039427,108.148556,188.420278,983.277451,-1271.593424,0
0.106250,11.469720,-190.247184,104.479735,4.884678,-5.420259,5.030671,1.009532,5.837221,-4.955062,-0.848222,-0.091910,0.185153,-0.050629,73.845327,188.284672,983.032767,-1271.791286,0
0.107302,87.362391,-189.679382,57.010038,4.025118,-6.385935,3.260682,3.434922,6.932594,-3.314155,-3.221306,-0.026156,0.183781,-0.020755,46.271547,188.420292,983.251651,-1272.041837,0
0.108333,156.812521,-144.617610,13.541288,3.222108,-5.885346,1.042244,4.972246,6.399610,-1.081514,-4.676465,-0.022503,0.192142,-0.024490,14.445208,188.479958,983.792379,-1272.201072,0
0.109375,197.849688,-86.472219,-38.729546,2.158968,-4.536240,-1.485744,5.864044,5.116774,1.407125,-5.651315,0.046904,0.196846,0.005384,-12.936301,188.421882,984.842323,-1272.921130,0
0.110417,172.998269,-39.755363,-121.752273,0.575568,-2.785953,-3.521628,6.013299,3.304629,3.505471,-5.765166,0.017680,0.203052,-0.017021,-61.603230,188.269210,985.342097,-1273.125882,0
