1-Time,2-VGERA,3-VGERB,4-VGERC,5-VN,6-IGERAN,7-IGERBN,8-IGERCN,9-IGERAT,10-IGERBT,11-IGERCT,12-IN,13-IFD,14-IFAULT,15-VFAULT,16-Speed (rad/s),17-Active Power,18-Reactive Power,19-FAULT 
0.000000,-150.172255,179.706339,-3.508902,2.803638,0.934739,-4.978098,3.524475,-0.859996,4.986904,-3.424103,-0.048074,0.561751,-0.035692,-146.111548,188.269709,1046.580799,972.906242,0
0.001042,-166.335318,138.244677,72.041288,4.194768,2.787984,-4.863009,1.610282,-2.635383,4.923953,-1.648737,-0.132093,0.548556,-0.050629,-161.821138,188.420609,1047.002305,971.663290,0
0.002083,-188.475879,54.077018,124.841478,5.246598,4.435313,-4.374873,-0.382269,-4.351959,4.458120,0.343657,-0.132093,0.549928,-0.058098,-182.473198,188.420591,1047.428100,970.771000,0
0.003125,-160.301108,-18.045978,165.638826,6.026988,4.964304,-3.180329,-2.020341,-4.969485,3.350193,1.834395,-0.164970,0.552475,-0.046895,-150.850438,188.495895,1047.889327,971.275193,0
0.004167,-111.074656,-86.870889,182.652084,6.354978,5.092114,-1.084917,-4.016624,-4.987863,1.281224,3.812557,-0.216112,0.550711,-0.017021,-103.314509,188.269774,1047.953837,971.222550,0
0.005208,-34.410695,-138.818776,181.901137,6.354978,4.300402,0.752537,-4.811405,-4.333580,-0.569518,4.627304,-0.234377,0.567435,-0.061832,-26.632711,188.420410,1047.863026,971.847712,0
0.006250,40.313699,-174.904436,153.722160,5.846028,2.972598,2.641583,-5.188274,-2.980904,-2.525176,5.061362,-0.234377,0.564299,-0.065566,48.918087,188.420643,1049.077081,971.626285,0
0.007292,108.164537,-176.547439,89.596212,4.590618,0.973792,4.240922,-4.677076,-1.032756,-4.065363,4.577495,-0.245336,0.556395,-0.039427,112.095746,188.495971,1049.581042,972.067898,0
0.008333,149.814198,-179.712636,1.796970,2.961978,-0.872353,5.125917,-3.654681,0.893337,-4.980242,3.577740,-0.241683,0.550450,-0.058098,150.809875,188.269792,1050.153749,972.461759,0
0.009375,166.102029,-137.320744,-72.251326,1.559538,-2.672344,5.030671,-1.770339,2.661373,-5.030602,1.887762,-0.183235,0.552932,-0.043161,166.994485,188.495986,1050.539705,972.131901,0
0.010417,188.333330,-54.264529,-124.866856,0.552948,-4.365827,4.550472,0.248332,4.396327,-4.543786,-0.140210,-0.143052,0.549797,-0.035692,187.194144,188.420598,1051.641363,972.074695,0
0.011458,159.920366,16.879915,-166.255114,-0.261372,-4.859316,3.304337,1.901329,4.910932,-3.368712,-1.727010,-0.132093,0.558289,-0.058098,155.424355,188.495906,1052.420135,971.025205,0
0.012500,110.909422,87.335747,-182.418940,-0.566742,-4.948072,1.165270,3.897612,5.013853,-1.274562,-3.658921,-0.055380,0.546923,-0.039427,107.368166,188.269753,1052.446085,970.763117,0
0.013542,32.646168,139.259473,-182.098864,-0.566742,-4.142159,-0.668216,4.718513,4.260324,0.605556,-4.480783,-0.040768,0.563450,-0.046895,29.408338,188.496024,1052.604420,970.474413,0
0.014583,-42.611323,174.547793,-153.870644,-0.012552,-2.856959,-2.549325,5.087919,2.959108,2.510855,-4.929072,-0.055380,0.551757,-0.046895,-45.079321,188.420598,1054.016146,970.172280,0
0.015625,-108.499908,177.302239,-89.042993,1.220238,-0.822649,-4.152632,4.584184,0.930094,4.063631,-4.427416,-0.059033,0.560902,-0.080503,-107.024189,188.496035,1055.112458,969.707501,0
0.016667,-150.172255,179.754663,-2.782576,2.837568,1.034146,-5.013815,3.505818,-0.937187,5.037264,-3.384967,-0.080951,0.556721,-0.058098,-146.145478,188.269760,1056.219864,969.167472,0
0.017708,-167.140636,137.229881,71.819697,4.194768,2.827037,-4.898726,1.561774,-2.716250,4.928150,-1.630948,-0.106522,0.550058,-0.054364,-162.963448,188.495942,1057.081501,969.006130,0
0.018750,-189.031661,53.497135,124.706061,5.223978,4.488567,-4.347093,-0.438240,-4.362986,4.437137,0.397025,-0.146705,0.507924,-0.054364,-182.586298,188.420499,1057.532882,968.469923,0
0.019792,-159.586530,-18.686266,166.291288,6.072228,5.031760,-3.124769,-2.109894,-4.918024,3.270456,1.962477,-0.190541,0.521576,-0.031958,-150.330178,188.495906,1058.201405,966.833931,0
0.020833,-110.575586,-87.789037,182.381251,6.400218,5.102765,-1.025388,-4.035281,-5.028297,1.163716,3.908619,-0.216112,0.552932,-0.080503,-102.952589,188.269780,1059.923232,966.165886,0
0.021875,-33.299130,-139.483226,181.790341,6.377598,4.311053,0.831909,-4.841256,-4.263741,-0.640861,4.716251,-0.230724,0.556852,-0.024490,-25.750531,188.496009,1061.093145,965.557406,0
0.022917,41.402579,-174.372876,154.325379,5.823408,2.929995,2.713018,-5.192005,-2.933119,-2.525176,5.082709,-0.267254,0.567108,-0.061832,49.800267,188.420462,1061.296255,965.315402,0
0.023958,108.391387,-177.163565,88.500568,4.567998,0.920537,4.288545,-4.647225,-0.922484,-4.136707,4.552590,-0.216112,0.556852,-0.031958,112.084436,188.495924,1062.544141,964.367871,0
0.025000,149.825541,-179.640150,1.206061,2.973288,-0.989512,5.094168,-3.561397,0.985231,-5.005422,3.549277,-0.208806,0.551299,-0.061832,150.719395,188.269742,1063.527559,963.695565,0
0.026042,166.589757,-136.112653,-72.571402,1.559538,-2.771752,5.014796,-1.665861,2.738563,-4.976045,1.809490,-0.164970,0.550189,-0.046895,167.944525,188.496058,1063.952287,962.423047,0
0.027083,188.730318,-53.177247,-124.842235,0.541638,-4.376478,4.486975,0.341616,4.403678,-4.526999,-0.207809,-0.161317,0.553651,-0.061832,187.160214,188.495933,1064.310430,961.885701,0
0.028125,159.364584,17.496041,-166.636743,-0.227442,-4.940972,3.260682,1.990882,4.980771,-3.406482,-1.741241,-0.066339,0.553063,-0.058098,155.311255,188.496029,1064.863336,962.933334,0
0.029167,110.580489,87.770660,-182.394319,-0.555432,-4.958723,1.145427,3.949851,5.043259,-1.207415,-3.722962,-0.113828,0.562797,-0.046895,106.983626,188.345259,1066.022303,962.611623,0
0.030208,32.442003,139.694385,-181.938826,-0.578052,-4.135059,-0.660279,4.759558,4.252972,0.626540,-4.509246,-0.055380,0.556852,-0.076769,28.854148,188.496054,1066.429121,962.634010,0
0.031250,-43.393955,174.402822,-153.870644,-0.046482,-2.800154,-2.557262,5.080456,2.926027,2.519248,-4.932630,-0.037115,0.546465,-0.058098,-46.040671,188.495875,1066.465161,962.421158,0
0.032292,-109.112403,177.193511,-88.181250,1.208928,-0.783596,-4.156601,4.569259,0.966852,4.105598,-4.402511,-0.062686,0.562339,-0.069301,-107.453969,188.495946,1066.282974,962.823830,0
0.033333,-150.421790,179.633854,-2.068561,2.837568,1.016395,-5.021752,3.528206,-0.940863,5.037264,-3.427661,-0.069992,0.557375,-0.039427,-146.496088,188.420566,1066.173422,963.540065,0
0.034375,-167.038553,136.939939,72.213637,4.251318,2.851889,-4.882852,1.576700,-2.697871,4.995297,-1.620275,-0.077298,0.550319,-0.039427,-163.087858,188.495966,1066.374716,964.157700,0
0.035417,-189.167771,53.328002,124.927652,5.280528,4.467265,-4.343124,-0.456897,-4.374013,4.458120,0.372120,-0.117481,0.528958,-0.028224,-182.688088,188.495946,1066.372804,964.759193,0
0.036458,-159.336995,-19.157422,166.328220,6.049608,5.006908,-3.192235,-2.072580,-4.925376,3.299833,1.916225,-0.183235,0.535164,-0.046895,-150.115288,188.495946,1065.756749,965.506672,0
0.037500,-109.883693,-88.332678,182.602841,6.388908,5.074363,-1.033326,-4.035281,-4.995215,1.197290,3.851694,-0.234377,0.548425,-0.024490,-102.206129,188.495955,1064.475193,965.839621,0
0.038542,-32.811402,-139.604035,181.654925,6.343668,4.293302,0.808097,-4.874839,-4.278444,-0.640861,4.680672,-0.216112,0.560380,-0.065566,-25.286821,188.495904,1063.942965,965.976508,0
0.039583,41.844936,-174.505766,154.054546,5.823408,2.958397,2.657457,-5.210662,-2.977228,-2.550357,5.061362,-0.227071,0.565932,-0.046895,49.924677,188.495978,1063.793096,966.371020,0
0.040625,108.811059,-176.825300,88.426705,4.556688,0.927638,4.280608,-4.598717,-0.951890,-4.115723,4.570379,-0.227071,0.562993,-0.061832,112.593386,188.495975,1063.314616,966.904018,0
0.041667,150.154473,-179.531422,0.947538,2.973288,-0.950459,5.106074,-3.606173,0.889661,-5.030602,3.538603,-0.219765,0.551887,-0.065566,151.013455,188.571373,1062.583010,967.678595,0
0.042708,166.453647,-135.689822,-73.088447,1.570848,-2.722048,5.038608,-1.673323,2.690779,-4.976045,1.781027,-0.183235,0.547837,-0.073035,167.673085,188.495846,1061.935714,967.597719,0
0.043750,188.900455,-52.343665,-125.346970,0.530328,-4.408430,4.546503,0.244601,4.396327,-4.539589,-0.200694,-0.154011,0.553128,-0.043161,187.194144,188.495901,1061.659297,968.106201,0
0.044792,158.888199,18.184653,-166.944508,-0.261372,-4.916120,3.312274,1.957300,4.932986,-3.406482,-1.737683,-0.102869,0.555219,-0.054364,154.881475,188.495908,1060.913910,968.048529,0
0.045833,110.603174,88.145168,-182.308144,-0.566742,-4.955173,1.149396,3.934926,5.021204,-1.220005,-3.701615,-0.051727,0.561686,-0.035692,107.187206,188.646851,1060.406610,968.079918,0
0.046875,32.317236,139.996408,-181.704925,-0.566742,-4.099556,-0.692027,4.737170,4.293406,0.634933,-4.530593,-0.051727,0.532159,-0.061832,28.661878,188.495919,1060.724562,968.652399,0
0.047917,-43.949738,174.112881,-153.895266,-0.023862,-2.785953,-2.596948,5.106576,2.900296,2.540232,-4.893494,-0.029809,0.547184,-0.054364,-46.764511,188.495991,1060.530099,968.034041,0
0.048958,-109.429993,177.652586,-87.257955,1.276788,-0.808448,-4.200255,4.558064,0.930094,4.097205,-4.441647,-0.037115,0.559400,-0.054364,-107.804579,188.496006,1060.705769,968.402330,0
0.050000,-150.274337,179.476802,-1.600758,2.882808,1.016395,-5.017784,3.505818,-0.937187,5.024674,-3.427661,-0.080951,0.556460,-0.054364,-146.371678,188.646788,1060.380196,968.406367,0
0.051042,-167.367486,135.949305,72.139773,4.251318,2.858989,-4.855072,1.543118,-2.719926,4.991100,-1.613159,-0.084604,0.551430,-0.017021,-163.562878,188.495977,1060.375358,968.345733,0
0.052083,-189.179114,52.905171,125.075379,5.257908,4.495668,-4.347093,-0.475554,-4.425474,4.479104,0.372120,-0.179582,0.548686,-0.035692,-182.371408,188.495955,1060.925818,968.812523,0
0.053125,-158.815240,-19.338635,166.956061,6.049608,5.035310,-3.120801,-2.139745,-4.895970,3.295636,1.969593,-0.172276,0.519682,-0.031958,-149.662888,188.495919,1061.101702,968.488184,0
0.054167,-109.792953,-88.936723,182.208902,6.377598,5.095665,-0.985703,-4.039012,-4.969485,1.201487,3.873041,-0.230724,0.528828,-0.061832,-102.036479,188.646817,1060.998977,968.380426,0
0.055208,-31.972057,-140.099352,181.630304,6.354978,4.247148,0.859689,-4.886033,-4.249038,-0.657648,4.684230,-0.274560,0.552410,-0.054364,-24.596911,188.495942,1060.911027,968.233152,0
0.056250,42.786364,-174.046692,154.066857,5.834718,2.905143,2.693175,-5.143497,-2.925768,-2.575537,5.086267,-0.223418,0.565606,-0.020755,50.591967,188.515596,1061.292617,967.871882,0
0.057292,109.162677,-177.356860,87.761932,4.534068,0.920537,4.296483,-4.613643,-0.940863,-4.107330,4.538358,-0.259948,0.560184,-0.061832,112.514216,188.509124,1061.024937,967.714450,0
0.058333,150.086418,-179.253562,0.676705,2.950668,-0.907856,5.177508,-3.602442,0.941122,-5.018012,3.542161,-0.194194,0.552214,-0.061832,150.900355,188.722141,1061.243210,967.376225,0
0.059375,166.805264,-134.989129,-73.248485,1.548228,-2.732699,5.030671,-1.680786,2.720185,-4.988635,1.784585,-0.227071,0.545681,-0.046895,168.204655,188.571035,1061.481250,967.631255,0
0.060417,188.855085,-51.606730,-125.322349,0.552948,-4.372927,4.522692,0.293109,4.396327,-4.501819,-0.179347,-0.135746,0.548621,-0.035692,186.979254,188.495707,1060.951175,967.500802,0
0.061458,158.661349,18.740374,-166.993751,-0.295302,-4.916120,3.324180,1.972225,4.969744,-3.389695,-1.734126,-0.099216,0.550450,-0.054364,154.802305,188.495707,1061.106963,967.700699,0
0.062500,110.274242,88.398867,-182.295834,-0.589362,-4.980025,1.177176,3.867761,5.021204,-1.274562,-3.676710,-0.059033,0.555611,-0.087972,106.949696,188.721867,1060.394578,968.388311,0
0.063542,32.317236,140.334673,-181.421781,-0.600672,-4.177662,-0.680122,4.718513,4.275027,0.559393,-4.498573,-0.033462,0.556068,-0.061832,28.492228,188.571065,1059.250777,968.712500,0
0.064583,-44.187930,174.245771,-153.513637,-0.057792,-2.782403,-2.545356,5.110307,2.940730,2.515052,-4.900609,-0.026156,0.548948,-0.065566,-47.250841,188.571201,1058.799821,969.427340,0
0.065625,-109.917721,177.314320,-86.864015,1.276788,-0.861702,-4.120884,4.546870,0.985231,4.067828,-4.416742,-0.026156,0.560053,-0.035692,-108.143879,188.571096,1057.740609,969.801947,0
0.066667,-150.694010,179.355993,-1.034470,2.860188,0.952490,-5.017784,3.572983,-0.900429,5.016280,-3.463239,-0.069992,0.558942,-0.046895,-146.597878,188.721838,1057.186694,970.667715,0
0.067708,-167.038553,136.058033,72.693750,4.251318,2.809285,-4.898726,1.565506,-2.672141,4.974314,-1.687874,-0.099216,0.552867,-0.039427,-163.257508,188.571196,1056.131450,971.534527,0
0.068763,-189.224484,50.803093,126.183334,5.246598,4.467265,-4.327250,-0.438240,-4.374013,4.479104,0.400582,-0.135746,0.550711,-0.024490,-181.964248,188.571123,1055.207061,971.851140,0
0.069800,-158.146033,-20.413836,167.300758,6.060918,4.989156,-3.152549,-2.109894,-4.918024,3.299833,1.923341,-0.172276,0.538626,-0.009553,-148.939048,188.646527,1054.539204,972.608168,0
0.070834,-109.180458,-89.250827,182.270455,6.411528,5.099215,-1.069043,-4.016624,-5.017269,1.230864,3.833905,-0.227071,0.533139,-0.031958,-101.267399,188.721962,1054.018087,973.550575,0
0.071875,-31.575070,-140.063109,181.297917,6.366288,4.307503,0.764443,-4.818868,-4.271092,-0.586304,4.666441,-0.227071,0.566520,-0.005818,-24.268921,188.571111,1053.025918,974.301130,0
0.072917,43.081269,-174.372876,153.599053,5.857338,3.001000,2.669363,-5.206931,-3.032364,-2.487406,5.064920,-0.238030,0.566520,-0.050629,50.693757,188.571123,1051.457859,975.841896,0
0.073958,109.616377,-176.632005,88.118940,4.567998,0.980892,4.236954,-4.699464,-1.040108,-4.111526,4.616631,-0.238030,0.565540,-0.031958,113.249366,188.721918,1051.153159,977.597077,0
0.075000,150.562803,-178.975701,0.590530,2.916738,-0.868803,5.102105,-3.673338,0.871282,-5.030602,3.595529,-0.194194,0.556133,-0.073035,151.307515,188.721867,1050.565957,978.893377,0
0.076042,166.476332,-135.061615,-73.814773,1.502988,-2.693646,5.014796,-1.733025,2.665048,-5.005422,1.823721,-0.190541,0.545289,-0.054364,167.582605,188.571042,1049.813817,979.679315,0
0.077083,188.673605,-51.268464,-125.753220,0.519018,-4.273520,4.570315,0.252064,4.337515,-4.535392,-0.150884,-0.146705,0.510733,-0.058098,186.945324,188.571176,1048.902047,980.326050,0
0.078125,158.468526,19.211530,-167.018372,-0.227442,-4.901919,3.344022,1.882672,4.921959,-3.410679,-1.659411,-0.080951,0.552671,-0.050629,154.463005,188.721895,1047.466882,980.759218,0
0.079167,110.024707,88.845860,-182.074243,-0.510192,-4.997776,1.200987,3.875224,5.010177,-1.295546,-3.630458,-0.091910,0.556983,-0.046895,106.859216,188.721915,1046.565799,981.006891,0
0.080208,32.305893,140.564210,-181.187879,-0.566742,-4.184763,-0.616624,4.640155,4.289730,0.517426,-4.448763,-0.033462,0.560380,-0.031958,28.537468,188.646480,1045.600965,981.346830,0
0.081250,-44.324040,174.040395,-153.390531,-0.069102,-2.842757,-2.521544,5.084188,2.973811,2.443708,-4.897051,-0.037115,0.554827,-0.039427,-47.409181,188.571183,1044.599033,981.935970,0
0.082292,-110.292023,177.350563,-86.260796,1.276788,-0.858152,-4.112947,4.576721,0.988906,4.004877,-4.402511,-0.044421,0.556133,-0.050629,-108.641519,188.722012,1043.574959,981.962156,0
0.083333,-150.739380,178.969404,-0.295833,2.882808,0.945389,-4.926506,3.558057,-0.856320,4.928150,-3.481028,-0.073645,0.557832,-0.024490,-146.677048,188.797306,1041.956685,982.134544,0
0.084375,-167.208691,135.381502,73.063068,4.240008,2.798635,-4.906663,1.625208,-2.624356,4.936543,-1.684316,-0.113828,0.551691,-0.024490,-163.506328,188.571113,1040.908707,982.040355,0
0.085417,-188.952264,53.038061,125.740152,5.246598,4.421112,-4.382810,-0.363612,-4.359310,4.474907,0.308078,-0.139399,0.554304,-0.031958,-182.156518,188.571187,1040.537838,982.242710,0
0.086458,-158.486308,-19.326554,167.116099,6.038298,4.989156,-3.136675,-2.053923,-4.932727,3.316620,1.862857,-0.194194,0.557179,-0.035692,-149.402758,188.721965,1040.312512,982.542357,0
0.087500,-109.271198,-89.721982,181.962690,6.366288,5.056612,-1.076980,-3.997967,-5.002566,1.264437,3.791210,-0.234377,0.521642,0.001650,-101.154299,188.797306,1039.449777,982.853229,0
0.088542,-30.894520,-140.630911,181.162501,6.298428,4.275550,0.740631,-4.796480,-4.285795,-0.577911,4.637978,-0.208806,0.540782,-0.005818,-23.579011,188.646549,1038.885934,983.253905,0
0.089583,43.795846,-173.986287,153.512879,5.834718,2.965498,2.641583,-5.188274,-2.984580,-2.458029,5.064920,-0.256295,0.561686,-0.017021,51.293187,188.646583,1038.450677,982.898181,0
0.090625,109.990679,-176.740733,87.318750,4.511448,0.987993,4.221079,-4.673345,-0.995999,-4.086346,4.566821,-0.241683,0.562078,-0.028224,113.339846,188.721846,1037.961639,982.152740,0
0.091667,150.698913,-178.540788,0.652083,2.905428,-0.875903,5.014796,-3.677069,0.856579,-4.950865,3.581297,-0.190541,0.554827,-0.076769,151.420615,188.797286,1036.858417,981.645029,0
0.092708,166.669154,-134.650864,-73.851705,1.502988,-2.611989,5.034639,-1.725563,2.661373,-4.921488,1.841510,-0.161317,0.548686,-0.039427,167.933215,188.646574,1035.997756,981.180990,0
0.093750,188.503468,-50.942280,-125.876326,0.519018,-4.245117,4.522692,0.181168,4.300757,-4.526999,-0.136652,-0.128440,0.559857,-0.039427,186.639954,188.646520,1035.299819,981.184812,0
0.094792,158.128251,19.912222,-167.055304,-0.250062,-4.873517,3.367834,1.852821,4.888877,-3.414875,-1.648737,-0.084604,0.562535,-0.076769,154.327285,188.721976,1034.622064,981.235683,0
0.095833,109.400869,89.389501,-182.000379,-0.544122,-4.955173,1.280359,3.822985,5.028556,-1.337512,-3.591322,-0.040768,0.558681,-0.073035,106.576466,188.797222,1033.790067,982.064021,0
0.096875,32.328578,140.793747,-180.880114,-0.600672,-4.188313,-0.565033,4.658811,4.278703,0.462869,-4.423858,-0.044421,0.562993,-0.061832,28.627948,188.646489,1032.924413,982.291860,0
0.097917,-44.142560,174.233690,-152.935038,-0.035172,-2.871160,-2.430267,5.028217,2.966460,2.422724,-4.875704,-0.055380,0.554631,-0.039427,-47.522281,188.646485,1032.440102,982.123822,0
0.098958,-110.847806,176.794841,-86.051515,1.276788,-0.950459,-4.025638,4.561796,1.091827,3.983894,-4.409626,-0.004238,0.556460,-0.050629,-109.195709,188.721958,1031.324651,983.258374,0
0.100000,-150.977572,178.703624,0.159659,2.894118,0.870834,-4.950318,3.576714,-0.797508,4.928150,-3.491702,-0.069992,0.556787,-0.050629,-146.959798,188.797264,1030.595004,983.913262,0
0.101042,-166.562168,135.526473,73.604735,4.251318,2.699227,-4.866977,1.684910,-2.561868,4.932347,-1.751915,-0.099216,0.551953,-0.076769,-162.929518,188.721842,1029.453250,984.748303,0
0.102083,-188.600646,52.687715,126.478788,5.280528,4.360757,-4.402653,-0.262866,-4.304174,4.542054,0.208459,-0.143052,0.554435,-0.017021,-181.964248,188.646451,1028.088796,986.468290,0
0.103125,-158.656445,-19.217826,166.956061,6.060918,4.935902,-3.227952,-1.934519,-4.884942,3.459307,1.759680,-0.186888,0.553978,-0.020755,-149.278348,188.721858,1026.445524,988.298098,0
0.104167,-108.885553,-89.794467,182.110417,6.366288,5.067262,-1.180163,-3.878563,-5.035648,1.335781,3.691591,-0.230724,0.570766,-0.065566,-100.600109,188.797365,1024.995868,989.500554,0
0.105208,-30.724382,-140.655073,180.854735,6.343668,4.286201,0.637448,-4.747972,-4.285795,-0.485584,4.563263,-0.205153,0.546008,-0.069301,-23.273641,188.646476,1023.199583,989.909566,0
0.106250,44.034039,-174.372876,152.848107,5.823408,3.029403,2.558243,-5.158423,-3.050743,-2.407669,4.990205,-0.245336,0.564560,-0.050629,51.474147,188.721847,1021.632516,990.419788,0
0.107292,110.557804,-176.136688,87.712690,4.567998,1.090951,4.141708,-4.677076,-1.150380,-3.994019,4.623747,-0.212459,0.568872,-0.073035,114.074996,188.721904,1019.753972,992.440052,0
0.108333,151.095901,-178.214604,0.799811,2.939358,-0.748093,5.014796,-3.688263,0.749983,-4.929881,3.627549,-0.230724,0.557571,-0.065566,151.748605,188.797307,1018.479625,993.621309,0
0.109375,166.204112,-134.650864,-74.417993,1.514298,-2.562285,4.979079,-1.844966,2.558452,-4.959258,1.905552,-0.190541,0.549732,-0.061832,167.265925,188.646694,1017.195253,994.937672,0
0.110417,187.970370,-50.591934,-126.491856,0.496398,-4.227366,4.542535,0.117734,4.275027,-4.522802,-0.029917,-0.124787,0.532290,-0.069301,186.481614,188.721887,1015.795844,995.915593,0
