1-Time,2-VGERA,3-VGERB,4-VGERC,5-VN,6-IGERAN,7-IGERBN,8-IGERCN,9-IGERAT,10-IGERBT,11-IGERCT,12-IN,13-IFD,14-IFAULT,15-VFAULT,16-Speed (rad/s),17-Active Power,18-Reactive Power,19-FAULT 
0.000000,-77.192688,-60.652640,199.000790,4.119912,-2.126297,6.699090,-3.837955,2.410612,-6.515878,4.071268,-0.243995,0.200313,-0.059989,52.323903,188.419860,1112.732572,-1419.826199,0
0.001042,-34.433771,-140.965019,168.366426,3.511910,-4.327981,6.542204,-1.536713,4.546915,-6.558153,1.853261,-0.203887,0.204171,-0.048839,22.737026,188.419833,1109.221765,-1419.727848,0
0.002083,8.200847,-194.627970,104.740273,2.340943,-6.070981,5.238842,1.328485,6.157303,-5.218039,-1.072540,-0.127317,0.196110,-0.082290,-19.549241,188.269093,1105.855876,-1419.683748,0
0.003125,84.995140,-186.500423,60.216548,1.440199,-7.014035,3.303912,3.921168,7.230895,-3.450950,-3.729607,-0.083563,0.186946,-0.078573,-84.566066,188.193792,1103.852812,-1419.604032,0
0.004167,160.908038,-139.532128,19.241111,0.618270,-6.694791,0.998892,5.666024,6.842806,-1.083558,-5.538834,-0.006994,0.192114,-0.082290,-143.154387,188.419972,1100.191016,-1418.435570,0
0.005208,199.926680,-86.656093,-35.903175,-0.451364,-5.069214,-1.833104,6.551700,5.435530,1.676991,-6.519148,0.000299,0.198246,-0.078573,-161.043865,188.419858,1097.790574,-1417.723837,0
0.006250,174.162851,-41.461294,-122.022072,-2.038925,-3.271173,-4.077783,6.862064,3.560371,3.942924,-6.810592,0.022176,0.210648,-0.056273,-132.537787,188.269223,1093.766399,-1415.748586,0
0.007292,128.319053,-2.503095,-186.134292,-3.266189,-0.816295,-5.332873,5.548691,1.373290,5.329539,-5.652384,-0.021578,0.195627,-0.089723,-87.662105,188.269084,1091.225838,-1415.395263,0
0.008333,76.554096,60.203513,-198.492542,-3.502634,2.159647,-6.543712,3.924953,-1.477532,6.441368,-3.843156,-0.072625,0.181158,-0.089723,-51.916925,188.419885,1087.205433,-1413.632249,0
0.009375,34.326275,140.844753,-168.453610,-2.928410,4.320967,-6.459235,1.616141,-3.682748,6.547055,-1.731129,-0.145548,0.202449,-0.078573,-22.026073,188.419817,1083.965479,-1413.131430,0
0.010417,-7.958046,192.839912,-105.082642,-1.768702,6.012594,-5.043237,-1.180929,-5.206088,5.101255,1.202242,-0.171072,0.195559,-0.112023,20.778077,188.269207,1079.312703,-1412.660189,0
0.011458,-85.193036,186.943917,-59.720452,-0.879217,6.940970,-3.204853,-3.754686,-6.185378,3.418715,3.787393,-0.211179,0.170892,-0.089723,84.601520,188.269033,1077.071221,-1411.571406,0
0.012500,-159.422245,139.928642,-18.477678,-0.068547,6.574023,-0.839492,-5.499543,-5.808170,1.064005,5.577696,-0.251287,0.188806,-0.045123,142.795800,188.419961,1073.333592,-1409.832472,0
0.013542,-200.203676,86.899921,36.229148,1.012346,4.992480,1.904005,-6.354939,-4.390013,-1.654268,6.546655,-0.287749,0.194249,-0.071140,160.831636,188.387719,1070.090288,-1409.001286,0
0.014583,-174.066948,41.329282,120.974906,2.633685,3.132057,4.080298,-6.585820,-2.525735,-3.882154,6.777539,-0.280457,0.204033,-0.074856,132.438141,188.255060,1065.240995,-1406.967819,0
0.015625,-128.539549,2.265379,186.618237,3.849689,0.743231,5.335387,-5.314081,-0.374924,-5.167310,5.668536,-0.280457,0.205549,-0.082290,89.239950,188.268034,1062.808480,-1405.963131,0
0.016667,-76.232195,-59.689550,198.052960,4.119912,-2.188678,6.522090,-3.591934,2.465017,-6.291821,3.829028,-0.189302,0.203758,-0.112023,51.749729,188.419645,1058.062807,-1403.587106,0
0.017708,-32.942181,-141.246900,168.961858,3.579466,-4.320642,6.409454,-1.385315,4.604947,-6.389053,1.751066,-0.167425,0.166414,-0.074856,22.207885,188.420204,1055.980227,-1403.262475,0
0.018750,8.370346,-191.715208,105.833924,2.363462,-5.902185,5.037706,1.404184,6.055747,-4.977073,-1.129315,-0.127317,0.167034,-0.052556,-19.290300,188.269310,1051.799209,-1401.595559,0
0.019792,85.334138,-187.663179,60.034273,1.451458,-6.845239,3.183230,3.902243,7.078561,-3.264941,-3.695542,-0.054394,0.177989,-0.082290,-84.318383,188.194002,1049.421908,-1400.389152,0
0.020833,157.992657,-140.741864,18.293281,0.652048,-6.514987,0.882233,5.594110,6.683218,-0.944051,-5.463134,-0.028871,0.188048,-0.100873,-140.531198,188.420153,1045.906687,-1399.200934,0
0.021875,200.536876,-87.443008,-36.182664,-0.417586,-4.918766,-1.804945,6.476001,5.261434,1.693901,-6.405598,0.007591,0.195490,-0.067423,-162.394864,188.420211,1043.686815,-1398.218643,0
0.022917,174.298450,-41.672704,-120.345142,-1.993888,-3.076691,-3.989284,6.646323,3.389902,3.917559,-6.560783,-0.010640,0.205480,-0.082290,-132.380171,188.269451,1039.271203,-1396.270642,0
0.023958,129.234347,-1.821885,-186.231506,-3.243670,-0.684194,-5.264487,5.389724,1.293496,5.287264,-5.527479,-0.006994,0.196110,-0.056273,-88.326346,188.269453,1037.513871,-1395.973020,0
0.025000,76.825294,59.686733,-197.435347,-3.502634,2.163317,-6.431076,3.690286,-1.528310,6.306089,-3.631197,-0.065333,0.195145,-0.041406,-52.018250,188.420323,1033.614745,-1394.839467,0
0.026042,32.676486,140.656833,-169.109800,-2.984706,4.298950,-6.330508,1.574506,-3.675494,6.449823,-1.579729,-0.109087,0.199968,-0.100873,-21.035340,188.420103,1031.618739,-1394.432459,0
0.027083,-8.398743,190.655341,-105.605164,-1.757442,5.887831,-4.874282,-1.245273,-5.017484,4.974430,1.281727,-0.138256,0.166138,-0.059989,20.496619,188.269302,1028.636726,-1392.233772,0
0.028125,-84.978337,187.965733,-58.590346,-0.822920,6.808869,-3.080148,-3.716837,-6.072941,3.291891,3.764683,-0.229410,0.175646,-0.086006,85.243244,188.193910,1027.051238,-1391.077488,0
0.029167,-156.857162,140.950458,-17.092387,0.010268,6.390549,-0.759037,-5.374640,-5.601431,0.954091,5.494426,-0.251287,0.184810,-0.093440,140.296452,188.420133,1023.674708,-1389.225111,0
0.030208,-200.621773,87.451937,36.472182,1.034864,4.864049,1.891937,-6.230036,-4.259441,-1.620448,6.452030,-0.265872,0.193285,-0.067423,162.261443,188.344771,1022.293566,-1387.965622,0
0.031250,-174.372046,41.505457,119.771891,2.599907,2.985278,4.056161,-6.381433,-2.369774,-3.818741,6.584505,-0.284103,0.176198,-0.052556,133.147416,188.269279,1018.837856,-1386.135684,0
0.032292,-129.782541,1.701618,186.302294,3.827171,0.732222,5.262978,-5.143759,-0.287876,-5.133490,5.532276,-0.240349,0.207478,-0.056273,91.322740,188.193962,1016.730567,-1385.982734,0
0.033333,-77.509086,-59.348944,197.129433,4.029838,-2.214365,6.401408,-3.432967,2.490406,-6.156541,3.654918,-0.203887,0.194938,-0.089723,51.851053,188.420130,1013.404015,-1385.049195,0
0.034375,-32.524084,-141.000254,169.678807,3.556947,-4.272939,6.248545,-1.275552,4.528780,-6.211499,1.599666,-0.171072,0.195627,-0.056273,20.946952,188.420229,1010.536802,-1383.747710,0
0.035417,9.172641,-189.624596,106.745299,2.408499,-5.762745,4.780251,1.472313,5.932429,-4.769926,-1.152025,-0.120025,0.184259,-0.086006,-19.459175,188.269281,1007.467610,-1381.676700,0
0.036458,85.175939,-188.696740,58.563921,1.462718,-6.746164,3.038412,3.879533,6.977005,-3.155026,-3.695542,-0.043455,0.165036,-0.089723,-84.363416,188.193830,1006.126227,-1380.717636,0
0.037500,155.314575,-141.963345,16.215345,0.629529,-6.247115,0.741438,5.484347,6.476479,-0.800316,-5.345799,-0.032517,0.183294,-0.112023,-138.347083,188.420017,1002.648356,-1378.555048,0
0.038542,200.774175,-86.609113,-36.352787,-0.451364,-4.764648,-1.881377,6.347313,5.134489,1.782678,-6.292048,0.025822,0.189771,-0.093440,-162.349831,188.420061,1000.435166,-1377.570375,0
0.039583,174.592248,-40.674378,-118.473784,-1.993888,-2.922573,-3.973193,6.415442,3.284719,3.816099,-6.341253,0.029468,0.194249,-0.067423,-133.506003,188.269209,997.450705,-1374.588758,0
0.040625,129.754144,-1.316849,-186.243657,-3.243670,-0.658508,-5.135759,5.234541,1.177432,5.130847,-5.323089,-0.003348,0.218020,-0.074856,-88.968071,188.269324,994.306515,-1372.767378,0
0.041667,78.090885,58.852837,-196.499668,-3.446337,2.222028,-6.145463,3.501040,-1.524683,6.115852,-3.468442,-0.050748,0.189426,-0.100873,-52.074541,188.420036,990.815076,-1371.060815,0
0.042708,32.947684,140.985693,-169.693080,-2.973447,4.232899,-6.105236,1.407969,-3.552176,6.196174,-1.458610,-0.116379,0.183501,-0.100873,-20.055866,188.495483,987.755341,-1368.817478,0
0.043750,-8.952439,187.648618,-107.573735,-1.768702,5.715366,-4.632919,-1.355036,-4.923182,4.716554,1.338502,-0.149195,0.190391,-0.067423,20.766819,188.269274,983.502853,-1367.422896,0
0.044792,-85.419034,189.104999,-58.019218,-0.867958,6.665760,-2.927285,-3.663848,-5.913353,3.156611,3.741973,-0.251287,0.176956,-0.071140,84.702845,188.344619,981.684935,-1366.053983,0
0.045833,-153.625383,142.841404,-15.148120,-0.012251,6.141025,-0.646401,-5.234597,-5.380184,0.869541,5.327886,-0.243995,0.178954,-0.078573,137.245446,188.420191,978.447902,-1363.163857,0
0.046875,-201.028570,86.641531,36.824580,1.034864,4.691583,1.952277,-6.063498,-4.059956,-1.692316,6.342265,-0.309626,0.182192,-0.100873,162.374026,188.495488,975.705187,-1361.962663,0
0.047917,-174.824043,40.178271,117.365860,2.577388,2.754102,3.967661,-6.108918,-2.217440,-3.708827,6.270350,-0.276811,0.193147,-0.097156,133.248740,188.269377,971.408782,-1358.134102,0
0.048958,-129.432243,0.656312,186.533175,3.849689,0.596452,5.178501,-4.992361,-0.193574,-5.061622,5.377091,-0.269518,0.192803,-0.067423,90.726048,188.344683,969.288294,-1356.928374,0
0.050000,-77.271788,-58.456323,195.902114,4.063616,-2.210695,6.111772,-3.224795,2.512168,-5.928257,3.416464,-0.196595,0.174337,-0.071140,52.605361,188.420088,964.696523,-1354.406125,0
0.051042,-31.834788,-141.434820,170.055508,3.579466,-4.195880,6.099704,-1.199853,4.536034,-6.029717,1.527751,-0.160133,0.158559,-0.097156,20.530394,188.495560,962.751013,-1353.510565,0
0.052083,9.703737,-186.312503,109.212088,2.419758,-5.590280,4.587161,1.495023,5.765587,-4.579689,-1.235295,-0.116379,0.166896,-0.074856,-19.571758,188.270365,958.704726,-1351.876778,0
0.053125,85.514936,-189.742046,58.673286,1.417680,-6.533334,2.986117,3.803835,6.792028,-3.023974,-3.589562,-0.054394,0.169377,-0.100873,-84.284608,188.412900,956.947941,-1349.619193,0
0.054167,152.647793,-143.866037,14.915116,0.528196,-6.004930,0.608688,5.367014,6.247978,-0.728449,-5.217110,-0.039809,0.177920,-0.104590,-134.789452,188.420092,953.759043,-1347.262739,0
0.055208,201.079273,-86.973208,-36.632275,-0.417586,-4.603191,-1.913559,6.233765,4.974901,1.850318,-6.136863,-0.025225,0.181021,-0.078573,-163.835930,188.495653,951.117208,-1346.048388,0
0.056250,175.089444,-40.216323,-116.833309,-1.926332,-2.698735,-3.892738,6.173206,3.114250,3.778052,-6.076303,-0.017932,0.192045,-0.078573,-133.607328,188.269460,946.905029,-1343.751035,0
0.057292,129.867143,-0.130603,-185.988472,-3.288707,-0.544754,-5.115646,5.109638,1.112146,5.080117,-5.198185,-0.039809,0.191149,-0.093440,-89.373371,188.420242,945.280815,-1342.785208,0
0.058333,77.424190,58.547467,-195.612596,-3.446337,2.196342,-5.992599,3.304223,-1.535564,5.921387,-3.279192,-0.083563,0.205205,-0.074856,-52.333483,188.420171,941.845551,-1340.432702,0
0.059375,31.004097,140.739048,-169.948266,-2.995965,4.159510,-5.956395,1.313345,-3.552176,6.031302,-1.329920,-0.112733,0.175922,-0.078573,-19.256525,188.495627,939.513359,-1339.322990,0
0.060417,-9.969433,185.675456,-108.898267,-1.802480,5.557579,-4.447874,-1.320971,-4.796237,4.555909,1.353642,-0.167425,0.192114,-0.067423,20.946952,188.344825,937.090624,-1337.457605,0
0.061458,-85.249535,189.692250,-57.727577,-0.789143,6.526320,-2.838785,-3.637353,-5.742884,3.000194,3.719263,-0.229410,0.164967,-0.089723,85.322053,188.344744,934.564300,-1335.949485,0
0.062500,-152.201593,144.415236,-14.163834,0.066564,5.935535,-0.533765,-5.143759,-5.191580,0.784991,5.263541,-0.240349,0.175853,-0.074856,134.881198,188.413207,931.932032,-1334.722183,0
0.063542,-200.610473,87.545897,37.298495,1.034864,4.541135,1.940209,-6.006724,-3.925757,-1.726136,6.194650,-0.284103,0.181710,-0.078573,163.308467,188.495721,929.637864,-1333.358352,0
0.064583,-175.502039,40.753777,116.648911,2.498573,2.640348,3.859048,-5.915886,-2.090495,-3.679234,6.081100,-0.243995,0.178058,-0.108307,134.532189,188.344834,926.609363,-1332.116536,0
0.065625,-130.709135,-0.248053,185.706862,3.883467,0.548748,5.090001,-4.901523,-0.106526,-4.951708,5.271111,-0.251287,0.180263,-0.063706,92.279697,188.344867,924.667090,-1331.101943,0
0.066667,-77.622086,-58.503304,195.549716,4.063616,-2.192348,5.950863,-3.050688,2.519422,-5.746475,3.306699,-0.240349,0.189564,-0.097156,51.952378,188.420130,922.345918,-1329.393184,0
0.067708,-30.580496,-140.965019,170.274239,3.601985,-4.214227,5.938795,-1.086305,4.456240,-5.898665,1.399062,-0.160133,0.182536,-0.086006,18.605221,188.495595,920.210167,-1327.822721,0
0.068750,10.845030,-185.008807,109.819672,2.431017,-5.491204,4.382002,1.529087,5.707555,-4.389452,-1.242865,-0.130964,0.177162,-0.089723,-20.382357,188.420231,917.992662,-1326.402935,0
0.069792,85.187239,-190.200102,56.972052,1.428940,-6.445267,2.821185,3.777340,6.679591,-2.897149,-3.593347,-0.050748,0.157939,-0.089723,-84.340900,188.269431,916.245486,-1325.164782,0
0.070833,151.212702,-145.064028,13.116669,0.584492,-5.777423,0.564438,5.223186,6.117406,-0.652354,-5.095990,-0.039809,0.174613,-0.093440,-133.494745,188.420256,914.488943,-1323.287196,0
0.071875,200.469077,-87.349048,-37.288466,-0.417586,-4.482099,-1.901491,6.105077,4.804432,1.829180,-6.042238,0.000299,0.180676,-0.074856,-163.137914,188.495622,912.462201,-1321.691490,0
0.072917,175.756140,-40.709613,-116.055602,-1.948850,-2.559295,-3.824352,5.983959,3.012694,3.659682,-5.921119,-0.028871,0.182399,-0.089723,-134.496736,188.495557,910.243560,-1319.712554,0
0.073958,130.974536,0.632822,-185.551012,-3.243670,-0.453018,-5.011055,4.958241,0.988828,4.953293,-5.039215,-0.025225,0.189013,-0.074856,-90.150195,188.344771,907.482378,-1318.540774,0
0.075000,78.723681,58.476997,-195.211591,-3.457597,2.203681,-5.811577,3.141470,-1.560953,5.786108,-3.124007,-0.068979,0.187359,-0.063706,-52.018250,188.420215,904.614075,-1317.755508,0
0.076042,31.105796,140.633343,-170.033327,-2.973447,4.170518,-5.811577,1.230077,-3.461501,5.904477,-1.280715,-0.112733,0.182468,-0.071140,-17.860493,188.495691,903.159668,-1316.150899,0
0.077083,-11.009026,183.866725,-110.599501,-1.847517,5.421808,-4.278920,-1.385315,-4.643903,4.357217,1.372567,-0.178364,0.182054,-0.093440,21.622452,188.479079,900.290300,-1314.095930,0
0.078125,-84.842738,190.232520,-56.403045,-0.834180,6.379541,-2.758330,-3.580579,-5.601431,2.898734,3.719263,-0.222118,0.161109,-0.086006,84.815428,188.478985,898.558979,-1312.678190,0
0.079167,-150.393605,146.012557,-11.915775,0.044046,5.730044,-0.497560,-5.011286,-5.031992,0.717352,5.138636,-0.233057,0.173717,-0.086006,132.708341,188.413696,896.650346,-1310.542275,0
0.080208,-200.101976,86.735491,37.821017,1.034864,4.449398,1.871823,-5.855327,-3.766169,-1.696543,6.103810,-0.251287,0.177369,-0.100873,162.993234,188.488585,894.912238,-1308.554238,0
0.081250,-176.270434,39.638001,115.482351,2.577388,2.508247,3.814798,-5.673650,-2.017955,-3.569320,5.922130,-0.295042,0.190115,-0.078573,134.633514,188.487604,893.186435,-1306.107668,0
0.082292,-130.743035,-1.246379,185.488132,3.815911,0.471690,5.025637,-4.787974,-0.063002,-4.913660,5.081862,-0.262226,0.188117,-0.082290,92.324730,188.414788,891.055004,-1304.879419,0
0.083333,-78.661679,-58.515049,195.063649,4.018579,-2.185009,5.830182,-2.937140,2.479525,-5.649243,3.174224,-0.200241,0.185224,-0.067423,53.089469,188.415564,889.081560,-1303.745742,0
0.084375,-30.942094,-140.941529,170.274239,3.568207,-4.100474,5.798000,-1.067380,4.456240,-5.750703,1.364997,-0.200241,0.147397,-0.086006,18.537671,188.473278,887.376261,-1302.961084,0
0.085417,11.658624,-183.493701,111.934063,2.476055,-5.410475,4.273388,1.513947,5.540713,-4.296447,-1.254220,-0.105440,0.193836,-0.089723,-20.686332,188.474910,885.619052,-1301.280346,0
0.086458,85.119439,-190.329297,56.972052,1.383902,-6.313166,2.748776,3.750845,6.530884,-2.795690,-3.563067,-0.083563,0.164278,-0.041406,-84.363416,188.409899,883.747138,-1299.768627,0
0.087500,150.376508,-146.919739,11.852895,0.528196,-5.660000,0.500075,5.158842,5.994088,-0.593169,-5.024075,-0.006994,0.171581,-0.067423,-131.288113,188.485163,882.265920,-1298.821682,0
0.088542,199.824981,-87.043678,-37.725926,-0.462623,-4.394031,-1.909536,6.040733,4.710130,1.795361,-5.974109,0.011237,0.176542,-0.056273,-163.982288,188.495032,881.230123,-1297.326873,0
0.089583,176.739234,-39.417662,-115.387260,-1.903813,-2.540948,-3.695625,5.813637,2.987305,3.604725,-5.735654,-0.006994,0.187222,-0.082290,-135.183494,188.495157,879.894974,-1295.195390,0
0.090625,130.963236,2.112694,-184.834063,-3.209892,-0.500721,-4.934623,4.927961,1.028725,4.856061,-4.955945,-0.014286,0.173304,-0.115740,-90.532978,188.419876,879.539650,-1293.096340,0
0.091667,77.627588,58.688407,-195.162984,-3.435078,2.152308,-5.690895,3.118761,-1.481159,5.697330,-3.082372,-0.061686,0.170272,-0.074856,-53.020240,188.495247,879.293442,-1291.099820,0
0.092708,30.156602,140.187032,-170.142692,-3.007225,4.097129,-5.702963,1.241432,-3.338183,5.811473,-1.227725,-0.105440,0.143815,-0.059989,-18.040626,188.495256,878.292870,-1289.081997,0
0.093750,-11.935620,183.244239,-112.082005,-1.870035,5.344749,-4.226624,-1.339896,-4.549601,4.374127,1.334717,-0.127317,0.163589,-0.063706,21.915168,188.495255,878.581471,-1288.090219,0
0.094792,-84.967037,189.974130,-57.034932,-0.789143,6.313490,-2.718103,-3.485956,-5.539772,2.890280,3.670058,-0.225764,0.164347,-0.093440,85.040594,188.419867,878.202142,-1287.145851,0
0.095833,-150.393605,147.386723,-11.405405,0.077824,5.708027,-0.509629,-4.912877,-4.992095,0.704669,5.032657,-0.265872,0.174957,-0.108307,132.055358,188.495378,877.968600,-1286.163597,0
0.096875,-199.265782,87.628112,38.331387,1.068642,4.398025,1.944232,-5.787198,-3.737153,-1.700771,6.009185,-0.269518,0.178816,-0.093440,163.252176,188.495256,877.121081,-1285.215055,0
0.097917,-176.937129,39.837666,115.482351,2.532351,2.526594,3.758480,-5.601736,-2.010701,-3.531272,5.872926,-0.262226,0.182605,-0.071140,135.928222,188.495316,876.843351,-1284.704217,0
0.098958,-131.601829,-2.608801,184.491694,3.838430,0.512054,4.997478,-4.753910,-0.037613,-4.803746,5.017517,-0.236703,0.183983,-0.097156,93.191621,188.347077,875.968006,-1283.231070,0
0.100000,-77.814184,-58.785184,195.330986,4.018579,-2.129967,5.773864,-2.906860,2.486779,-5.594286,3.147729,-0.200241,0.186808,-0.059989,52.087478,188.495866,875.592134,-1282.544077,0
0.101042,-29.303605,-140.319044,170.347149,3.579466,-4.074787,5.713523,-1.071165,4.358311,-5.670380,1.330932,-0.171072,0.161798,-0.089723,16.972764,188.495841,874.943984,-1280.592517,0
0.102083,12.879016,-183.164841,112.359371,2.476055,-5.278374,4.253275,1.483668,5.522578,-4.279537,-1.205015,-0.083563,0.169652,-0.097156,-21.710840,188.495906,875.402348,-1279.853352,0
0.103125,84.565743,-190.352787,56.376620,1.451458,-6.254454,2.708549,3.694071,6.465598,-2.770325,-3.551712,-0.079917,0.165518,-0.078573,-84.228316,188.420410,874.710432,-1279.007485,0
0.104167,150.365208,-147.859340,11.439738,0.573233,-5.619635,0.544325,5.090714,5.939683,-0.618534,-4.910525,-0.032517,0.171650,-0.052556,-131.096722,188.495801,874.657564,-1277.517921,0
0.105208,198.887087,-87.971534,-38.151234,-0.507660,-4.361006,-1.885400,5.942325,4.662979,1.786906,-5.849204,0.014883,0.177851,-0.078573,-163.036589,188.420453,873.518601,-1276.099517,0
0.106250,177.405929,-40.275048,-115.508776,-1.926332,-2.493244,-3.671488,5.700089,2.961916,3.562450,-5.694019,-0.032517,0.193147,-0.074856,-135.487468,188.495758,873.015775,-1275.838583,0
0.107292,132.138428,2.605984,-184.080660,-3.243670,-0.475034,-4.858192,4.867402,1.021471,4.830696,-4.884030,-0.021578,0.196385,-0.086006,-91.253511,188.492312,872.131207,-1275.454342,0
0.108333,78.328184,58.946797,-195.114378,-3.435078,2.122952,-5.614463,3.035492,-1.448516,5.570506,-2.999103,-0.090856,0.189220,-0.086006,-51.590433,188.495682,870.734876,-1274.123762,0
0.109375,29.636806,139.740722,-170.009024,-2.950928,4.031078,-5.662736,1.214937,-3.309167,5.684648,-1.216370,-0.116379,0.183432,-0.067423,-16.250552,188.420356,869.566596,-1272.747971,0
