1-Time,2-VGERA,3-VGERB,4-VGERC,5-VN,6-IGERAN,7-IGERBN,8-IGERCN,9-IGERAT,10-IGERBT,11-IGERCT,12-IN,13-IFD,14-IFAULT,15-VFAULT,16-Speed (rad/s),17-Active Power,18-Reactive Power,19-FAULT 
0.000000,-66.796757,-94.607465,199.499009,4.176209,2.739424,3.464821,-5.563887,-2.525735,-3.374855,5.798849,-0.251287,0.475430,-0.097156,63.694811,188.421007,1586.621641,7.843929,0
0.001042,-5.494662,-155.505342,170.468665,3.601985,0.618468,4.917024,-4.806899,-0.509123,-4.693831,4.977505,-0.218472,0.456621,-0.033973,6.029672,188.269991,1586.596192,7.545242,0
0.002083,56.101231,-186.735324,121.460973,2.611166,-1.660274,5.584796,-3.221010,1.685212,-5.522418,3.452152,-0.196595,0.465026,-0.059989,-49.169893,188.345442,1586.329297,7.207342,0
0.003125,114.454045,-190.611177,42.098406,1.079901,-3.803246,5.552614,-1.101445,3.690943,-5.437869,1.351480,-0.174718,0.465026,-0.045123,-102.646935,188.420752,1586.542464,7.338593,0
0.004167,163.970318,-160.191601,-25.890198,-0.214918,-5.120587,4.595206,0.991626,5.112727,-4.681149,-0.779472,-0.109087,0.461513,-0.063706,-144.820619,188.420727,1587.285275,7.000354,0
0.005208,189.383850,-88.969860,-79.296795,-1.295811,-5.821456,2.772913,3.315578,5.671285,-2.825282,-3.111029,-0.058040,0.459652,-0.082290,-173.844580,188.269957,1588.259735,6.168903,0
0.006250,186.231171,-20.437726,-139.423266,-2.444260,-5.557254,0.970733,4.594887,5.569729,-1.037055,-4.575822,-0.025225,0.481907,-0.063706,-167.922702,188.345277,1588.831770,5.200594,0
0.007292,139.279981,42.245393,-182.099937,-3.176114,-4.515124,-1.318196,5.616820,4.521526,1.148555,-5.571276,0.003945,0.455725,-0.082290,-125.535109,188.420718,1589.234556,5.130190,0
0.008333,67.129958,94.675118,-199.501131,-3.558930,-2.651032,-3.506557,5.711443,2.751550,3.422943,-5.832441,-0.036163,0.485283,-0.059989,-62.387167,188.420781,1589.829113,5.079739,0
0.009375,5.036868,155.843131,-170.191299,-3.074780,-0.530077,-4.926578,4.980950,0.749446,4.805331,-5.007312,-0.047102,0.461444,-0.089723,-3.866395,188.270054,1590.858437,4.994641,0
0.010417,-56.660724,186.333177,-120.017047,-2.027666,1.744997,-5.586304,3.360997,-1.448516,5.570506,-3.444109,-0.061686,0.478255,-0.052556,50.049722,188.345422,1590.400171,4.905889,0
0.011458,-114.482442,190.890241,-40.265625,-0.485141,3.851274,-5.534009,1.283066,-3.479636,5.498639,-1.301802,-0.087210,0.460755,-0.071140,103.234047,188.420694,1591.779251,4.648138,0
0.012500,-163.275520,159.519319,26.775148,0.775900,5.201640,-4.536374,-0.817575,-4.865150,4.686961,0.825366,-0.145548,0.457999,-0.082290,145.531573,188.420643,1593.012138,3.603054,0
0.013542,-190.191942,88.321068,79.537706,1.856793,5.909848,-2.734194,-3.202085,-5.372930,2.852232,3.149352,-0.200241,0.461237,-0.071140,174.510500,188.269960,1594.716305,3.384195,0
0.014583,-185.841470,20.857730,140.198851,2.993982,5.623629,-0.891787,-4.398126,-5.289509,1.076688,4.580080,-0.207533,0.470607,-0.074856,168.768755,188.345420,1596.102345,2.763162,0
0.015625,-139.523077,-41.261629,183.106404,3.770874,4.541135,1.360937,-5.469263,-4.223171,-1.151197,5.602029,-0.262226,0.486937,-0.063706,127.225537,188.420819,1597.926956,1.761656,0
0.016667,-68.277047,-94.724915,199.000790,4.164950,2.680712,3.545276,-5.548747,-2.532989,-3.374855,5.764784,-0.225764,0.467507,-0.074856,63.109378,188.496248,1597.654526,1.398231,0
0.017708,-5.709361,-156.527158,170.371452,3.613244,0.563426,4.965297,-4.810684,-0.454718,-4.748788,4.996430,-0.240349,0.465509,-0.067423,4.487282,188.270485,1598.642702,0.671707,0
0.018750,56.734027,-186.112838,120.391626,2.566129,-1.741003,5.641114,-3.084752,1.750498,-5.530873,3.414302,-0.163779,0.469298,-0.074856,-50.261951,188.345314,1598.324247,0.081298,0
0.019792,114.838243,-191.398093,40.214896,1.068642,-3.854619,5.536523,-1.048456,3.821515,-5.425186,1.249285,-0.163779,0.454760,-0.074856,-102.793294,188.420784,1599.038805,-1.536399,0
0.020833,162.987224,-159.287235,-27.433460,-0.237437,-5.149943,4.559002,0.946207,5.130862,-4.609281,-0.843817,-0.101794,0.457930,-0.108307,-144.674261,188.496219,1598.147658,-2.300142,0
0.021875,190.479943,-86.844013,-79.442615,-1.318330,-5.843473,2.712572,3.326932,5.685793,-2.757642,-3.164019,-0.036163,0.430094,-0.082290,-174.700213,188.270009,1598.214375,-2.812897,0
0.022917,185.428876,-18.793424,-139.848575,-2.444260,-5.571932,0.958665,4.587317,5.529832,-1.041283,-4.507692,-0.036163,0.469781,-0.086006,-167.213427,188.345326,1596.914192,-1.666823,0
0.023958,138.579386,42.374588,-182.914099,-3.311226,-4.518793,-1.306128,5.616820,4.459867,1.186603,-5.529641,-0.006994,0.476946,-0.074856,-125.366234,188.420786,1596.114526,-2.165628,0
0.025000,67.423756,95.050958,-198.626211,-3.626486,-2.651032,-3.462307,5.684949,2.722534,3.444080,-5.836226,0.018530,0.482114,-0.067423,-63.794457,188.496176,1595.969770,-2.598228,0
0.026042,5.771363,156.583066,-170.033327,-3.063521,-0.519068,-4.910487,4.988520,0.720430,4.801103,-4.973247,0.000299,0.461650,-0.071140,-4.688253,188.269966,1595.751787,-3.191274,0
0.027083,-56.400826,185.957336,-120.490962,-2.128999,1.763344,-5.538032,3.304223,-1.470278,5.608553,-3.406259,-0.047102,0.462339,-0.074856,50.128530,188.420833,1595.935159,-4.098955,0
0.028125,-115.239537,190.796281,-40.836754,-0.586475,3.924664,-5.441486,1.211152,-3.432485,5.439454,-1.218532,-0.072625,0.458343,-0.059989,103.706897,188.420799,1594.807279,-4.785365,0
0.029167,-163.433719,159.166968,27.346276,0.775900,5.157606,-4.488101,-0.836499,-4.788983,4.648914,0.829151,-0.138256,0.457723,-0.045123,145.024948,188.496139,1593.637870,-4.403730,0
0.030208,-190.384040,87.299252,79.805043,1.845534,5.807103,-2.653740,-3.175591,-5.347541,2.780365,3.137997,-0.185656,0.455449,-0.067423,174.791958,188.269937,1592.765991,-4.587027,0
0.031250,-185.299074,19.095978,140.125941,2.971464,5.564918,-0.867651,-4.413266,-5.209715,1.030186,4.557370,-0.218472,0.458688,-0.100873,167.901864,188.496196,1591.293067,-4.607498,0
0.032292,-138.178385,-42.870695,182.924129,3.827171,4.530127,1.336801,-5.446554,-4.103480,-1.176562,5.530114,-0.273164,0.415281,-0.104590,125.255330,188.420795,1589.211029,-4.744991,0
0.033333,-65.824964,-95.382635,199.231672,4.086135,2.636679,3.525162,-5.510898,-2.409671,-3.383310,5.719364,-0.240349,0.453934,-0.071140,62.039837,188.496248,1587.931458,-5.237409,0
0.034375,-3.483276,-156.597628,169.970447,3.579466,0.534071,4.965297,-4.765265,-0.400313,-4.723423,4.920730,-0.222118,0.480253,-0.082290,3.901849,188.269991,1586.683745,-5.279533,0
0.035417,57.355522,-186.406463,119.869104,2.611166,-1.741003,5.596864,-3.141526,1.819411,-5.484371,3.406732,-0.200241,0.448284,-0.030256,-50.205659,188.496342,1586.413648,-5.638320,0
0.036458,115.391939,-190.928292,40.494385,1.113679,-3.832602,5.508364,-1.067380,3.745348,-5.420959,1.268210,-0.163779,0.460617,-0.071140,-103.592635,188.421105,1585.825649,-4.691311,0
0.037500,163.642620,-159.228510,-26.667905,-0.259955,-5.109579,4.534865,1.044615,5.069203,-4.571234,-0.847602,-0.112733,0.461306,-0.086006,-144.989494,188.496272,1584.969321,-4.842709,0
0.038542,190.638142,-87.865829,-79.746407,-1.329589,-5.847143,2.684413,3.345857,5.642269,-2.749187,-3.175374,-0.039809,0.456621,-0.071140,-174.801538,188.345426,1584.779957,-5.225156,0
0.039583,185.327177,-20.496451,-140.431855,-2.444260,-5.531568,0.866142,4.575962,5.493562,-0.965188,-4.549327,-0.036163,0.468196,-0.063706,-166.988261,188.496241,1584.859424,-7.006818,0
0.040625,138.522886,41.857808,-183.606745,-3.299967,-4.478429,-1.366469,5.616820,4.448986,1.250015,-5.593986,-0.043455,0.474672,-0.063706,-124.994710,188.420430,1585.854807,-8.130967,0
0.041667,67.039558,95.379819,-198.857093,-3.536412,-2.551956,-3.534716,5.688734,2.733415,3.439853,-5.756741,-0.028871,0.459928,-0.063706,-61.903059,188.495892,1585.029130,-7.881286,0
0.042708,4.189374,157.146827,-169.778142,-3.086040,-0.419992,-4.950714,4.920391,0.658771,4.826468,-4.916472,-0.014286,0.448490,-0.052556,-2.627979,188.345164,1584.692852,-8.373743,0
0.043750,-57.519518,186.039552,-118.935548,-2.027666,1.855081,-5.521941,3.213384,-1.531937,5.591643,-3.315419,-0.028871,0.459101,-0.045123,50.984162,188.495837,1583.879776,-9.025307,0
0.044792,-115.702834,191.313061,-38.953245,-0.496401,3.990714,-5.457577,1.188443,-3.552176,5.426771,-1.195822,-0.079917,0.449937,-0.052556,104.089680,188.420499,1584.714849,-9.604243,0
0.045833,-163.015621,158.380053,28.379168,0.832197,5.197971,-4.476033,-0.881918,-4.807118,4.568592,0.889710,-0.145548,0.457241,-0.056273,145.430248,188.495870,1583.931373,-10.495418,0
0.046875,-191.412334,85.784145,80.023773,1.868052,5.920857,-2.645694,-3.205870,-5.351168,2.797275,3.266687,-0.185656,0.447939,-0.048839,175.411166,188.345071,1584.936257,-11.116108,0
0.047917,-184.609779,19.248663,140.587705,3.050279,5.590604,-0.835469,-4.477609,-5.209715,0.975228,4.576295,-0.240349,0.461857,-0.045123,167.687955,188.495826,1584.924050,-11.773123,0
0.048958,-137.794188,-41.790154,184.418784,3.815911,4.530127,1.473573,-5.491973,-4.157885,-1.223065,5.598244,-0.258580,0.463442,-0.015389,126.471229,188.420555,1586.625863,-12.262926,0
0.050000,-67.429553,-95.523575,198.174477,4.108653,2.610992,3.609639,-5.507113,-2.409671,-3.446723,5.757214,-0.247641,0.476326,-0.059989,62.884212,188.495933,1587.417394,-13.206028,0
0.051042,-4.918366,-157.736894,169.970447,3.613244,0.449673,5.037706,-4.738770,-0.371297,-4.820656,4.973720,-0.222118,0.474810,-0.052556,3.834299,188.420472,1589.301851,-14.124627,0
0.052083,57.231223,-185.725253,119.856953,2.543610,-1.821731,5.584796,-3.039333,1.852054,-5.560466,3.338602,-0.192949,0.461857,-0.074856,-50.746059,188.496044,1589.548293,-15.328798,0
0.053125,116.115134,-191.715208,39.850346,1.001086,-3.931678,5.540546,-0.980327,3.879547,-5.433641,1.150875,-0.141902,0.455932,-0.067423,-103.761509,188.495826,1590.727587,-17.432390,0
0.054167,163.190623,-158.159714,-28.101802,-0.304993,-5.193977,4.498661,1.074894,5.130862,-4.609281,-0.893022,-0.065333,0.456276,-0.067423,-144.899428,188.495821,1591.436550,-17.355225,0
0.055208,191.881133,-85.528572,-80.025895,-1.273292,-5.847143,2.692458,3.395061,5.689420,-2.715367,-3.220794,-0.036163,0.460479,-0.045123,-175.747237,188.420479,1592.097794,-17.365199,0
0.056250,184.434483,-18.053489,-140.419703,-2.444260,-5.516890,0.862120,4.602457,5.446411,-0.960961,-4.553112,-0.021578,0.464406,-0.071140,-166.121370,188.495883,1591.178685,-16.682867,0
0.057292,136.974796,42.985329,-184.190025,-3.322485,-4.482099,-1.402673,5.673594,4.478002,1.254242,-5.597771,-0.021578,0.419897,-0.093440,-124.116560,188.496125,1591.368098,-15.736435,0
0.058333,65.412369,95.943579,-198.213054,-3.581449,-2.573973,-3.518625,5.643314,2.693518,3.473673,-5.775666,0.033114,0.479564,-0.037689,-62.116967,188.496223,1591.252528,-15.740784,0
0.059375,3.579178,157.510922,-169.838901,-3.063521,-0.449348,-5.011055,4.962026,0.647890,4.864516,-5.003527,-0.032517,0.462202,-0.030256,-3.202154,188.496035,1592.639048,-15.328851,0
0.060417,-57.451719,185.651966,-119.458070,-2.072703,1.807378,-5.594350,3.262589,-1.499294,5.574733,-3.413829,-0.043455,0.468471,-0.071140,50.747738,188.496217,1593.011458,-14.225798,0
0.061458,-116.527728,191.113396,-40.010440,-0.530179,3.932002,-5.441486,1.188443,-3.512279,5.460591,-1.207177,-0.072625,0.460755,-0.086006,104.832729,188.571473,1593.324970,-13.797733,0
0.062500,-163.727517,158.450523,27.783736,0.753382,5.168615,-4.488101,-0.847854,-4.799864,4.644686,0.848075,-0.156487,0.460824,-0.045123,145.531573,188.496212,1594.115649,-12.861321,0
0.063542,-191.751331,86.406631,80.315413,1.811756,5.902509,-2.609490,-3.239935,-5.387438,2.776137,3.262902,-0.171072,0.467645,-0.041406,175.895274,188.571518,1594.672880,-13.140605,0
0.064583,-184.496779,19.307388,141.025165,2.948945,5.557579,-0.775128,-4.443545,-5.224223,1.021731,4.591435,-0.203887,0.470263,-0.074856,167.057489,188.496192,1595.150498,-12.577124,0
0.065625,-137.342191,-42.858950,184.467391,3.894726,4.500771,1.441392,-5.476833,-4.197782,-1.223065,5.571749,-0.229410,0.474466,-0.033973,124.624864,188.496049,1595.175373,-11.707298,0
0.066667,-65.542465,-96.157806,198.684847,4.063616,2.592645,3.553321,-5.491973,-2.373401,-3.438268,5.719364,-0.218472,0.443805,-0.059989,61.217980,188.495817,1594.501928,-11.320796,0
0.067708,-2.692281,-157.678169,169.933992,3.523169,0.475359,5.073910,-4.761480,-0.371297,-4.807973,4.928300,-0.182010,0.485628,-0.048839,2.348200,188.648345,1593.808503,-10.731580,0
0.068750,58.101318,-186.030623,118.556724,2.566129,-1.777697,5.596864,-3.069613,1.884697,-5.535101,3.319677,-0.214826,0.414385,-0.056273,-51.050034,188.495922,1593.431751,-10.526674,0
0.069792,116.408932,-191.468563,38.671634,1.046123,-3.909661,5.536523,-1.059811,3.875920,-5.416731,1.211435,-0.160133,0.454898,-0.097156,-104.459526,188.571355,1593.296597,-9.336157,0
0.070833,163.394022,-157.960049,-28.271925,-0.203659,-5.171960,4.571070,1.071109,5.101846,-4.588144,-0.874097,-0.116379,0.464958,-0.108307,-145.237177,188.495937,1592.784453,-8.981066,0
0.071875,191.903733,-85.822197,-80.317535,-1.262033,-5.865490,2.668322,3.387491,5.700301,-2.749187,-3.209439,-0.047102,0.461857,-0.082290,-175.927370,188.646766,1593.167672,-8.530511,0
0.072917,184.377983,-19.838730,-141.221714,-2.466778,-5.542576,0.874188,4.659231,5.540713,-0.960961,-4.628812,-0.006994,0.465164,-0.045123,-166.188920,188.495910,1595.211373,-9.164526,0
0.073958,137.562392,42.010493,-184.919125,-3.311226,-4.515124,-1.410718,5.662239,4.481629,1.283835,-5.624266,-0.006994,0.471916,-0.067423,-124.634443,188.571319,1595.959288,-9.965799,0
0.075000,66.994359,96.178479,-198.188751,-3.626486,-2.548287,-3.554830,5.677379,2.693518,3.499038,-5.768096,-0.010640,0.478324,-0.059989,-61.801734,188.495921,1596.339430,-10.640408,0
0.076042,3.929475,158.215623,-169.705232,-3.041003,-0.357611,-5.035191,4.927961,0.618874,4.915245,-4.958107,-0.039809,0.476119,-0.030256,-2.087580,188.646656,1596.538868,-11.515569,0
0.077083,-57.948916,185.616731,-118.461633,-2.072703,1.866089,-5.566191,3.190675,-1.553699,5.595871,-3.322989,-0.068979,0.468747,-0.089723,51.389462,188.495872,1596.158543,-12.534308,0
0.078125,-117.024925,191.465746,-38.090476,-0.485141,4.005392,-5.493782,1.143023,-3.548549,5.469046,-1.176897,-0.120025,0.452418,-0.052556,105.102929,188.571257,1596.519677,-12.387452,0
0.079167,-163.106021,157.428707,29.229785,0.787160,5.297046,-4.480056,-0.908413,-4.839761,4.589729,0.954055,-0.167425,0.453451,-0.086006,145.610381,188.495917,1596.170744,-13.582282,0
0.080208,-192.644025,84.022394,80.534143,1.834274,5.913518,-2.589376,-3.311849,-5.394692,2.716953,3.334817,-0.203887,0.452349,-0.056273,176.255541,188.646793,1596.232830,-14.108054,0
0.081250,-183.570185,17.592617,141.146682,3.050279,5.586935,-0.759037,-4.481394,-5.180699,0.996366,4.644425,-0.236703,0.463924,-0.041406,166.776031,188.495998,1595.843284,-14.238945,0
0.082292,-136.065299,-42.952910,185.500283,3.939764,4.504440,1.493687,-5.552532,-4.147004,-1.320297,5.677729,-0.240349,0.454485,-0.067423,125.446722,188.571263,1596.921138,-15.674615,0
0.083333,-65.587665,-96.557136,197.955747,4.074875,2.592645,3.629753,-5.518467,-2.351639,-3.472087,5.791279,-0.214826,0.472468,-0.048839,61.961029,188.496212,1597.726400,-15.975228,0
0.084375,-3.404176,-158.711730,169.800323,3.613244,0.453342,5.049774,-4.780404,-0.335027,-4.879840,5.030495,-0.207533,0.471227,-0.056273,3.226349,188.722340,1599.774968,-16.271777,0
0.085417,58.010918,-185.231962,119.212914,2.577388,-1.873104,5.580773,-3.027978,1.819411,-5.543556,3.331032,-0.211179,0.468885,-0.063706,-51.151359,188.571558,1599.546962,-15.737221,0
0.086458,117.561525,-191.879638,39.352128,1.012346,-3.975712,5.560659,-0.953832,3.875920,-5.446324,1.135735,-0.156487,0.461650,-0.063706,-104.831050,188.578211,1600.094023,-16.490383,0
0.087500,163.439221,-157.361053,-28.454200,-0.259955,-5.164621,4.494638,1.139238,5.152624,-4.583916,-0.927087,-0.138256,0.461237,-0.041406,-145.372277,188.496101,1600.516312,-17.195079,0
0.088542,192.920727,-84.577226,-80.439052,-1.329589,-5.876498,2.616027,3.493470,5.707555,-2.723822,-3.254859,-0.065333,0.459790,-0.048839,-176.422737,188.722215,1600.864635,-17.478638,0
0.089583,183.564388,-17.983019,-141.100197,-2.511815,-5.505882,0.874188,4.636521,5.493562,-0.914458,-4.606102,-0.039809,0.455449,-0.067423,-165.243220,188.571518,1599.654412,-17.321793,0
0.090625,136.048202,43.220229,-185.393040,-3.367522,-4.449074,-1.487150,5.684949,4.438105,1.321882,-5.612911,-0.025225,0.463786,-0.052556,-123.215894,188.571542,1599.128277,-17.259800,0
0.091667,64.700474,96.789220,-197.884959,-3.558930,-2.515261,-3.562875,5.650884,2.646367,3.503265,-5.726461,0.011237,0.461719,-0.100873,-60.529543,188.496053,1598.090458,-16.943464,0
0.092708,1.850289,158.415288,-169.450047,-3.063521,-0.342933,-5.015078,4.954456,0.644263,4.898336,-4.927827,-0.003348,0.421137,-0.089723,-1.254464,188.722351,1597.544743,-15.911626,0
0.093750,-58.604311,185.534516,-118.012021,-1.948850,1.880767,-5.550100,3.171750,-1.615358,5.557823,-3.307849,-0.061686,0.468747,-0.082290,51.682179,188.572012,1597.189581,-16.307576,0
0.094792,-117.646421,191.454001,-38.467178,-0.496401,3.979706,-5.481714,1.139238,-3.595700,5.485956,-1.165542,-0.116379,0.457861,-0.059989,105.789687,188.571228,1597.880968,-16.758069,0
0.095833,-163.535418,157.487432,28.561443,0.843456,5.208979,-4.443851,-0.931123,-4.799864,4.589729,0.908635,-0.149195,0.459514,-0.056273,145.925614,188.495678,1597.506880,-16.211639,0
0.096875,-192.937824,85.384815,80.886542,1.811756,5.895170,-2.581331,-3.285354,-5.383811,2.742318,3.278042,-0.192949,0.459859,-0.037689,176.717132,188.721967,1597.622327,-15.662356,0
0.097927,-182.519292,18.027182,142.860067,3.016501,5.491528,-0.755015,-4.454900,-5.166191,0.954091,4.599005,-0.258580,0.471503,-0.056273,165.109799,188.646505,1597.148040,-15.554590,0
0.098968,-135.556803,-43.199555,186.812664,3.849689,4.471415,1.533914,-5.476833,-4.121615,-1.332979,5.639879,-0.276811,0.483423,-0.033973,123.442740,188.571089,1596.884997,-15.471989,0
0.100014,-64.242974,-98.224928,197.323860,4.029838,2.453205,3.597571,-5.438984,-2.308115,-3.467860,5.677729,-0.262226,0.472605,-0.071140,59.506714,188.495718,1595.217486,-15.117213,0
0.101044,-1.573588,-159.075825,169.532987,3.500651,0.409309,5.017592,-4.678211,-0.302384,-4.875613,4.916945,-0.265872,0.479289,-0.045123,0.974684,188.721826,1593.962810,-15.372966,0
0.102083,58.948812,-185.760488,117.791169,2.521092,-1.884112,5.548591,-2.997699,1.906459,-5.518191,3.312107,-0.229410,0.454209,-0.048839,-51.883150,188.646525,1593.875026,-15.689565,0
0.103125,117.618024,-191.726953,37.359254,1.001086,-3.975712,5.508364,-0.972757,3.886801,-5.404049,1.124380,-0.134610,0.454071,-0.067423,-105.146283,188.571136,1593.251849,-15.299784,0
0.104166,163.247123,-156.773803,-29.523547,-0.271215,-5.146273,4.482570,1.105174,5.130862,-4.490912,-0.919517,-0.105440,0.452969,-0.059989,-145.192144,188.571060,1591.980924,-15.276444,0
0.105208,192.977226,-83.367490,-80.864360,-1.329589,-5.872829,2.668322,3.436696,5.714809,-2.694230,-3.296494,-0.050748,0.445459,-0.059989,-176.659161,188.721916,1592.015507,-15.509083,0
0.106250,183.202791,-17.900804,-141.586264,-2.433000,-5.516890,0.813847,4.659231,5.486308,-0.918686,-4.609887,-0.039809,0.461926,-0.052556,-165.209445,188.646404,1591.999343,-15.348694,0
0.107291,135.946503,42.750428,-185.915562,-3.356263,-4.478429,-1.442900,5.722798,4.405462,1.351474,-5.639406,0.025822,0.461650,-0.030256,-124.049010,188.571120,1592.226039,-16.121472,0
0.108333,66.022565,97.047610,-197.605470,-3.502634,-2.471228,-3.562875,5.666024,2.639113,3.477900,-5.745386,0.018530,0.470125,-0.045123,-61.407692,188.571145,1592.401927,-16.255233,0
0.109375,3.217580,159.155223,-169.304227,-3.063521,-0.350272,-5.039214,4.924176,0.589858,4.927928,-4.954322,0.000299,0.462064,-0.052556,-1.558439,188.721875,1593.162763,-17.222931,0
0.110416,-58.502612,185.299616,-117.768987,-2.072703,1.979843,-5.598372,3.156610,-1.611731,5.600098,-3.251074,-0.061686,0.466749,-0.078573,51.817278,188.646625,1593.076785,-17.761952,0
