1-Time,2-VGERA,3-VGERB,4-VGERC,5-VN,6-IGERAN,7-IGERBN,8-IGERCN,9-IGERAT,10-IGERBT,11-IGERCT,12-IN,13-IFD,14-IFAULT,15-VFAULT,16-Speed (rad/s),17-Active Power,18-Reactive Power,19-FAULT 
0.000000,144.997743,-182.354435,9.386105,0.505677,-2.559239,6.635259,-3.515596,2.637890,-6.567203,3.304680,0.070083,0.622807,0.003860,89.577699,188.495671,1668.426987,855.737792,0
0.001042,174.162851,-136.372720,-61.579657,-0.856698,-4.614144,6.087449,-0.960086,4.810292,-6.023669,0.658230,-0.017425,0.612679,-0.003573,108.007577,188.495664,1670.451344,854.858316,0
0.002083,196.028206,-55.343896,-115.593838,-1.926332,-6.261737,4.893715,1.668880,6.329455,-4.798560,-1.816867,-0.035656,0.622187,0.000144,121.652666,188.571051,1671.007558,854.393472,0
0.003125,164.094617,12.013737,-164.881018,-2.894632,-6.558964,2.992733,3.756588,6.716841,-2.865995,-3.987337,-0.075764,0.625701,-0.025873,108.142677,188.495647,1671.727418,854.155792,0
0.004167,116.962629,80.076071,-184.882670,-3.288707,-6.067255,0.327271,5.732179,6.204124,-0.161267,-5.792254,-0.112226,0.608270,-0.014723,81.415414,188.570942,1671.267452,853.641088,0
0.005208,36.100363,132.153445,-188.066408,-3.390041,-4.625152,-2.088816,6.474475,4.726738,2.237185,-6.530975,-0.112226,0.606892,-0.003573,29.379437,188.495582,1671.168564,854.666886,0
0.006250,-40.332332,167.940491,-160.773753,-2.849594,-2.625290,-4.386346,6.447412,2.622699,4.441517,-6.363430,-0.148688,0.642995,0.000144,-19.436658,188.571076,1669.944079,854.940771,0
0.007292,-100.312336,183.596589,-87.547780,-1.430923,0.049756,-5.919396,5.245047,-0.111793,5.972902,-5.141113,-0.115872,0.626459,0.000144,-55.981180,188.495575,1669.865277,855.990108,0
0.008333,-145.037440,182.140208,-7.358898,0.077824,2.453261,-6.622554,3.451164,-2.512070,6.568201,-3.317157,-0.061180,0.618742,-0.025873,-87.785947,188.495557,1669.483121,857.510438,0
0.009375,-173.942649,135.430303,62.719792,1.462718,4.552199,-6.050216,0.891789,-4.684472,5.985843,-0.670707,-0.010133,0.612886,-0.018440,-108.535039,188.495636,1669.671375,858.334666,0
0.010417,-195.966204,54.178323,116.162845,2.509832,6.137412,-4.897363,-1.737177,-6.237815,4.812500,1.815814,0.033621,0.616675,-0.007290,-119.545681,188.570931,1669.713191,859.237325,0
0.011458,-163.603217,-12.486354,165.413570,3.523169,6.427300,-3.008645,-3.832618,-6.644191,2.828170,3.963437,0.099252,0.625701,0.000144,-106.666157,188.495732,1669.501049,859.442283,0
0.012500,-117.070125,-80.219827,184.977761,3.849689,6.008980,-0.302302,-5.773413,-6.131474,0.179520,5.756930,0.121129,0.641962,-0.007290,-81.852810,188.571138,1668.593675,859.283910,0
0.013542,-37.021454,-132.449887,187.845556,3.984801,4.548530,2.105608,-6.527308,-4.631301,-2.244814,6.564193,0.088314,0.635554,0.022444,-29.152592,188.495694,1668.446087,859.645321,0
0.014583,39.671139,-168.225188,160.844541,3.466873,2.493625,4.349993,-6.519576,-2.565240,-4.431891,6.331914,0.117483,0.634520,0.000144,19.145620,188.571078,1666.748277,859.826056,0
0.015625,100.826335,-183.646386,87.764388,2.003164,-0.177751,5.915748,-5.251486,0.211029,-6.019355,5.094366,0.102898,0.624461,-0.029590,58.076907,188.495624,1665.471337,860.432486,0
0.016667,145.653139,-181.743694,7.271714,0.449381,-2.544561,6.569849,-3.515596,2.603709,-6.511124,3.297064,0.062790,0.612679,0.011294,89.217433,188.646552,1663.971854,861.305798,0
0.017708,174.411449,-134.704929,-63.305195,-0.912995,-4.559102,6.030215,-0.898228,4.764717,-6.006414,0.662038,-0.021072,0.612197,-0.011006,108.187710,188.495774,1662.649691,862.338035,0
0.018750,195.937807,-52.748249,-116.274332,-1.960110,-6.136975,4.869186,1.676612,6.306667,-4.785619,-1.778789,-0.013779,0.587462,-0.003573,120.324184,188.495734,1661.303716,863.478775,0
0.019792,163.077624,14.268779,-165.391389,-2.917150,-6.529609,3.004997,3.795250,6.709245,-2.874623,-3.994953,-0.079410,0.613299,0.000144,106.307570,188.495685,1660.624441,864.493719,0
0.020833,115.866536,81.450237,-184.469513,-3.322485,-6.078263,0.286389,5.728313,6.207922,-0.221659,-5.792254,-0.155980,0.615022,-0.007290,80.987598,188.646406,1659.761133,865.826643,0
0.021875,35.185069,132.928616,-187.641100,-3.378782,-4.599466,-2.113344,6.459011,4.726738,2.232871,-6.542399,-0.123164,0.614884,-0.040740,29.492021,188.495729,1659.521810,866.450654,0
0.022917,-40.580930,167.705591,-160.591478,-2.883372,-2.595934,-4.386346,6.466743,2.607507,4.376810,-6.355815,-0.119518,0.636105,0.000144,-19.965799,188.495613,1658.594178,866.521478,0
0.023958,-100.877332,184.054645,-86.928045,-1.408404,0.101129,-5.935748,5.225716,-0.134581,6.007412,-5.080188,-0.101287,0.631213,-0.003573,-56.487804,188.495779,1658.771398,866.136181,0
0.025000,-145.896234,181.106647,-7.565477,0.111601,2.478947,-6.557144,3.435700,-2.512070,6.529377,-3.290502,-0.093995,0.625357,-0.003573,-89.069396,188.646402,1658.091117,865.866631,0
0.026042,-175.389040,134.255802,62.841309,1.462718,4.537521,-5.976629,0.806734,-4.688270,5.921137,-0.647860,0.004452,0.610819,0.003860,-108.039673,188.495711,1657.681777,865.677514,0
0.027083,-195.582006,53.450133,116.891945,2.487314,6.152089,-4.856481,-1.748776,-6.199836,4.752108,1.827237,0.029975,0.612472,0.011294,-119.827139,188.495575,1656.800444,865.264110,0
0.028125,-162.834822,-14.071930,166.081912,3.511910,6.434639,-2.963676,-3.851949,-6.621404,2.767777,3.990092,0.113837,0.605238,-0.022156,-106.654899,188.495569,1656.466212,865.071719,0
0.029167,-115.691534,-82.087284,184.297268,3.872208,5.990633,-0.290037,-5.757949,-6.104888,0.170893,5.741699,0.124775,0.578780,-0.022156,-82.528309,188.646522,1655.341442,865.588868,0
0.030208,-34.219072,-133.260293,187.845556,3.996060,4.471471,2.117873,-6.504111,-4.581928,-2.300892,6.514691,0.139360,0.610957,-0.007290,-28.488351,188.495685,1654.422828,865.546123,0
0.031250,42.337922,-167.438272,160.273413,3.433095,2.449591,4.292759,-6.480915,-2.504474,-4.423263,6.293836,0.132068,0.622394,-0.022156,21.093311,188.495624,1653.238498,865.443364,0
0.032292,101.267032,-184.726927,85.978092,1.969386,-0.188760,5.919836,-5.212825,0.222422,-6.006414,5.140060,0.113837,0.622876,-0.003573,57.457699,188.495609,1653.240461,866.629798,0
0.033333,145.800038,-180.710134,6.566917,0.438121,-2.551900,6.512615,-3.480800,2.577124,-6.506810,3.308488,0.084667,0.619294,-0.014723,90.647240,188.571263,1652.413581,867.219422,0
0.034375,175.315443,-133.953248,-63.293043,-0.912995,-4.537085,5.993422,-0.917559,4.722940,-6.002100,0.696308,0.008098,0.613093,-0.018440,108.593010,188.495568,1651.758608,868.048492,0
0.035417,195.282411,-53.194559,-117.039887,-1.993888,-6.147983,4.885538,1.607022,6.280082,-4.802874,-1.774981,-0.035656,0.612266,-0.018440,121.393725,188.570951,1651.453297,868.296060,0
0.036458,162.862925,13.634548,-166.156944,-2.939669,-6.489244,3.025438,3.702463,6.637085,-2.809916,-3.914988,-0.086703,0.624185,-0.018440,107.838702,188.495617,1650.130016,867.541830,0
0.037500,116.239433,81.708627,-183.983446,-3.277448,-6.037899,0.384505,5.647124,6.154751,-0.282052,-5.738944,-0.145042,0.628526,0.026161,80.931306,188.646417,1648.796758,867.670650,0
0.038542,35.535367,133.480631,-187.373763,-3.378782,-4.643500,-2.047934,6.393287,4.703951,2.194047,-6.511936,-0.104934,0.637139,-0.018440,28.850296,188.495683,1648.125255,867.697634,0
0.039583,-41.281526,167.670356,-160.008198,-2.860854,-2.617951,-4.251438,6.401019,2.641688,4.316418,-6.294889,-0.137749,0.635141,0.018727,-20.179707,188.495716,1646.484186,868.190674,0
0.040625,-101.645727,184.042900,-85.530602,-1.419663,0.079112,-5.858074,5.190921,-0.104198,5.899568,-5.091611,-0.093995,0.622876,-0.025873,-56.645421,188.495626,1644.645784,869.228428,0
0.041667,-146.077033,180.695572,-5.390327,0.145379,2.390880,-6.503999,3.427968,-2.451303,6.438788,-3.305733,-0.072118,0.613575,0.000144,-88.686613,188.646511,1642.543890,870.212518,0
0.042708,-174.711044,133.093046,64.615453,1.496495,4.409090,-5.968453,0.849261,-4.581928,5.856430,-0.697362,-0.053887,0.601517,-0.003573,-108.872789,188.495689,1639.901586,871.179959,0
0.043750,-195.220408,51.253816,117.633197,2.588648,6.027327,-4.872834,-1.652123,-6.112484,4.726225,1.674924,0.040913,0.611508,0.007577,-119.050314,188.571062,1636.896553,872.952612,0
0.044792,-162.122927,-15.634017,166.033305,3.523169,6.357580,-3.008645,-3.732099,-6.534052,2.828170,3.887280,0.066437,0.603791,0.000144,-106.091983,188.495749,1634.324552,874.229902,0
0.045833,-114.889239,-82.862454,184.224358,3.849689,5.950268,-0.392241,-5.645831,-6.074505,0.252854,5.669350,0.099252,0.626735,0.015011,-80.726977,188.721844,1632.499843,875.301512,0
0.046875,-34.298172,-133.835798,187.055697,3.928504,4.515505,2.003405,-6.419057,-4.619907,-2.188735,6.449957,0.113837,0.622601,-0.018440,-28.105568,188.495622,1630.670849,876.537207,0
0.047917,41.874625,-167.955053,159.799498,3.399317,2.526650,4.202820,-6.415190,-2.569038,-4.280909,6.255757,0.117483,0.632522,0.007577,19.731053,188.570997,1628.652825,877.579477,0
0.048958,102.295325,-183.869541,86.427704,1.913090,-0.082345,5.825809,-5.236022,0.169252,-5.941707,5.105789,0.073729,0.630455,-0.014723,58.774923,188.495575,1627.206609,877.873766,0
0.050000,146.760532,-180.287313,6.615524,0.438121,-2.445485,6.451293,-3.507863,2.485974,-6.480927,3.323719,0.073729,0.619638,-0.022156,90.196907,188.721695,1626.060951,878.887008,0
0.051042,175.179844,-133.565663,-64.155812,-0.946773,-4.441679,5.944365,-0.967818,4.616599,-5.881315,0.707732,0.011744,0.610130,-0.033307,108.671818,188.495542,1623.618374,878.606929,0
0.052083,195.169412,-52.102273,-117.878352,-1.982628,-6.114958,4.914155,1.537432,6.192730,-4.768364,-1.714055,-0.039302,0.615297,-0.003573,119.750009,188.495557,1621.719109,879.214469,0
0.053125,162.049331,15.725160,-166.254157,-2.950928,-6.346135,2.988645,3.636738,6.629489,-2.844426,-3.850255,-0.057533,0.569686,-0.018440,105.778428,188.495595,1620.265690,880.715332,0
0.054167,114.374946,83.658299,-183.728261,-3.254929,-5.982857,0.396769,5.550471,6.093984,-0.247542,-5.647556,-0.119518,0.583397,-0.025873,79.704149,188.721936,1618.100681,880.880386,0
0.055208,32.710385,134.161842,-186.924151,-3.367522,-4.511399,-2.035670,6.354625,4.692557,2.168164,-6.431971,-0.137749,0.577058,-0.011006,27.780755,188.495609,1616.023067,881.716206,0
0.056250,-43.552811,167.482436,-159.266946,-2.849594,-2.621620,-4.194204,6.339161,2.653082,4.281908,-6.294889,-0.115872,0.623221,-0.029590,-21.677065,188.495588,1614.920073,882.869966,0
0.057292,-102.775719,184.195585,-84.303283,-1.363367,0.016731,-5.825369,5.183189,-0.073814,5.925451,-5.095419,-0.093995,0.623152,-0.018440,-57.624895,188.495620,1614.710708,884.024211,0
0.058333,-146.574230,179.908656,-5.390327,0.156639,2.346846,-6.434500,3.474361,-2.409526,6.391337,-3.317157,-0.072118,0.618536,-0.014723,-89.879995,188.721915,1613.580056,884.377364,0
0.059375,-175.592438,132.623246,64.615453,1.485236,4.401751,-5.956189,0.949781,-4.566737,5.921137,-0.727824,-0.046595,0.613230,0.015011,-108.242323,188.571145,1613.876584,885.646468,0
0.060417,-194.836211,52.075966,118.568876,2.554870,6.005311,-4.872834,-1.613461,-6.089697,4.743480,1.659692,0.033621,0.611646,0.000144,-119.410581,188.495618,1613.757488,886.010514,0
0.061458,-161.976028,-14.882336,167.005439,3.511910,6.324555,-3.024998,-3.689571,-6.511264,2.815229,3.841586,0.070083,0.631213,0.007577,-106.215824,188.495761,1613.360361,886.002836,0
0.062500,-115.420336,-83.508430,183.519561,3.860949,5.928252,-0.392241,-5.599438,-6.047920,0.257168,5.635079,0.099252,0.625770,-0.014723,-82.111751,188.721835,1612.693211,885.857329,0
0.063542,-33.891375,-134.716674,186.861270,3.905986,4.519174,1.970700,-6.388128,-4.597120,-2.188735,6.396648,0.164883,0.636794,0.003860,-27.790335,188.495649,1611.951943,885.839502,0
0.064583,43.547014,-167.426527,159.119004,3.399317,2.526650,4.186468,-6.368797,-2.542453,-4.280909,6.191024,0.110191,0.621567,0.003860,22.196626,188.495562,1610.744414,885.578465,0
0.065625,103.086320,-184.656457,84.118886,1.935608,-0.067667,5.768575,-5.216691,0.131273,-5.920138,5.109597,0.106545,0.625426,0.000144,58.639823,188.495626,1609.816874,887.010480,0
0.066667,146.636232,-179.747043,4.367465,0.415603,-2.401452,6.430852,-3.546525,2.432803,-6.424848,3.338951,0.044560,0.612404,0.018727,91.390290,188.646292,1608.034712,887.996150,0
0.067708,175.473642,-132.085792,-65.553254,-0.901736,-4.382967,5.944365,-0.998747,4.559631,-5.933080,0.761042,0.011744,0.607305,-0.022156,108.581751,188.495691,1607.035839,890.041834,0
0.068750,194.627015,-50.634147,-118.558846,-1.960110,-5.971849,4.910067,1.456243,6.109176,-4.794247,-1.592205,-0.032010,0.583466,-0.011006,121.078492,188.571073,1604.646031,891.834338,0
0.069792,161.812032,16.347646,-166.703769,-2.883372,-6.404847,3.009085,3.574880,6.595308,-2.943643,-3.777906,-0.090349,0.612679,-0.022156,107.320819,188.495611,1603.375676,893.533532,0
0.070833,114.284546,84.104609,-183.327256,-3.232411,-5.993866,0.458091,5.500211,6.131963,-0.394210,-5.575207,-0.123164,0.613437,-0.007290,80.008123,188.721934,1601.840973,895.622413,0
0.071875,33.648279,134.713857,-186.571752,-3.322485,-4.636161,-1.921202,6.257972,4.730536,2.081889,-6.348199,-0.101287,0.636312,-0.011006,28.366188,188.495588,1600.438061,896.339078,0
0.072917,-42.953915,167.658611,-159.072519,-2.804557,-2.672993,-4.141058,6.296634,2.691061,4.182691,-6.195885,-0.130457,0.632798,0.000144,-20.697590,188.495626,1598.431734,896.237035,0
0.073958,-103.544114,183.690550,-84.619227,-1.340848,-0.078675,-5.735430,5.187055,0.032527,5.796038,-5.144921,-0.112226,0.625701,-0.003573,-57.714962,188.495584,1596.428126,897.885990,0
0.075000,-147.353925,179.333151,-4.721986,0.145379,2.258779,-6.381355,3.516889,-2.299387,6.339572,-3.362851,-0.072118,0.616124,0.003860,-89.666087,188.721806,1594.610716,899.425048,0
0.076042,-175.253440,132.094720,65.964289,1.485236,4.273319,-5.898955,0.984576,-4.449002,5.834862,-0.784942,-0.046595,0.606547,-0.018440,-109.041664,188.495535,1591.998002,900.125148,0
0.077083,-194.711912,50.490390,119.249369,2.566129,5.891557,-4.844217,-1.478147,-5.979558,4.752108,1.564496,0.019036,0.608683,0.003860,-118.667531,188.571085,1589.558730,901.518793,0
0.078125,-161.286733,-17.360533,166.665192,3.511910,6.298868,-3.082232,-3.577454,-6.420115,2.905818,3.734966,0.084667,0.598624,-0.022156,-105.607875,188.495649,1586.659357,903.345121,0
0.079167,-113.126451,-85.140986,183.616774,3.838430,5.920913,-0.478091,-5.514383,-5.998547,0.360698,5.513228,0.117483,0.601517,0.011294,-79.511078,188.721971,1583.472360,905.080177,0
0.080208,-31.597490,-135.139494,186.302294,3.939764,4.508166,1.893025,-6.279876,-4.612312,-2.024812,6.301452,0.132068,0.630938,0.011294,-26.484369,188.571185,1580.159375,906.948535,0
0.081250,44.778706,-167.767132,158.730150,3.421836,2.574353,4.051559,-6.337868,-2.641199,-4.155810,6.198640,0.117483,0.626666,-0.025873,21.397285,188.495725,1578.376682,909.230273,0
0.082292,104.374512,-183.540681,84.179645,1.924349,0.013061,5.666372,-5.270817,-0.001654,-5.790726,5.086750,0.077375,0.627906,-0.014723,60.125922,188.495613,1575.503877,910.523397,0
0.083333,147.664526,-179.101067,4.549740,0.404343,-2.287698,6.394059,-3.616115,2.296079,-6.386025,3.392260,0.040913,0.618536,-0.029590,91.097573,188.721815,1573.748158,912.184032,0
0.084375,175.394542,-132.109282,-65.978563,-0.946773,-4.324255,5.932100,-1.118597,4.491268,-5.920138,0.860046,0.015390,0.616469,-0.018440,108.818176,188.571174,1572.450658,913.505223,0
0.085417,194.468816,-51.432807,-119.786165,-2.016406,-5.957171,4.926420,1.363456,6.037016,-4.802874,-1.512240,-0.035656,0.616606,-0.040740,119.299676,188.495651,1571.321076,914.410101,0
0.086458,161.280936,16.324156,-167.359959,-2.984706,-6.390169,3.115377,3.447298,6.545935,-2.947957,-3.705557,-0.086703,0.624943,-0.033307,105.339354,188.495589,1570.000788,914.730138,0
0.087500,114.216747,85.008975,-183.072071,-3.221151,-5.997535,0.503060,5.453818,6.109176,-0.407151,-5.491435,-0.101287,0.618191,-0.011006,79.265074,188.721920,1568.645788,915.034518,0
0.088542,32.382687,135.536008,-186.000624,-3.311226,-4.610474,-1.880321,6.215445,4.688759,2.004241,-6.272042,-0.152334,0.613024,-0.018440,26.958898,188.571125,1566.508707,915.498078,0
0.089583,-44.954001,167.423711,-158.331267,-2.770779,-2.625290,-4.063384,6.269571,2.717646,4.122298,-6.203501,-0.112226,0.619845,-0.007290,-23.061839,188.495660,1565.179705,916.839936,0
0.090625,-104.674107,183.878470,-82.310409,-1.318330,-0.045650,-5.710901,5.148394,0.043921,5.765842,-5.099227,-0.126811,0.622876,-0.029590,-58.919603,188.570955,1563.826940,917.481370,0
0.091667,-147.263525,178.734155,-2.850628,0.179157,2.189059,-6.340473,3.478227,-2.242418,6.326630,-3.400929,-0.057533,0.616882,-0.048173,-90.589270,188.646364,1562.533551,918.836493,0
0.092708,-175.468139,130.755789,66.924271,1.530273,4.273319,-5.898955,0.976843,-4.437608,5.860744,-0.800173,-0.017425,0.605720,0.000144,-108.107223,188.570944,1562.044194,919.873697,0
0.093750,-194.146916,49.633004,120.124289,2.633685,5.847523,-4.897363,-1.443352,-5.933983,4.760735,1.534034,0.026329,0.608890,0.000144,-118.858923,188.495560,1560.927098,920.613274,0
0.094792,-160.789536,-17.372278,167.588719,3.556947,6.258504,-3.074055,-3.542658,-6.439104,2.927386,3.727351,0.084667,0.613850,0.003860,-105.596616,188.571062,1561.031870,921.323689,0
0.095833,-113.612348,-85.763472,182.802612,3.838430,5.880548,-0.563942,-5.506651,-6.013739,0.395208,5.471342,0.128422,0.623703,0.003860,-81.481285,188.646478,1560.344576,921.875717,0
0.096875,-32.354585,-136.149565,185.743317,3.905986,4.541191,1.831703,-6.279876,-4.631301,-1.998929,6.263373,0.099252,0.634107,-0.033307,-27.418810,188.571085,1559.861026,922.284419,0
0.097917,44.575307,-167.485252,158.316994,3.444354,2.647743,4.022942,-6.330136,-2.644996,-4.095417,6.171985,0.099252,0.633694,-0.044457,22.489343,188.495727,1558.745913,922.226153,0
0.098958,104.871708,-183.975246,83.353331,1.913090,0.064434,5.637755,-5.259219,-0.001654,-5.743274,5.082942,0.099252,0.629697,0.000144,59.664331,188.570997,1558.058589,922.623664,0
0.100000,147.935724,-178.314151,3.601910,0.404343,-2.239995,6.312296,-3.592918,2.284685,-6.286808,3.418915,0.055498,0.617778,0.000144,92.212147,188.571078,1556.465531,922.910136,0
0.101042,175.699640,-130.981761,-66.938545,-0.969291,-4.265544,5.878954,-1.072204,4.445693,-5.868373,0.821967,0.015390,0.608132,-0.007290,108.536718,188.571118,1555.291104,922.742864,0
0.102083,193.949020,-49.201256,-120.187170,-1.982628,-5.839748,4.914155,1.344125,5.999037,-4.846012,-1.439891,-0.032010,0.590287,-0.040740,120.594384,188.495602,1553.622483,924.434415,0
0.103125,160.659440,18.708393,-167.153381,-2.962187,-6.291093,3.131729,3.373842,6.458583,-3.025604,-3.598937,-0.101287,0.614264,-0.018440,106.634061,188.571136,1550.834879,926.108765,0
0.104167,112.273160,86.700256,-182.622459,-3.266189,-5.927815,0.584823,5.372629,6.101580,-0.437348,-5.476203,-0.108580,0.581467,0.007577,78.735933,188.646482,1549.511745,927.220738,0
0.105208,30.789398,136.088024,-185.781894,-3.299967,-4.650839,-1.757677,6.211579,4.757122,1.930908,-6.317736,-0.108580,0.628664,-0.018440,26.846314,188.571096,1549.063408,929.385213,0
0.106250,-45.857995,167.529416,-157.796594,-2.770779,-2.753721,-3.969356,6.261838,2.789807,4.040337,-6.184462,-0.112226,0.629766,-0.033307,-22.048589,188.495683,1547.497602,930.791939,0
0.107292,-105.657200,183.467394,-82.626353,-1.284552,-0.196099,-5.645491,5.194787,0.192039,5.692508,-5.163960,-0.104934,0.630662,-0.003573,-58.863311,188.495647,1545.971668,933.134618,0
0.108333,-148.269219,178.158650,-3.336695,0.201676,2.104661,-6.311856,3.567148,-2.105694,6.305062,-3.446623,-0.075764,0.625081,-0.014723,-90.724370,188.646547,1544.465548,934.668842,0
0.109375,-175.513339,131.061159,67.179456,1.541533,4.137549,-5.931660,1.038701,-4.331267,5.860744,-0.910601,-0.010133,0.612610,0.003860,-109.311864,188.571120,1542.925876,936.246632,0
0.110417,-193.920917,50.408175,120.950603,2.566129,5.810828,-4.897363,-1.354431,-5.865620,4.799559,1.431222,0.011744,0.616469,-0.040740,-118.262232,188.495595,1541.695065,937.530787,0
