1-Time,2-VGERA,3-VGERB,4-VGERC,5-VN,6-IGERAN,7-IGERBN,8-IGERCN,9-IGERAT,10-IGERBT,11-IGERCT,12-IN,13-IFD,14-IFAULT,15-VFAULT,16-Speed (rad/s),17-Active Power,18-Reactive Power,19-FAULT 
0.000000,127.707665,49.051362,-191.097917,-0.668532,-4.216715,-1.612739,5.554340,4.425733,1.541419,-5.405823,-0.011544,0.466899,-0.028224,26.908828,188.487420,1613.653968,-13.087138,0
0.001037,57.327449,106.677275,-195.751326,-0.815562,-2.193057,-3.612905,5.401354,2.448179,3.585208,-5.195911,-0.022503,0.456251,-0.061832,20.903218,188.634505,1612.831225,-13.371911,0
0.002080,-8.198176,164.436077,-169.566667,-0.283992,0.025867,-5.077312,4.599110,0.198620,5.137985,-4.473668,-0.007891,0.456251,-0.013287,16.130398,188.476920,1611.498804,-14.632062,0
0.003116,-63.266016,187.776383,-105.600758,0.903558,2.347749,-5.644820,2.729693,-2.047263,5.637391,-2.694744,-0.084604,0.436197,-0.024490,16.017298,188.502118,1609.984484,-14.977058,0
0.004158,-123.823626,195.097411,-29.853599,2.339928,4.286201,-5.482108,0.781918,-4.046871,5.595424,-0.780623,-0.110175,0.432473,-0.039427,15.135118,188.493680,1608.392996,-14.877473,0
0.005199,-163.839968,148.489283,34.370833,3.595338,5.383237,-4.347093,-1.415859,-5.153272,4.462317,1.247350,-0.183235,0.437960,-0.065566,7.523488,188.644723,1607.263108,-13.966067,0
0.006242,-199.069774,73.478950,86.161553,4.511448,6.050689,-2.545356,-3.527814,-5.866368,2.712296,3.421194,-0.212459,0.443121,-0.002084,0.929758,188.498789,1607.347909,-13.550520,0
0.007292,-173.447066,11.769693,148.724053,5.710308,5.454243,-0.513441,-4.830062,-5.281923,0.760834,4.577495,-0.227071,0.449327,-0.028224,-12.891061,188.494469,1607.278009,-13.406954,0
0.008328,-128.485394,-47.861650,191.466478,6.479388,4.357207,1.736746,-5.692009,-4.238010,-1.543150,5.580807,-0.227071,0.459975,-0.043161,-22.515871,188.499690,1606.992210,-13.577700,0
0.009378,-56.880188,-106.961432,195.664395,6.592488,2.294495,3.780567,-5.524097,-2.190618,-3.557563,5.367337,-0.230724,0.460171,-0.046895,-16.657291,188.643103,1605.499983,-13.002931,0
0.010409,7.499845,-164.236998,169.627463,6.151398,0.128825,5.264817,-4.721853,0.007481,-5.152306,4.677114,-0.223418,0.452463,-0.039427,-11.318971,188.495683,1604.686826,-12.569944,0
0.011448,63.032727,-187.347767,106.252462,4.975158,-2.217909,5.756921,-2.841242,2.304825,-5.630729,2.862612,-0.201500,0.449654,-0.028224,-11.466001,188.521051,1603.371408,-12.892549,0
0.012493,123.681077,-194.801685,29.877462,3.516168,-4.135059,5.633895,-0.912124,4.337515,-5.630729,0.955607,-0.161317,0.437569,-0.039427,-10.233211,188.509652,1603.242482,-12.469450,0
0.013537,163.992324,-147.698240,-34.297727,2.339928,-5.296000,4.502849,1.319235,5.443915,-4.539589,-1.122176,-0.088257,0.441945,-0.046895,-2.757301,188.441116,1603.738679,-12.046859,0
0.014579,198.757088,-73.485247,-86.433144,1.299408,-5.881796,2.701112,3.434922,6.087172,-2.722421,-3.267558,-0.033462,0.443709,-0.080503,3.587608,188.514811,1604.283438,-12.681573,0
0.015623,173.327202,-11.993446,-148.823296,0.111858,-5.285349,0.669197,4.696125,5.517430,-0.779352,-4.402511,-0.029809,0.456055,-0.028224,18.166198,188.519059,1604.898477,-13.362009,0
0.016663,128.070625,48.761421,-191.257955,-0.747702,-4.213165,-1.608770,5.599117,4.436760,1.545616,-5.391592,-0.022503,0.456709,-0.020755,26.049268,188.512479,1604.957615,-13.465350,0
0.017706,56.499447,106.810164,-195.751326,-0.804252,-2.161104,-3.668465,5.449862,2.451855,3.564225,-5.252836,-0.015197,0.446257,-0.058098,21.615748,188.445182,1605.396762,-12.806293,0
0.018748,-9.048864,164.194459,-169.542046,-0.306612,0.082672,-5.176527,4.606572,0.180241,5.087624,-4.477225,-0.018850,0.459191,-0.031958,16.605418,188.507403,1604.827521,-12.438489,0
0.019787,-63.515551,188.295862,-104.751326,0.926178,2.365501,-5.668631,2.748350,-2.098724,5.641588,-2.744554,-0.051727,0.451809,-0.031958,15.745858,188.504353,1605.520162,-12.148025,0
0.020829,-123.846311,194.843712,-29.804356,2.328618,4.289751,-5.521794,0.763261,-4.076277,5.620604,-0.809085,-0.113828,0.436654,-0.020755,15.169048,188.512141,1606.035949,-11.921111,0
0.021873,-164.940190,147.655701,33.816856,3.561408,5.447142,-4.327250,-1.438247,-5.215760,4.495891,1.322065,-0.183235,0.440639,-0.043161,7.908028,188.641411,1607.247042,-12.658193,0
0.022915,-199.058432,74.095076,86.555493,4.534068,6.043589,-2.501702,-3.598710,-5.884746,2.729083,3.435426,-0.183235,0.447041,-0.020755,0.635698,188.554588,1607.824781,-12.710918,0
0.023958,-173.424381,12.216686,148.834849,5.710308,5.408089,-0.493598,-4.878570,-5.300302,0.748244,4.630862,-0.205153,0.457950,-0.039427,-13.219051,188.551136,1608.565854,-13.282166,0
0.025000,-128.111091,-48.888526,191.109470,6.547248,4.335905,1.800243,-5.703203,-4.234335,-1.576724,5.563018,-0.274560,0.469120,-0.043161,-23.058751,188.476832,1608.322591,-13.207998,0
0.026038,-56.528571,-106.176173,196.070645,6.603798,2.287395,3.816284,-5.531560,-2.205321,-3.641497,5.385126,-0.252642,0.446126,-0.054364,-16.770391,188.626804,1609.125542,-13.913847,0
0.027082,8.826917,-163.753762,169.590531,6.140088,0.057820,5.276723,-4.706927,0.040563,-5.173290,4.655767,-0.256295,0.465462,-0.058098,-11.454691,188.550087,1608.960880,-14.131728,0
0.028126,63.713277,-188.290078,104.393561,4.929918,-2.274713,5.792639,-2.818854,2.363637,-5.685286,2.908864,-0.190541,0.445865,-0.024490,-11.499931,188.551759,1610.279637,-13.551687,0
0.029166,123.828530,-194.499662,30.542235,3.595338,-4.198964,5.645801,-0.904661,4.322812,-5.668499,0.969838,-0.168623,0.440900,-0.039427,-9.124831,188.473803,1610.590859,-13.297895,0
0.030205,164.343941,-148.217719,-33.325189,2.317308,-5.303100,4.498880,1.308041,5.425537,-4.501819,-1.086597,-0.139399,0.448282,-0.020755,-2.904331,188.620324,1610.172325,-13.471354,0
0.031249,198.757088,-74.004726,-86.334659,1.254168,-5.899547,2.685238,3.449848,6.079820,-2.747601,-3.246210,-0.069992,0.438287,-0.031958,3.700708,188.557024,1610.165062,-13.188047,0
0.032287,173.485997,-11.558533,-148.170834,0.123168,-5.299550,0.665228,4.684931,5.517430,-0.779352,-4.391837,-0.018850,0.457101,-0.017021,19.070998,188.549091,1609.907411,-13.097775,0
0.033321,128.218077,47.891596,-191.073296,-0.679842,-4.259318,-1.533367,5.565534,4.517626,1.444895,-5.398708,0.006721,0.450438,-0.058098,26.807038,188.492933,1610.191474,-11.671426,0
0.034362,56.839722,105.143000,-196.145266,-0.781632,-2.260512,-3.565282,5.423742,2.521694,3.505471,-5.238605,-0.033462,0.448151,-0.061832,21.163348,188.575407,1609.696883,-11.039723,0
0.035413,-8.912754,164.315268,-169.406629,-0.295302,-0.027387,-5.113030,4.591647,0.224350,5.112804,-4.519920,-0.033462,0.466769,-0.020755,16.186948,188.491498,1610.383389,-10.405968,0
0.036457,-63.640318,187.836788,-105.403788,0.892248,2.344199,-5.644820,2.725962,-2.069318,5.591227,-2.744554,-0.066339,0.450764,-0.058098,16.277428,188.498631,1609.634222,-10.201723,0
0.037496,-124.073161,194.819550,-30.998485,2.305998,4.215196,-5.490045,0.789381,-4.039520,5.582834,-0.880242,-0.132093,0.444362,-0.024490,15.112498,188.490112,1609.217678,-9.548581,0
0.038536,-164.236955,148.839630,33.829167,3.516168,5.372586,-4.299470,-1.397202,-5.156948,4.445530,1.243792,-0.139399,0.445212,-0.024490,7.421698,188.575756,1608.077924,-9.111763,0
0.039578,-199.013062,74.312533,86.247728,4.534068,6.029388,-2.501702,-3.561397,-5.859016,2.691313,3.392732,-0.197847,0.443840,-0.039427,0.907138,188.513690,1607.262939,-9.226791,0
0.040624,-173.651231,11.250214,148.022349,5.676378,5.393888,-0.533284,-4.781554,-5.270896,0.769227,4.566821,-0.285519,0.446845,-0.028224,-12.924991,188.515708,1606.158194,-8.503225,0
0.041662,-127.691419,-48.489857,191.367993,6.502008,4.296852,1.693092,-5.699471,-4.197577,-1.538954,5.523882,-0.223418,0.442076,-0.024490,-22.674211,188.513032,1605.219530,-8.290504,0
0.042704,-56.188296,-105.837908,195.873675,6.637728,2.290945,3.740881,-5.516634,-2.186942,-3.582743,5.356663,-0.274560,0.427051,-0.058098,-16.860871,188.517140,1604.181269,-7.972482,0
0.043748,8.407245,-164.333645,169.430493,6.140088,0.157228,5.248943,-4.721853,-0.032952,-5.101946,4.673556,-0.216112,0.457950,-0.046895,-11.454691,188.522262,1603.755499,-6.639014,0
0.044789,63.225550,-187.335686,106.695644,4.997778,-2.189506,5.796607,-2.882287,2.264392,-5.630729,2.887517,-0.205153,0.445473,-0.024490,-11.737441,188.581625,1602.535735,-6.608473,0
0.045833,124.157462,-194.680876,31.231629,3.527478,-4.099556,5.614052,-0.908393,4.252972,-5.597156,0.980511,-0.168623,0.440051,-0.005818,-10.323691,188.510264,1601.376054,-6.325179,0
0.046874,164.071721,-148.459337,-33.953030,2.272068,-5.274698,4.451257,1.289384,5.407158,-4.506016,-1.043903,-0.073645,0.442076,-0.043161,-2.745991,188.439613,1601.160372,-5.596938,0
0.047913,198.757088,-73.569813,-86.063826,1.299408,-5.832092,2.669363,3.434922,6.028360,-2.743405,-3.214190,-0.066339,0.444297,-0.024490,3.621538,188.508436,1600.214736,-5.262149,0
0.048947,174.257287,-11.860556,-146.865910,0.157098,-5.285349,0.748569,4.621498,5.510079,-0.854893,-4.320680,-0.029809,0.436197,-0.039427,18.007858,188.516440,1599.439668,-4.367936,0
0.049987,127.764377,48.278185,-190.987122,-0.702462,-4.238017,-1.521461,5.554340,4.451463,1.453288,-5.334667,-0.022503,0.462000,-0.020755,25.913548,188.495081,1598.080973,-4.586584,0
0.051029,56.703612,105.203404,-195.985228,-0.792942,-2.193057,-3.529565,5.401354,2.473909,3.471898,-5.231489,-0.029809,0.456513,-0.024490,21.921118,188.568004,1597.485223,-4.729594,0
0.052071,-7.018556,164.073649,-169.788258,-0.295302,-0.069990,-5.057470,4.636423,0.253756,5.033067,-4.523477,-0.040768,0.459583,-0.028224,17.069128,188.481510,1596.740488,-4.738583,0
0.053112,-62.619493,187.256904,-107.878220,0.869628,2.283844,-5.613071,2.804321,-1.992127,5.599621,-2.794364,-0.091910,0.445603,-0.065566,15.904198,188.554988,1596.947667,-4.540048,0
0.054154,-123.256501,195.278625,-31.835606,2.272068,4.247148,-5.509888,0.837889,-4.024817,5.624801,-0.898032,-0.110175,0.440639,-0.020755,15.644068,188.476938,1597.347242,-4.617064,0
0.055196,-163.737885,149.661131,33.447538,3.470928,5.386787,-4.295501,-1.382276,-5.149596,4.474907,1.240234,-0.135746,0.441357,-0.039427,7.975888,188.625833,1597.565452,-4.708558,0
0.056238,-198.684129,74.687041,85.225947,4.511448,6.000986,-2.513607,-3.602442,-5.825934,2.724886,3.410521,-0.216112,0.445408,-0.039427,0.726178,188.548921,1597.229253,-4.951923,0
0.057280,-174.331781,11.962987,146.791288,5.608518,5.408089,-0.557095,-4.751704,-5.256193,0.769227,4.570379,-0.216112,0.450699,-0.020755,-13.026781,188.553377,1597.017328,-5.612155,0
0.058337,-127.419199,-49.311358,190.961743,6.569868,4.343006,1.724840,-5.684546,-4.230659,-1.530560,5.534555,-0.248989,0.437242,-0.020755,-22.889101,188.476969,1597.248261,-4.947130,0
0.059366,-57.458656,-105.306348,195.849054,6.637728,2.340649,3.728975,-5.546485,-2.231051,-3.519793,5.363779,-0.248989,0.446518,-0.035692,-16.985281,188.623117,1597.119792,-4.466377,0
0.060404,5.877867,-163.838328,169.910607,6.151398,0.150127,5.272754,-4.725584,-0.036628,-5.139716,4.691346,-0.259948,0.446649,-0.035692,-11.827921,188.551478,1597.690464,-5.634942,0
0.061446,62.011902,-186.997421,108.369887,4.929918,-2.189506,5.764859,-2.852436,2.260716,-5.655909,2.926654,-0.197847,0.449784,-0.058098,-11.466001,188.553933,1598.267222,-6.163167,0
0.062487,122.773677,-195.115788,31.785606,3.527478,-4.120858,5.645801,-0.889736,4.282378,-5.626532,1.001859,-0.124787,0.437307,-0.031958,-9.690331,188.505729,1598.728909,-6.650078,0
0.063529,163.141636,-149.800318,-33.312879,2.305998,-5.210793,4.471100,1.240877,5.425537,-4.485032,-1.051019,-0.121134,0.437503,-0.035692,-2.825161,188.571250,1598.765853,-7.614972,0
0.064571,198.348758,-74.391315,-85.029735,1.344648,-5.871145,2.697143,3.382683,6.054090,-2.747601,-3.199958,-0.077298,0.440182,-0.050629,3.564988,188.492178,1598.788377,-7.974275,0
0.065612,174.268629,-11.739747,-146.471970,0.179718,-5.281799,0.776349,4.602841,5.484349,-0.875876,-4.310007,-0.033462,0.444624,-0.061832,18.935278,188.493157,1598.324375,-7.799605,0
0.066654,128.115995,47.819110,-191.024054,-0.657222,-4.241567,-1.485744,5.517027,4.473517,1.428108,-5.338224,-0.037115,0.455925,-0.054364,26.569528,188.504639,1598.522173,-7.592693,0
0.067696,58.132767,104.985948,-195.886743,-0.792942,-2.264062,-3.521628,5.375234,2.525370,3.429931,-5.224373,-0.026156,0.448935,-0.087972,21.242518,188.580021,1598.483708,-7.211871,0
0.068737,-5.736853,164.279025,-169.751326,-0.340542,-0.077091,-5.029689,4.617766,0.345650,5.041461,-4.523477,-0.018850,0.449066,-0.020755,16.333978,188.512814,1598.631214,-6.632573,0
0.069787,-63.050508,187.124014,-106.881061,0.847008,2.273193,-5.541637,2.744619,-1.948018,5.582834,-2.755228,-0.059033,0.442337,-0.046895,15.949438,188.436671,1597.792104,-6.092593,0
0.070835,-123.925709,194.831631,-29.952083,2.305998,4.190344,-5.450359,0.800575,-3.980708,5.515687,-0.812643,-0.102869,0.433192,-0.058098,15.089878,188.514910,1595.872228,-6.232993,0
0.071873,-163.477008,148.694659,34.666288,3.561408,5.351285,-4.271690,-1.363620,-5.142245,4.399367,1.201098,-0.157664,0.437373,-0.035692,7.455628,188.507459,1594.763562,-5.717955,0
0.072914,-198.548019,73.285656,86.161553,4.567998,5.958382,-2.565199,-3.524083,-5.803880,2.741673,3.346480,-0.205153,0.444428,-0.046895,0.929758,188.512461,1594.091020,-4.200577,0
0.073956,-174.025533,11.854259,147.369887,5.698998,5.390338,-0.572970,-4.706927,-5.248842,0.848965,4.495664,-0.201500,0.442599,-0.065566,-12.540451,188.438308,1593.445876,-2.596899,0
0.074997,-128.371969,-47.849569,191.257198,6.535938,4.360757,1.685154,-5.650964,-4.245362,-1.455020,5.513208,-0.256295,0.454357,-0.069301,-22.278361,188.506319,1593.282323,-2.297010,0
0.076040,-58.343371,-105.801665,195.578220,6.626418,2.333548,3.705164,-5.479321,-2.242078,-3.503006,5.338874,-0.256295,0.455468,0.001650,-16.928731,188.438712,1593.063731,-2.210500,0
0.077081,6.433650,-164.309483,169.504357,6.128778,0.118175,5.193383,-4.699464,-0.047655,-5.080962,4.648651,-0.212459,0.453834,-0.050629,-11.409451,188.514869,1592.051879,-1.654836,0
0.078124,63.248235,-187.045745,106.289394,4.929918,-2.189506,5.717236,-2.852436,2.212931,-5.601352,2.898191,-0.208806,0.438810,-0.061832,-11.420761,188.521128,1590.805249,-0.333221,0
0.079168,123.647050,-194.777523,29.926705,3.482238,-4.096006,5.625958,-0.908393,4.260324,-5.592959,1.005416,-0.175929,0.436981,-0.028224,-10.255831,188.485757,1590.253078,0.661862,0
0.080204,162.858074,-149.172111,-34.076136,2.272068,-5.210793,4.435383,1.222220,5.363049,-4.526999,-1.018998,-0.073645,0.441357,-0.061832,-2.836471,188.702326,1589.694018,1.966353,0
0.081249,198.507553,-73.630218,-85.989962,1.333338,-5.906648,2.677300,3.386414,6.050414,-2.760191,-3.192843,-0.062686,0.443382,-0.031958,3.598918,188.478160,1589.787712,2.671753,0
0.082293,173.701504,-11.908879,-147.986175,0.168408,-5.320852,0.728726,4.610304,5.462294,-0.833909,-4.334912,-0.015197,0.457166,-0.043161,17.962618,188.545298,1589.992422,2.202350,0
0.083327,128.887285,47.565411,-191.073296,-0.691152,-4.230916,-1.525430,5.535683,4.502923,1.373551,-5.331109,-0.029809,0.460890,-0.035692,25.664728,188.478559,1590.164520,2.795502,0
0.084375,57.894574,106.314847,-195.812879,-0.849492,-2.200157,-3.537502,5.367772,2.455531,3.446717,-5.192353,-0.007891,0.462588,-0.039427,21.841948,188.429986,1589.835853,2.299391,0
0.085415,-7.597024,164.291106,-169.554357,-0.306612,-0.052239,-5.069375,4.617766,0.275811,5.075034,-4.505688,-0.007891,0.458407,-0.017021,16.797688,188.516005,1589.935508,1.920006,0
0.086456,-63.515551,187.728060,-105.711553,0.880938,2.283844,-5.613071,2.763276,-2.017857,5.612211,-2.780133,-0.055380,0.445930,-0.035692,15.598828,188.425117,1590.823560,1.908924,0
0.087493,-123.188446,195.302786,-30.272159,2.317308,4.193894,-5.529731,0.849083,-4.006438,5.578637,-0.858895,-0.099216,0.438026,-0.058098,15.463108,188.495848,1591.861269,2.101639,0
0.088541,-163.851310,148.585931,34.247727,3.584028,5.361936,-4.323282,-1.393471,-5.156948,4.466514,1.201098,-0.161317,0.440312,-0.035692,7.919338,188.495911,1592.692519,2.474119,0
0.089577,-198.661444,74.626636,86.063068,4.522758,5.997435,-2.581073,-3.509157,-5.796528,2.762656,3.374942,-0.175929,0.445603,-0.069301,0.692248,188.495987,1593.166607,1.959994,0
0.090612,-174.921591,14.077145,146.655872,5.687688,5.425841,-0.632499,-4.733047,-5.292951,0.836374,4.499222,-0.241683,0.451613,-0.065566,-12.755341,188.495915,1593.858499,0.948233,0
0.091654,-129.721726,-46.665640,190.752463,6.490698,4.424662,1.629594,-5.680815,-4.271092,-1.434036,5.541671,-0.252642,0.446061,-0.020755,-22.267051,188.495790,1594.407762,0.536982,0
0.092696,-59.012578,-104.351957,195.972160,6.637728,2.372601,3.736912,-5.509172,-2.271484,-3.498809,5.399357,-0.241683,0.448282,-0.054364,-17.256721,188.495745,1595.131455,0.339546,0
0.093737,6.116060,-163.717519,169.849054,6.151398,0.171429,5.252911,-4.759166,-0.047655,-5.080962,4.719808,-0.219765,0.444754,-0.050629,-11.692201,188.491940,1595.768162,0.496303,0
0.094779,62.340835,-186.864531,108.049811,4.986468,-2.154004,5.752953,-2.878556,2.201904,-5.664303,2.948001,-0.194194,0.434956,-0.046895,-11.171941,188.552449,1596.938712,0.189924,0
0.095821,122.195210,-195.357407,31.453220,3.595338,-4.078254,5.649770,-0.986751,4.223566,-5.613942,1.090805,-0.161317,0.436327,-0.065566,-9.769501,188.481199,1597.034878,0.594274,0
0.096862,162.574511,-150.368120,-33.054356,2.351238,-5.203693,4.554441,1.181175,5.355697,-4.556376,-0.983420,-0.113828,0.441488,-0.050629,-2.734681,188.552876,1597.328538,0.617072,0
0.097904,198.008483,-76.082641,-84.968182,1.310718,-5.878245,2.748735,3.371489,6.024684,-2.823142,-3.171496,-0.084604,0.450960,-0.017021,3.564988,188.500032,1597.313917,0.427834,0
0.098946,174.937837,-14.143846,-146.287311,0.134478,-5.299550,0.835877,4.584184,5.528458,-0.926237,-4.306449,-0.048074,0.456839,-0.050629,18.754318,188.497558,1597.903562,0.725523,0
0.099987,129.148162,46.961366,-190.950190,-0.679842,-4.280620,-1.469870,5.550609,4.506599,1.411321,-5.352456,-0.011544,0.461151,-0.054364,26.479048,188.488500,1598.276626,-0.012239,0
0.101041,57.032544,105.928258,-195.935985,-0.759012,-2.239210,-3.549408,5.401354,2.495964,3.438324,-5.188795,-0.011544,0.444754,-0.031958,21.185968,188.495839,1598.177759,0.657450,0
0.102081,-7.982669,164.242782,-169.406629,-0.306612,-0.034487,-5.037627,4.636423,0.286838,5.016280,-4.509246,-0.059033,0.444297,-0.024490,16.141708,188.498148,1597.549692,1.301116,0
0.103122,-63.481523,187.220662,-106.474811,0.914868,2.251892,-5.613071,2.789395,-1.992127,5.578637,-2.805037,-0.066339,0.440639,-0.020755,15.915508,188.499297,1597.175086,1.602782,0
0.104163,-123.324556,195.181977,-30.924621,2.317308,4.179693,-5.466234,0.875202,-3.940275,5.566047,-0.894474,-0.091910,0.440247,-0.031958,15.350008,188.490695,1596.625051,2.338092,0
0.105206,-163.624460,149.721536,33.841477,3.527478,5.319332,-4.283596,-1.337500,-5.098136,4.525267,1.183309,-0.168623,0.446387,-0.043161,7.331218,188.488500,1596.724431,2.817793,0
0.106249,-198.695472,75.230681,86.296970,4.511448,5.969033,-2.565199,-3.497963,-5.767122,2.737476,3.332248,-0.219765,0.445995,-0.039427,0.941068,188.498065,1596.144637,2.871005,0
0.107290,-174.467891,12.760327,147.197538,5.665068,5.379687,-0.592813,-4.684539,-5.267220,0.823784,4.513453,-0.230724,0.454945,-0.058098,-12.585691,188.494726,1595.928762,3.137467,0
0.108330,-128.065721,-48.175753,191.146402,6.502008,4.314603,1.673249,-5.632307,-4.252713,-1.463413,5.477630,-0.238030,0.461020,-0.050629,-22.481941,188.492870,1594.962112,3.797210,0
0.109373,-56.902873,-105.560047,195.787501,6.637728,2.340649,3.637698,-5.471858,-2.260457,-3.511399,5.324642,-0.216112,0.448804,-0.035692,-17.030521,188.420491,1594.011012,4.486420,0
0.110416,7.828777,-164.019542,169.270455,6.151398,0.160778,5.205288,-4.725584,-0.003546,-5.110339,4.677114,-0.238030,0.418428,-0.028224,-11.352901,188.491437,1593.795729,4.340690,0
0.111451,62.681110,-186.610832,107.963637,4.997778,-2.132702,5.745016,-2.912138,2.238661,-5.622336,2.955116,-0.197847,0.432212,-0.035692,-11.545171,188.500372,1593.457880,4.203882,0
