1-Time,2-VGERA,3-VGERB,4-VGERC,5-VN,6-IGERAN,7-IGERBN,8-IGERCN,9-IGERAT,10-IGERBT,11-IGERCT,12-IN,13-IFD,14-IFAULT,15-VFAULT,16-Speed (rad/s),17-Active Power,18-Reactive Power,19-FAULT 
0.000000,131.166635,-185.231962,39.315673,1.057383,0.361661,4.375562,-4.377742,-0.387007,-4.457553,3.731946,0.106545,0.591389,0.003860,130.929526,188.571127,964.054323,1029.225203,0
0.001042,172.750360,-149.902972,-32.877409,-0.338771,-1.362991,4.991468,-3.171510,1.421163,-5.092504,2.460127,0.062790,0.584775,-0.007290,170.941611,188.495712,964.319524,1029.221646,0
0.002083,179.180017,-98.013517,-106.407174,-1.712405,-3.234422,4.899914,-1.261644,3.244154,-4.964632,0.537167,0.066437,0.573888,0.003860,173.080693,188.571107,964.076101,1028.344152,0
0.003125,175.812640,-13.249780,-151.186084,-2.601890,-4.232519,4.146678,0.539971,4.322387,-4.157715,-1.263942,-0.021072,0.547224,-0.003573,171.628369,188.646520,964.197752,1028.260593,0
0.004167,147.913124,62.928356,-170.847489,-2.950928,-4.768262,2.673496,2.387980,4.848535,-2.671753,-2.992702,-0.042949,0.509880,-0.014723,141.343476,188.571111,963.341358,1028.235787,0
0.005208,73.424016,123.250728,-181.540960,-3.209892,-4.654508,0.584409,4.034949,4.655861,-0.542020,-4.710039,-0.072118,0.563416,-0.003573,65.102102,188.495732,962.476010,1029.254673,0
0.006250,-6.669854,158.391798,-169.000435,-2.962187,-3.832546,-1.121818,4.827505,3.862934,1.124727,-5.323101,-0.093995,0.547844,0.026161,-9.450524,188.571143,961.147808,1029.998890,0
0.007292,-79.091076,175.469042,-119.616041,-2.016406,-2.192292,-3.027799,4.819773,2.177038,3.139815,-5.395450,-0.079410,0.578574,-0.022156,-79.848828,188.721895,960.966873,1031.439985,0
0.008333,-131.262831,185.111696,-38.807425,-0.462623,-0.463970,-4.442719,4.355838,0.454089,4.396489,-4.767156,-0.090349,0.592423,-0.014723,-130.815264,188.571047,961.009258,1032.793138,0
0.009375,-172.812657,149.371630,32.535040,0.865975,1.301046,-5.062787,3.138008,-1.346671,5.013803,-3.499145,-0.083057,0.589253,0.011294,-170.861124,188.495687,960.517521,1033.338480,0
0.010417,-179.400513,98.550971,106.429355,2.329684,3.271553,-4.992041,1.181748,-3.184483,4.881522,-1.595224,-0.028364,0.538681,-0.022156,-172.831331,188.646413,960.397928,1033.789141,0
0.011458,-175.648938,14.327504,151.499906,3.185390,4.284328,-4.172219,-0.592804,-4.273832,4.026101,0.251579,0.004452,0.578367,-0.014723,-171.075032,188.646558,960.149359,1033.364309,0
0.012500,-148.122320,-62.390902,171.294979,3.579466,4.860435,-2.728169,-2.436946,-4.807390,2.544548,2.014610,0.022683,0.579400,0.037311,-140.947756,188.571131,960.197427,1033.545559,0
0.013542,-73.588012,-123.594149,181.563142,3.815911,4.636597,-0.643243,-4.114845,-4.614716,0.397178,3.701484,0.081021,0.578367,-0.022156,-63.918299,188.495644,959.733375,1033.011064,0
0.014583,7.116054,-158.711730,169.241346,3.568207,3.836652,1.108761,-4.833945,-3.844021,-1.238703,4.318354,0.088314,0.575887,-0.018440,11.152210,188.721844,959.792792,1033.479303,0
0.015625,80.158772,-175.718504,119.383038,2.588648,2.196398,2.981449,-4.880338,-2.139598,-3.218516,4.345009,0.084667,0.570995,-0.022156,81.246539,188.646444,959.038854,1033.925498,0
0.016667,131.279634,-185.513843,38.064051,1.057383,0.383678,4.408854,-4.385474,-0.375891,-4.475190,3.773833,0.066437,0.589598,-0.025873,131.177209,188.570988,959.187364,1034.654865,0
0.017708,172.705160,-149.491897,-33.096139,-0.350030,-1.362991,5.024760,-3.159912,1.424868,-5.083685,2.471551,0.022683,0.583672,-0.011006,171.414461,188.495582,958.951968,1034.730449,0
0.018750,179.304317,-98.741708,-106.322113,-1.712405,-3.252769,4.974822,-1.261644,3.262681,-5.030773,0.590477,0.048206,0.578849,-0.033307,173.328376,188.721958,959.466189,1035.890675,0
0.019792,175.496242,-15.070256,-151.793668,-2.635668,-4.349942,4.125870,0.563168,4.355734,-4.170943,-1.275366,-0.013779,0.572924,-0.044457,171.448236,188.646504,960.361211,1035.904367,0
0.020833,148.557220,61.777345,-171.321404,-2.995965,-4.900363,2.702627,2.391846,4.859651,-2.618840,-3.004126,-0.086703,0.589253,-0.037023,141.512351,188.571040,961.219574,1035.194315,0
0.021875,74.248911,123.168513,-181.990572,-3.277448,-4.661847,0.551116,4.104540,4.655861,-0.462651,-4.702423,-0.086703,0.569892,0.000144,64.426602,188.495635,962.076266,1034.437337,0
0.022917,-6.195258,158.556228,-168.684492,-2.950928,-3.795851,-1.209211,4.850702,3.774008,1.199686,-5.315486,-0.079410,0.561486,0.003860,-10.587615,188.721857,962.801778,1032.853703,0
0.023958,-79.769071,176.291193,-118.400874,-1.982628,-2.089547,-3.135999,4.819773,2.073290,3.214775,-5.349756,-0.079410,0.561073,-0.029590,-81.211085,188.646482,963.524140,1031.643274,0
0.025000,-131.500130,185.334851,-36.547214,-0.428845,-0.302513,-4.525949,4.282382,0.324404,4.458221,-4.698615,-0.104934,0.578711,-0.033307,-130.972880,188.571123,964.575063,1030.455647,0
0.026042,-172.778757,149.453845,34.758796,0.944790,1.444156,-5.071110,3.006560,-1.465240,5.088763,-3.453451,-0.035656,0.579538,-0.048173,-170.793574,188.495723,966.259423,1030.496936,0
0.027083,-178.733817,97.634861,107.182759,2.374721,3.322926,-5.000364,1.158551,-3.273410,4.956481,-1.526683,-0.028364,0.558662,-0.029590,-172.594906,188.721886,967.685628,1030.738940,0
0.028125,-175.761937,13.810724,152.119641,3.207909,4.332031,-4.143089,-0.712654,-4.396106,4.030511,0.323928,0.037267,0.576369,-0.011006,-171.457815,188.570986,969.650887,1031.155100,0
0.029167,-148.483917,-62.085532,171.294979,3.579466,4.864105,-2.644938,-2.545198,-4.829622,2.496045,2.064112,0.077375,0.574646,-0.003573,-141.082856,188.571103,970.726287,1030.585106,0
0.030208,-74.085209,-122.854214,182.887674,3.849689,4.607241,-0.539204,-4.203766,-4.603601,0.339856,3.785256,0.106545,0.582914,-0.011006,-64.154723,188.495734,972.582417,1030.057208,0
0.031250,5.511465,-158.840925,168.451488,3.534429,3.781610,1.191992,-4.926732,-3.795852,-1.340119,4.322162,0.117483,0.590356,-0.033307,10.476710,188.721860,973.810230,1028.608409,0
0.032292,79.232178,-177.221866,118.690392,2.554870,2.056958,3.093811,-4.899669,-2.069198,-3.319932,4.371664,0.106545,0.587255,-0.007290,81.314089,188.721844,975.709475,1028.133171,0
0.033333,131.336134,-185.055787,37.225585,1.034864,0.269925,4.433823,-4.335214,-0.286965,-4.497237,3.644366,0.059144,0.583328,0.011294,131.244759,188.571165,976.002837,1026.061196,0
0.034375,172.987658,-149.820757,-35.040406,-0.350030,-1.502431,5.037245,-3.070991,1.528616,-5.171873,2.391586,0.062790,0.581881,-0.007290,171.020420,188.495696,977.877832,1025.901122,0
0.035417,178.547222,-96.874251,-107.549431,-1.723664,-3.351845,4.929045,-1.130196,3.366428,-4.969041,0.483857,0.029975,0.558662,-0.048173,172.742943,188.721907,978.609475,1024.557951,0
0.036458,176.219437,-12.169239,-151.757213,-2.601890,-4.324255,4.088416,0.721679,4.426135,-4.104802,-1.378177,0.000805,0.511189,0.000144,172.033669,188.646487,979.751981,1024.067577,0
0.037500,147.867924,63.398156,-170.871793,-2.939669,-4.907702,2.606912,2.519428,4.900409,-2.565927,-3.160247,-0.057533,0.562589,-0.037023,141.287184,188.571134,981.525152,1023.725747,0
0.038542,73.141518,122.745692,-183.132829,-3.243670,-4.647169,0.463724,4.197327,4.670682,-0.409739,-4.820466,-0.104934,0.572579,-0.025873,64.865677,188.495750,983.343364,1023.814332,0
0.039583,-5.268664,159.002538,-168.052605,-2.950928,-3.810529,-1.279957,4.881631,3.799944,1.296693,-5.410682,-0.115872,0.585670,-0.003573,-9.304166,188.721873,985.360401,1024.086179,0
0.040625,-78.548679,177.277774,-118.400874,-1.982628,-2.082208,-3.248360,4.893230,2.028827,3.316190,-5.368795,-0.079410,0.584912,-0.022156,-80.445519,188.797206,987.241395,1023.576526,0
0.041667,-131.624429,184.771090,-37.409982,-0.462623,-0.302513,-4.542596,4.274649,0.257709,4.475858,-4.649113,-0.086703,0.585326,-0.040740,-131.141755,188.571120,987.929436,1022.313567,0
0.042708,-173.321153,149.665255,35.099043,0.899753,1.499198,-5.104402,2.944702,-1.550461,5.066716,-3.339216,-0.053887,0.579676,-0.051890,-170.827349,188.571210,988.943077,1020.685845,0
0.043750,-178.620818,96.953650,107.790343,2.307165,3.385307,-4.950425,0.996174,-3.343810,4.881522,-1.412448,-0.039302,0.580227,-0.037023,-172.369740,188.721867,989.800660,1018.986822,0
0.044792,-176.236534,11.637897,151.913063,3.151613,4.423768,-4.059858,-0.813173,-4.384990,3.986417,0.441971,0.008098,0.546260,-0.025873,-171.795565,188.721884,990.335404,1018.054401,0
0.045833,-147.444324,-64.505004,170.821064,3.534429,4.915477,-2.532577,-2.603190,-4.855559,2.394629,2.178347,0.062790,0.556939,-0.018440,-140.125898,188.571058,991.440246,1017.370608,0
0.046875,-70.966430,-123.206564,183.884111,3.860949,4.687970,-0.426843,-4.323616,-4.622127,0.242850,3.869029,0.113837,0.538749,-0.011006,-62.556041,188.571167,992.563928,1017.458950,0
0.047917,7.003055,-159.392940,168.147696,3.545688,3.752254,1.304353,-4.973125,-3.769916,-1.432716,4.398319,0.128422,0.577747,0.003860,10.195252,188.721953,993.901481,1017.574122,0
0.048958,79.209578,-177.914821,118.277235,2.599907,2.005585,3.189526,-4.949929,-1.961745,-3.434576,4.394511,0.081021,0.585946,-0.011006,80.717398,188.721858,995.903744,1016.683263,0
0.050000,131.584732,-184.715182,38.222022,1.046123,0.163510,4.558669,-4.281089,-0.201744,-4.620700,3.617711,0.113837,0.583259,-0.037023,131.593767,188.571118,998.093915,1015.943730,0
0.051042,173.869052,-150.067402,-34.408519,-0.350030,-1.627193,5.091345,-2.966606,1.699058,-5.242423,2.269735,0.055498,0.582019,-0.022156,171.628369,188.646440,1001.113015,1014.384743,0
0.052083,178.569821,-97.496737,-107.598038,-1.734924,-3.428904,4.887430,-1.021944,3.459060,-4.946994,0.342967,0.029975,0.573957,-0.003573,172.844268,188.721895,1003.160022,1012.709249,0
0.053125,176.501935,-12.145749,-152.024550,-2.590631,-4.493051,4.009347,0.853127,4.492829,-4.007796,-1.560954,-0.046595,0.580985,-0.014723,172.472743,188.646523,1005.622225,1010.747799,0
0.054167,147.709725,64.490442,-170.653063,-2.973447,-4.915041,2.444612,2.643144,4.885588,-2.376324,-3.255443,-0.072118,0.574026,-0.025873,140.150093,188.571065,1006.994641,1008.490404,0
0.055208,70.090538,122.863142,-184.785457,-3.277448,-4.537085,0.243163,4.328775,4.633629,-0.228954,-4.946125,-0.086703,0.525452,-0.025873,61.319304,188.646545,1009.190291,1007.330501,0
0.056250,-8.071045,159.331399,-167.736661,-2.928410,-3.645403,-1.475548,4.912560,3.696197,1.442202,-5.414490,-0.101287,0.548947,-0.040740,-11.049206,188.721864,1010.043241,1005.990954,0
0.057292,-79.780371,178.734155,-116.930522,-1.971369,-1.869378,-3.364883,4.842970,1.888027,3.466109,-5.387835,-0.072118,0.559282,-0.033307,-80.760752,188.646466,1012.267480,1005.269051,0
0.058333,-131.793928,184.406995,-36.717337,-0.451364,-0.093353,-4.646634,4.205059,0.131730,4.581683,-4.595804,-0.086703,0.587255,-0.029590,-131.592088,188.571180,1014.089869,1004.097219,0
0.059375,-174.462446,150.193781,35.123346,0.922271,1.697349,-5.204279,2.832584,-1.743135,5.159313,-3.186902,-0.075764,0.586428,-0.014723,-171.457815,188.646476,1017.627409,1002.510406,0
0.060417,-178.134921,97.576136,107.984769,2.363462,3.535755,-4.962910,0.856994,-3.480905,4.855065,-1.229671,0.004452,0.569065,-0.007290,-172.459806,188.721898,1020.324744,1000.306123,0
0.061458,-177.106628,12.824143,152.532798,3.196650,4.533852,-4.030727,-1.033542,-4.581369,3.893820,0.632363,0.048206,0.585050,-0.011006,-172.707489,188.646509,1024.770653,998.868073,0
0.062500,-147.659023,-64.164398,170.821064,3.556947,4.889791,-2.424377,-2.781032,-4.881496,2.218254,2.357316,0.077375,0.582363,-0.018440,-139.315299,188.571205,1027.767462,996.529181,0
0.063542,-69.520039,-122.419648,185.998502,3.905986,4.599902,-0.252059,-4.435734,-4.611011,0.075293,3.979456,0.095606,0.581330,-0.011006,-60.045435,188.646495,1030.421193,995.360217,0
0.064583,8.042648,-159.580860,167.442899,3.523169,3.653178,1.466653,-4.996322,-3.618000,-1.617910,4.413550,0.062790,0.584361,-0.037023,12.390626,188.721929,1032.078058,992.875010,0
0.065625,79.944073,-179.794023,116.503091,2.532351,1.855137,3.372633,-4.895803,-1.806124,-3.588904,4.379280,0.095606,0.559695,-0.025873,81.843230,188.646511,1034.267014,991.646698,0
0.066667,131.550832,-184.398067,35.743081,0.967308,-0.012625,4.600284,-4.203766,-0.042417,-4.695660,3.556786,0.059144,0.582294,-0.018440,131.886483,188.570930,1035.566350,990.278074,0
0.067708,173.970752,-150.619418,-36.182664,-0.395067,-1.803328,5.145445,-2.846756,1.839858,-5.255651,2.155500,0.106545,0.579676,-0.033307,171.695919,188.646476,1037.353151,988.936867,0
0.068750,177.812726,-96.721566,-108.169167,-1.757442,-3.561005,4.883268,-0.894362,3.573923,-4.907310,0.213501,-0.010133,0.579814,-0.040740,172.529035,188.721884,1038.877060,987.333733,0
0.069792,177.609328,-12.768234,-152.522768,-2.658186,-4.548093,3.930278,1.034835,4.611398,-4.016615,-1.652342,-0.006487,0.570788,-0.018440,173.227051,188.646507,1041.563236,987.515470,0
0.070833,147.788825,63.633056,-170.774579,-2.995965,-4.933388,2.307282,2.751395,4.930051,-2.314592,-3.388718,-0.028364,0.576713,-0.003573,139.947444,188.571152,1043.847798,986.628915,0
0.071875,70.248737,121.958777,-186.243657,-3.311226,-4.610474,0.118317,4.413830,4.615103,-0.101082,-4.984203,-0.061180,0.551703,-0.011006,60.891488,188.646451,1045.621278,985.266121,0
0.072917,-6.895853,159.625024,-167.129078,-3.007225,-3.619717,-1.533810,4.920292,3.625797,1.565665,-5.452568,-0.072118,0.561831,-0.018440,-11.409473,188.721806,1047.394464,983.793109,0
0.073958,-79.362274,179.908656,-116.019147,-1.948850,-1.762963,-3.477244,4.842970,1.769458,3.527841,-5.349756,-0.083057,0.555148,0.003860,-81.379960,188.646504,1048.431489,982.293684,0
0.075000,-131.816527,184.313035,-34.991800,-0.406326,0.031409,-4.679926,4.092941,0.013162,4.616959,-4.504415,-0.079410,0.574577,-0.007290,-131.456988,188.570986,1049.124923,980.690522,0
0.076042,-173.852250,150.299486,37.663045,1.001086,1.858806,-5.187633,2.739797,-1.846882,5.172541,-3.125977,-0.079410,0.572993,-0.033307,-170.984966,188.646511,1050.053735,980.127518,0
0.077083,-177.920223,95.555994,108.762476,2.374721,3.583458,-4.925456,0.764206,-3.584652,4.810971,-1.203017,0.008098,0.566516,-0.022156,-172.178348,188.721876,1050.501902,979.823664,0
0.078125,-177.490826,11.109371,152.532798,3.207909,4.625589,-3.951658,-1.153392,-4.596190,3.885001,0.716136,0.011744,0.542194,-0.007290,-173.022723,188.571136,1051.159767,979.640929,0
0.079167,-147.297425,-64.270103,170.979036,3.590725,5.003544,-2.370277,-2.850622,-4.896317,2.218254,2.376355,0.019036,0.560108,-0.025873,-139.517949,188.571107,1051.404753,979.788060,0
0.080208,-69.633038,-121.996828,186.654692,3.905986,4.614580,-0.189636,-4.532387,-4.633243,-0.056988,4.097499,0.070083,0.582639,-0.037023,-60.720934,188.721737,1054.086990,979.027420,0
0.081250,6.087761,-160.109386,167.126956,3.534429,3.616484,1.495783,-5.054314,-3.580947,-1.653185,4.478283,0.077375,0.588357,-0.037023,10.870752,188.721909,1055.490647,978.522106,0
0.082292,79.040079,-180.439998,116.515243,2.532351,1.759730,3.460025,-4.911267,-1.720903,-3.672683,4.402127,0.099252,0.581399,-0.011006,81.505480,188.570995,1057.271296,977.614497,0
0.083333,131.923730,-184.304107,35.803840,0.989827,-0.063998,4.650223,-4.157373,0.057625,-4.752982,3.480629,0.055498,0.580916,-0.029590,131.976550,188.571118,1058.551617,976.193069,0
0.084375,174.377549,-150.748613,-37.434286,-0.406326,-1.909742,5.178737,-2.765567,1.936195,-5.277698,2.048880,0.051852,0.575680,-0.040740,171.391944,188.721857,1059.914913,975.144595,0
0.085417,177.654527,-95.206460,-108.606627,-1.768702,-3.619717,4.854138,-0.751315,3.651734,-4.907310,0.091650,0.008098,0.542883,-0.014723,172.596585,188.721886,1061.090588,974.205994,0
0.086458,177.665827,-9.890707,-152.206825,-2.624408,-4.625152,3.863694,1.166284,4.681798,-3.915199,-1.812271,-0.017425,0.545571,-0.025873,173.587318,188.571040,1062.595902,972.798953,0
0.087500,146.624933,65.559238,-170.689518,-2.973447,-4.962744,2.282313,2.855781,4.952282,-2.244042,-3.476298,-0.046595,0.557766,-0.022156,139.204394,188.495731,1063.394035,972.518924,0
0.088542,68.079152,121.900051,-187.288701,-3.356263,-4.577449,0.055894,4.564609,4.592872,-0.004075,-5.132709,-0.108580,0.565620,-0.048173,60.598772,188.721857,1065.417175,972.115336,0
0.089583,-6.703754,160.059589,-166.703769,-2.917150,-3.597700,-1.637848,5.005347,3.607271,1.693537,-5.452568,-0.097641,0.584086,-0.025873,-10.058474,188.721880,1066.712363,971.267201,0
0.090625,-78.672979,180.695572,-116.043450,-1.960110,-1.707921,-3.610413,4.885497,1.699058,3.673350,-5.368795,-0.083057,0.580641,-0.037023,-80.828302,188.571051,1069.137042,970.515989,0
0.091667,-132.121625,183.772765,-35.927478,-0.428845,0.097459,-4.771480,4.092941,-0.127638,4.753649,-4.443490,-0.064826,0.580778,0.000144,-131.727188,188.495636,1071.781473,968.965499,0
0.092708,-174.778844,150.886736,37.505074,0.978568,1.939535,-5.229248,2.662475,-2.006209,5.247500,-3.015549,-0.083057,0.577540,0.011294,-170.928674,188.646462,1074.765197,967.764407,0
0.093750,-177.682924,95.168408,108.847538,2.363462,3.689873,-4.863033,0.621160,-3.621705,4.758059,-0.985970,-0.021072,0.552392,-0.007290,-172.358481,188.646513,1076.116286,965.072330,0
0.094792,-178.067122,10.017085,152.435585,3.219168,4.695309,-3.889235,-1.246179,-4.662885,3.752719,0.822755,0.015390,0.534133,-0.037023,-173.416764,188.571002,1077.634400,963.381759,0
0.095833,-146.212632,-66.102325,170.736002,3.534429,4.886121,-2.278724,-2.947275,-4.881496,2.077154,2.517245,0.077375,0.554803,-0.014723,-137.716617,188.495709,1079.002580,961.800505,0
0.096875,-66.152661,-121.785418,188.319471,3.939764,4.515505,-0.039821,-4.567182,-4.581369,-0.180451,4.131770,0.091960,0.566998,-0.011006,-58.277878,188.721960,1079.571165,960.811274,0
0.097917,8.483345,-160.121131,166.482917,3.500651,3.532086,1.603983,-5.054314,-3.488315,-1.785466,4.493515,0.113837,0.571821,-0.014723,11.591285,188.646411,1080.397913,959.609560,0
0.098958,79.311277,-181.320874,115.919811,2.498573,1.671663,3.593194,-4.934464,-1.654208,-3.787327,4.348817,0.106545,0.569823,-0.011006,81.257797,188.571138,1081.681693,958.586214,0
0.100000,132.104528,-183.493701,36.447878,1.023605,-0.126379,4.679353,-4.138042,0.116909,-4.757391,3.450166,0.077375,0.585395,-0.007290,132.348074,188.495613,1082.072305,957.583885,0
0.101042,174.874746,-151.324118,-36.729489,-0.383808,-2.001479,5.212029,-2.730772,2.028827,-5.277698,2.048880,0.059144,0.579056,0.003860,171.436978,188.646464,1083.448514,957.125471,0
0.102083,177.417229,-96.134316,-108.618779,-1.791220,-3.674759,4.841653,-0.701055,3.696197,-4.898491,0.019301,-0.002841,0.573131,-0.040740,172.472743,188.646504,1084.613817,956.159325,0
0.103125,178.253424,-10.877288,-152.437707,-2.613149,-4.647169,3.867855,1.189480,4.678093,-3.849058,-1.884620,-0.050241,0.576507,-0.022156,173.846259,188.571038,1085.628012,954.785300,0
0.104167,146.534533,65.747158,-170.470787,-2.984706,-4.918710,2.228213,2.855781,4.922640,-2.116170,-3.514377,-0.083057,0.560797,-0.007290,138.281212,188.495689,1086.177326,952.998286,0
0.105208,66.813560,121.688641,-188.200076,-3.345004,-4.511399,-0.031498,4.560743,4.559524,0.057656,-5.094631,-0.115872,0.565896,-0.055607,58.212007,188.646500,1085.947478,952.227073,0
0.106250,-8.782940,160.083079,-166.351371,-2.917150,-3.553666,-1.683625,4.955088,3.570218,1.706765,-5.483031,-0.079410,0.571064,-0.040740,-12.298880,188.646455,1085.841128,952.375471,0
0.107292,-79.904671,181.294567,-114.937648,-1.926332,-1.678566,-3.635382,4.850702,1.654595,3.721854,-5.349756,-0.093995,0.591802,-0.011006,-81.402477,188.571069,1086.153227,952.251496,0
0.108333,-131.918227,183.643569,-35.089013,-0.395067,0.130485,-4.763157,4.081343,-0.116523,4.709556,-4.462529,-0.068472,0.581950,-0.029590,-131.862288,188.495656,1085.361094,952.492172,0
0.109375,-174.711044,150.886736,37.505074,0.978568,1.965221,-5.299994,2.647010,-1.995093,5.247500,-3.057436,-0.039302,0.581812,-0.022156,-171.322716,188.721871,1085.143867,953.008831,0
0.110417,-177.637725,96.014049,108.932600,2.374721,3.686204,-4.925456,0.648223,-3.655052,4.815381,-1.058319,0.000805,0.576024,-0.003573,-172.268415,188.646440,1085.635659,954.248956,0
