1-Time,2-VGERA,3-VGERB,4-VGERC,5-VN,6-IGERAN,7-IGERBN,8-IGERCN,9-IGERAT,10-IGERBT,11-IGERCT,12-IN,13-IFD,14-IFAULT,15-VFAULT,16-Speed (rad/s),17-Active Power,18-Reactive Power,19-FAULT 
0.000000,123.737790,-189.401521,31.674811,3.493548,-3.038023,4.201237,-0.673316,3.223762,-4.086346,0.717231,-0.161317,0.397067,-0.046895,20.326408,188.496136,1183.123826,13.397081,0
0.001042,164.309914,-154.777650,-38.138636,2.181588,-3.808433,3.332117,0.822963,4.043455,-3.385499,-0.698792,-0.110175,0.399419,-0.050629,33.050158,188.496085,1182.521245,12.857557,0
0.002083,187.596067,-79.912288,-91.234281,1.174998,-4.337425,1.978830,2.595364,4.484545,-2.008983,-2.413674,-0.099216,0.398308,-0.039427,41.329078,188.496196,1182.348796,12.304217,0
0.003125,177.682722,-9.794721,-147.075190,0.089238,-3.971746,0.704914,3.319250,4.300757,-0.716402,-3.221306,-0.062686,0.373681,-0.031958,45.197097,188.571513,1182.272108,12.267942,0
0.004167,131.473375,53.811239,-185.041099,-0.645912,-3.133880,-1.041263,4.054329,3.370792,0.974865,-3.843929,-0.044421,0.383741,-0.020755,40.842748,188.496250,1181.889626,12.627960,0
0.005208,58.234849,107.740394,-195.369698,-0.781632,-1.710219,-2.608853,4.035673,1.992386,2.632559,-3.972011,-0.040768,0.396675,-0.017021,27.655288,188.496107,1181.103309,12.998623,0
0.006250,-4.908851,164.448157,-164.740910,-0.283992,-0.151647,-3.652591,3.442385,0.433868,3.589405,-3.345830,-0.033462,0.415489,-0.050629,9.751558,188.571536,1180.644325,13.877980,0
0.007292,-66.226409,185.795115,-112.519319,0.733908,1.630593,-4.049449,2.024464,-1.345195,4.147565,-2.114815,-0.091910,0.403730,-0.061832,-3.390661,188.571551,1180.632349,14.382770,0
0.008333,-124.220614,189.044878,-32.020265,2.272068,3.128811,-4.005795,0.584155,-2.808144,4.093008,-0.631193,-0.106522,0.395630,-0.039427,-15.379261,188.496083,1180.477950,15.427007,0
0.009375,-165.201068,155.254590,38.174811,3.595338,3.899221,-3.223984,-0.893467,-3.693999,3.379570,0.770599,-0.161317,0.401574,-0.028224,-28.419691,188.571543,1179.568179,15.633277,0
0.010417,-187.443711,80.884544,91.750568,4.545378,4.435313,-1.838948,-2.673330,-4.116711,1.965285,2.513943,-0.179582,0.391776,-0.061832,-36.144421,188.571502,1178.910670,15.338875,0
0.011458,-178.278971,10.477036,147.197538,5.653758,4.101587,-0.572970,-3.393485,-3.947626,0.706277,3.318017,-0.230724,0.410328,-0.046895,-39.130261,188.571590,1178.994704,15.832334,0
0.012500,-131.888144,-53.769212,184.510985,6.411528,3.185615,1.137490,-4.188267,-3.006634,-0.934630,3.933524,-0.212459,0.402097,-0.035692,-36.483721,188.496230,1177.632336,17.167732,0
0.013542,-57.798931,-107.335940,195.725948,6.615108,1.815208,2.760641,-4.128565,-1.591470,-2.621700,4.065165,-0.208806,0.387399,-0.024490,-20.683651,188.571494,1176.451095,16.899106,0
0.014583,5.560277,-163.717519,164.592425,6.060918,0.253085,3.760724,-3.572591,-0.073385,-3.570153,3.424752,-0.186888,0.390796,-0.028224,-4.827031,188.571574,1174.768024,17.085475,0
0.015625,66.356080,-185.861816,112.420076,5.043018,-1.493652,4.240922,-2.184521,1.679947,-4.174477,2.215084,-0.146705,0.403665,-0.073035,7.704448,188.571576,1174.499016,16.803132,0
0.016667,123.760475,-188.785395,32.573485,3.527478,-2.952816,4.157582,-0.729287,3.146572,-4.073756,0.749251,-0.146705,0.398439,-0.005818,20.529988,188.496073,1173.704643,17.575558,0
0.017708,164.922409,-155.381695,-37.424621,2.136348,-3.755179,3.383708,0.755798,4.010373,-3.385499,-0.645424,-0.106522,0.401444,-0.054364,32.846578,188.571533,1173.489995,18.143196,0
0.018750,186.824777,-81.361996,-91.443561,1.152378,-4.305472,1.947081,2.561782,4.458814,-1.979606,-2.363864,-0.095563,0.400856,-0.069301,41.566588,188.647074,1172.733064,18.047171,0
0.019792,177.966285,-10.664546,-147.124432,0.100548,-3.978847,0.712851,3.319250,4.267675,-0.745779,-3.199958,-0.062686,0.409152,-0.054364,44.394087,188.571494,1172.328585,18.147283,0
0.020833,131.768280,53.823319,-184.573296,-0.611982,-3.098378,-1.033326,4.028210,3.392847,0.970669,-3.847487,-0.048074,0.397655,-0.069301,39.428998,188.496199,1172.477463,18.291620,0
0.021875,57.917259,107.752475,-195.800569,-0.815562,-1.720870,-2.592979,4.039404,2.032819,2.632559,-3.968453,-0.059033,0.397394,-0.024490,27.146338,188.646884,1172.683241,18.771012,0
0.022917,-6.031758,164.170297,-164.679357,-0.250062,-0.087742,-3.624811,3.427459,0.408138,3.627175,-3.345830,-0.059033,0.395565,-0.046895,10.158718,188.646969,1172.985925,18.538835,0
0.023958,-66.680109,185.964248,-111.965341,0.745218,1.644794,-4.112947,2.050584,-1.334168,4.139172,-2.097026,-0.124787,0.383153,-0.035692,-3.549001,188.571516,1172.725495,18.732099,0
0.025000,-124.129874,189.044878,-31.872538,2.260758,3.146562,-3.997858,0.554305,-2.833874,4.046844,-0.627635,-0.154011,0.394454,-0.024490,-15.628081,188.496214,1172.380474,18.347917,0
0.026042,-165.042273,155.242509,37.682386,3.572718,3.899221,-3.243827,-0.927049,-3.741784,3.429931,0.809735,-0.168623,0.405690,-0.009553,-28.849471,188.571605,1173.357212,17.918068,0
0.027083,-187.897411,81.693965,91.750568,4.579308,4.463715,-1.838948,-2.721838,-4.131414,1.990465,2.538848,-0.194194,0.400072,-0.046895,-36.099181,188.647145,1174.054895,17.751333,0
0.028125,-178.222258,11.685126,147.492993,5.665068,4.108687,-0.533284,-3.468112,-3.899841,0.723064,3.353595,-0.186888,0.410916,-0.046895,-39.944581,188.571522,1174.008327,17.222968,0
0.029167,-132.251104,-52.935629,185.261932,6.400218,3.235319,1.220830,-4.203192,-3.006634,-0.989187,4.001123,-0.212459,0.413529,-0.043161,-36.540271,188.493512,1175.176068,16.181682,0
0.030208,-58.411426,-107.408425,195.455114,6.615108,1.758403,2.836044,-4.124833,-1.598822,-2.659471,4.100743,-0.219765,0.408042,-0.013287,-22.278361,188.571151,1175.918246,15.862008,0
0.031250,5.889210,-164.188674,164.727841,6.026988,0.167878,3.867876,-3.542740,0.003805,-3.675070,3.424752,-0.219765,0.380344,-0.017021,-5.471701,188.721965,1177.137643,14.518451,0
0.032292,66.730382,-185.487308,111.595265,4.997778,-1.557557,4.272671,-2.150939,1.768165,-4.166083,2.211526,-0.168623,0.392168,-0.028224,8.575318,188.571109,1177.228972,13.818793,0
0.033333,123.647050,-189.389440,31.219318,3.527478,-3.030922,4.201237,-0.688242,3.216411,-4.103133,0.727904,-0.154011,0.394062,-0.050629,20.405578,188.495656,1178.142933,13.380570,0
0.034375,164.355284,-154.753488,-37.917046,2.249448,-3.815534,3.411488,0.755798,4.116970,-3.402285,-0.681003,-0.088257,0.404122,-0.054364,33.265048,188.497549,1179.250267,12.783040,0
0.035428,188.741660,-79.199515,-92.194508,1.163688,-4.380028,1.966924,2.658797,4.528654,-1.992197,-2.445695,-0.080951,0.402554,-0.050629,41.702308,188.721936,1180.976204,12.759713,0
0.036466,176.650555,-10.640384,-148.232387,0.100548,-3.943344,0.633480,3.349101,4.249297,-0.699615,-3.242653,-0.048074,0.411047,-0.020755,44.914347,188.572881,1181.037286,12.127720,0
0.037500,132.324063,52.856847,-185.275001,-0.657222,-3.116129,-1.049200,4.076718,3.359765,0.987455,-3.922201,-0.055380,0.412484,-0.024490,40.797508,188.500423,1181.913725,11.152921,0
0.038542,58.847344,107.837041,-195.283523,-0.826872,-1.628562,-2.628696,4.046867,1.992386,2.636756,-3.982685,-0.029809,0.400791,-0.054364,27.474328,188.496096,1181.925694,10.529417,0
0.039584,-5.725511,164.544805,-164.728599,-0.238752,-0.059339,-3.676402,3.464773,0.393435,3.685929,-3.356504,-0.059033,0.406147,-0.013287,9.219988,188.721547,1182.739314,10.057334,0
0.040625,-66.657424,185.879681,-111.608334,0.790458,1.705149,-4.105009,2.046852,-1.359898,4.185335,-2.086352,-0.091910,0.376098,-0.043161,-3.628171,188.570749,1183.246585,9.691926,0
0.041666,-123.868996,189.516033,-30.739962,2.305998,3.174964,-4.029606,0.524454,-2.863280,4.072025,-0.602730,-0.110175,0.392168,-0.005818,-15.300091,188.495387,1183.725228,9.450000,0
0.042708,-164.543203,154.928405,38.556440,3.640578,3.977327,-3.243827,-0.938243,-3.778542,3.413144,0.827524,-0.146705,0.397459,-0.061832,-28.374451,188.495278,1183.853877,9.168770,0
0.043750,-188.078891,80.377147,91.615152,4.613238,4.502768,-1.850854,-2.740495,-4.208604,1.986268,2.531733,-0.164970,0.400203,-0.043161,-36.189661,188.721612,1184.523054,9.473462,0
0.044791,-178.120176,11.600560,147.554546,5.631138,4.158391,-0.521378,-3.475575,-3.943950,0.718867,3.367827,-0.194194,0.394258,-0.017021,-39.062401,188.570631,1185.106109,9.561966,0
0.045833,-132.580037,-52.416150,185.421970,6.377598,3.228218,1.216862,-4.251700,-2.999283,-1.031154,4.018913,-0.205153,0.397590,-0.050629,-36.528961,188.495296,1185.463711,8.794559,0
0.046875,-59.670443,-107.408425,195.479735,6.592488,1.811657,2.828107,-4.132296,-1.642931,-2.718224,4.100743,-0.223418,0.412092,-0.035692,-20.751511,188.507202,1186.238885,8.409716,0
0.047918,4.993152,-164.539020,164.690910,6.038298,0.157228,3.899624,-3.587516,-0.032952,-3.738021,3.463889,-0.205153,0.407323,-0.017021,-4.555591,188.721889,1187.363109,8.532142,0
0.048961,66.662327,-185.716845,111.398296,4.997778,-1.585959,4.296483,-2.162133,1.746111,-4.254214,2.193737,-0.172276,0.400007,0.005384,7.930648,188.571033,1188.202248,8.517075,0
0.050000,124.066722,-189.389440,30.862311,3.516168,-3.062875,4.221079,-0.647197,3.267871,-4.140903,0.695884,-0.128440,0.396283,-0.017021,20.552608,188.495758,1189.024501,8.029182,0
0.051041,164.502736,-154.717245,-38.458712,2.181588,-3.833285,3.431331,0.793112,4.146376,-3.423269,-0.702350,-0.121134,0.399615,-0.020755,32.823958,188.495649,1189.629734,7.963366,0
0.052083,188.061110,-79.513618,-91.061932,1.197618,-4.419081,1.966924,2.640140,4.587466,-1.988000,-2.452811,-0.055380,0.411700,-0.054364,41.792788,188.721780,1190.015950,7.534625,0
0.053125,177.523927,-10.193391,-147.358334,0.123168,-4.032101,0.657291,3.423728,4.319136,-0.687025,-3.278231,-0.062686,0.429664,-0.002084,44.314917,188.495834,1191.105132,7.364763,0
0.054166,131.303238,53.110546,-185.841288,-0.634602,-3.162283,-1.140477,4.184927,3.367117,1.046209,-3.982685,-0.062686,0.423197,-0.031958,39.519478,188.495714,1192.015276,6.884105,0
0.055208,58.915399,107.776637,-195.345076,-0.804252,-1.681816,-2.743785,4.110300,1.966656,2.758460,-4.021821,-0.051727,0.413921,-0.054364,27.372538,188.495680,1193.275501,5.542866,0
0.056250,-4.784083,165.233416,-164.913258,-0.227442,-0.048689,-3.759743,3.490893,0.338299,3.778256,-3.402756,-0.080951,0.410524,-0.050629,10.022998,188.646478,1194.903369,4.490783,0
0.057291,-66.283121,185.891762,-112.002273,0.745218,1.737101,-4.208193,2.002076,-1.426062,4.290253,-2.114815,-0.095563,0.401117,-0.028224,-3.503761,188.495640,1196.639638,3.756352,0
0.058338,-125.241439,190.023431,-30.419886,2.272068,3.285023,-4.144695,0.494603,-2.984580,4.164352,-0.520900,-0.106522,0.394846,-0.046895,-15.842971,188.495649,1198.828013,2.455655,0
0.059375,-164.690655,154.578059,38.421023,3.584028,4.034131,-3.231921,-1.057647,-3.877787,3.408947,0.920028,-0.172276,0.399092,-0.046895,-28.713751,188.495676,1199.981498,0.948485,0
0.060416,-189.360594,79.277784,91.344318,4.556688,4.559573,-1.787356,-2.852436,-4.256389,1.973678,2.638468,-0.183235,0.389359,-0.009553,-36.268831,188.570944,1201.300821,-0.044011,0
0.061458,-177.575736,10.138771,147.517614,5.676378,4.186793,-0.481692,-3.591247,-4.017465,0.630736,3.460331,-0.208806,0.403077,-0.035692,-39.921961,188.517196,1202.669720,-0.947591,0
0.062500,-131.026114,-52.911467,186.566857,6.400218,3.277922,1.316076,-4.303939,-3.054419,-1.077317,4.118532,-0.234377,0.404383,-0.069301,-36.449791,188.516898,1204.437565,-0.809008,0
0.063541,-58.105178,-107.505073,195.270455,6.558558,1.815208,2.911447,-4.240506,-1.613525,-2.764388,4.164784,-0.212459,0.407323,-0.013287,-22.402771,188.501478,1205.188249,-0.985502,0
0.064583,5.378797,-165.143066,165.195644,6.038298,0.132376,3.986933,-3.621098,0.044239,-3.826151,3.556393,-0.168623,0.403077,-0.058098,-5.652661,188.505646,1207.280318,-1.666550,0
0.065625,66.117887,-185.257771,112.173864,5.009088,-1.664065,4.363948,-2.184521,1.808599,-4.254214,2.179506,-0.179582,0.401444,0.005384,8.224708,188.502868,1207.388563,-2.791250,0
0.066666,124.565792,-190.053890,31.760985,3.493548,-3.169383,4.280608,-0.636003,3.326683,-4.212247,0.706557,-0.150358,0.398439,-0.043161,20.405578,188.503764,1209.008195,-3.079195,0
0.067708,164.582134,-154.330657,-37.904735,2.170278,-3.925592,3.399583,0.886396,4.208863,-3.469432,-0.752160,-0.132093,0.400856,-0.050629,33.231118,188.510141,1210.097357,-3.658145,0
0.068750,189.399525,-79.429052,-90.729546,1.186308,-4.447483,1.943112,2.767007,4.635250,-1.979606,-2.563104,-0.073645,0.399419,-0.020755,41.645758,188.361022,1211.606291,-4.895762,0
0.069791,177.138282,-10.072582,-147.432197,0.145788,-4.035651,0.605700,3.468504,4.355893,-0.649255,-3.313810,-0.099216,0.391449,-0.024490,45.151857,188.513752,1212.206407,-5.338857,0
0.070833,130.668058,53.231355,-186.469129,-0.589362,-3.144531,-1.188100,4.166271,3.451659,1.113356,-4.011148,-0.059033,0.376424,-0.031958,40.820128,188.512431,1213.486850,-5.303048,0
0.071875,57.531614,107.716232,-195.221970,-0.770322,-1.681816,-2.795377,4.125226,1.985035,2.821410,-4.036052,-0.037115,0.400791,-0.024490,27.372538,188.502656,1214.003358,-5.306743,0
0.072930,-7.642394,166.405264,-164.765531,-0.216132,-0.020286,-3.886737,3.517012,0.297865,3.853797,-3.395640,-0.037115,0.409609,-0.031958,8.541388,188.497891,1214.944755,-5.260932,0
0.073971,-67.428714,185.203151,-110.377273,0.801768,1.797456,-4.184381,2.035658,-1.510604,4.298646,-2.093468,-0.106522,0.402881,-0.035692,-3.447211,188.484606,1214.980774,-5.735098,0
0.075006,-125.230096,190.083836,-31.207765,2.283378,3.320526,-4.112947,0.531916,-3.028689,4.218909,-0.535131,-0.121134,0.402946,-0.043161,-15.514981,188.495801,1216.041546,-5.949785,0
0.076046,-164.940190,154.360603,38.162500,3.584028,4.080285,-3.263670,-1.050185,-3.903517,3.429931,0.898681,-0.132093,0.402881,-0.046895,-28.578031,188.496111,1216.466627,-5.655182,0
0.077087,-189.995774,79.422755,91.479735,4.613238,4.616377,-1.807199,-2.856168,-4.274768,1.944301,2.663373,-0.172276,0.401836,-0.020755,-36.483721,188.420652,1216.888277,-6.210984,0
0.078130,-177.235461,10.489117,148.133144,5.676378,4.158391,-0.449944,-3.587516,-4.010114,0.639130,3.449657,-0.197847,0.410589,-0.050629,-39.073711,188.496134,1216.775544,-6.047477,0
0.079171,-130.799264,-53.032276,187.083902,6.411528,3.285023,1.347825,-4.307671,-3.054419,-1.123481,4.143437,-0.234377,0.403730,-0.050629,-36.438481,188.495984,1217.315693,-6.536780,0
0.080226,-56.279036,-109.196399,194.679546,6.569868,1.758403,2.967007,-4.247969,-1.543686,-2.802158,4.129206,-0.208806,0.385374,-0.031958,-20.072911,188.496091,1216.811001,-6.829804,0
0.081262,7.930860,-166.012891,164.740152,6.026988,0.143027,4.022650,-3.677069,0.106726,-3.817758,3.510141,-0.201500,0.394977,-0.013287,-3.854371,188.345321,1216.364087,-6.892494,0
0.082296,66.787095,-185.547712,110.905872,5.076948,-1.671166,4.395697,-2.177058,1.860059,-4.354935,2.211526,-0.168623,0.408695,-0.054364,7.772308,188.496040,1217.971738,-6.781404,0
0.083340,125.098890,-190.223022,30.726894,3.538788,-3.162283,4.356011,-0.650928,3.378144,-4.233230,0.674537,-0.135746,0.399745,-0.054364,20.654398,188.496013,1218.651600,-7.133969,0
0.084381,164.865697,-154.137362,-37.941667,2.192898,-3.936243,3.463080,0.856545,4.230918,-3.498809,-0.755718,-0.099216,0.409152,-0.028224,33.072778,188.496056,1219.195890,-6.977013,0
0.085419,189.569663,-80.129744,-90.926515,1.174998,-4.497187,1.958987,2.711036,4.649953,-1.979606,-2.545315,-0.062686,0.404514,-0.043161,42.098158,188.270087,1219.422942,-6.921484,0
0.086461,177.092912,-11.014892,-148.158523,0.089238,-4.042752,0.625543,3.472236,4.374272,-0.653452,-3.342272,-0.055380,0.418363,-0.020755,44.190507,188.494891,1220.076300,-7.136350,0
0.087500,131.031018,52.603148,-186.813826,-0.645912,-3.155182,-1.211912,4.229704,3.422253,1.092373,-4.032495,-0.022503,0.413986,-0.013287,39.530788,188.473031,1220.131666,-7.418451,0
0.088541,57.781149,107.728313,-195.455872,-0.770322,-1.667615,-2.799345,4.125226,1.951953,2.796230,-4.057400,-0.055380,0.411765,-0.043161,27.123718,188.488552,1220.141901,-7.573087,0
0.089583,-6.553513,165.390468,-165.159470,-0.261372,0.001015,-3.851020,3.550595,0.334623,3.878977,-3.367177,-0.051727,0.390339,-0.024490,9.321778,188.281758,1219.957368,-7.973871,0
0.090625,-66.566684,185.843438,-110.845076,0.767838,1.804557,-4.220098,2.080435,-1.510604,4.311236,-2.061448,-0.088257,0.403338,-0.054364,-3.503761,188.438650,1220.033691,-8.607553,0
0.091666,-124.560889,190.422101,-30.493750,2.294688,3.348928,-4.184381,0.509528,-3.047067,4.223106,-0.538689,-0.102869,0.395630,-0.046895,-15.616771,188.427931,1220.169269,-8.676389,0
0.092708,-164.577230,154.227713,38.039394,3.595338,4.101587,-3.279544,-1.068841,-3.896166,3.442521,0.952049,-0.146705,0.403077,-0.054364,-28.747681,188.495577,1220.184162,-9.225384,0
0.093750,-190.165912,79.833506,90.827273,4.613238,4.630578,-1.834979,-2.915870,-4.351959,1.952695,2.706067,-0.190541,0.398047,-0.009553,-36.472411,188.269453,1221.390396,-9.794054,0
0.094791,-177.416941,12.071715,148.059281,5.698998,4.186793,-0.449944,-3.658412,-4.043196,0.634933,3.503025,-0.205153,0.409936,-0.046895,-39.899341,188.495678,1222.334192,-10.520503,0
0.095833,-131.604581,-51.630892,187.305493,6.468078,3.256621,1.383542,-4.333790,-3.109555,-1.178038,4.203921,-0.234377,0.414313,-0.009553,-36.483721,188.420385,1223.776576,-11.363671,0
0.096875,-59.001236,-107.360102,195.171970,6.592488,1.726451,2.982881,-4.244237,-1.602498,-2.827338,4.189689,-0.219765,0.413921,-0.035692,-22.267051,188.495763,1225.042678,-11.976393,0
0.097916,5.832497,-165.324279,165.380304,6.015678,0.096873,3.990902,-3.643487,0.073645,-3.863922,3.492351,-0.194194,0.411634,-0.058098,-5.143711,188.269474,1225.319220,-12.751420,0
0.098958,66.322052,-185.318175,111.078220,5.031708,-1.724420,4.383791,-2.117356,1.878438,-4.308771,2.175948,-0.168623,0.400464,0.005384,8.383048,188.344784,1224.528528,-13.401379,0
0.100000,124.395655,-190.573369,30.222159,3.482238,-3.201336,4.324263,-0.602420,3.433280,-4.224837,0.621169,-0.113828,0.395630,-0.039427,20.382958,188.420383,1224.676840,-14.532146,0
0.101041,164.060379,-153.714530,-38.360227,2.249448,-3.936243,3.379740,0.975949,4.197836,-3.423269,-0.805528,-0.124787,0.399484,-0.002084,33.219808,188.495696,1223.459508,-15.444155,0
0.102083,189.898595,-78.800845,-90.446402,1.220238,-4.475885,1.943112,2.770738,4.668332,-1.992197,-2.563104,-0.073645,0.401052,-0.035692,41.838028,188.269541,1223.696458,-15.273679,0
0.103127,176.843377,-10.773274,-147.986175,0.100548,-4.046302,0.601731,3.517012,4.315460,-0.619878,-3.370735,-0.062686,0.413137,-0.039427,45.095307,188.269695,1223.197927,-16.055709,0
0.104167,131.099073,51.974941,-187.072349,-0.668532,-3.172933,-1.219849,4.203584,3.389171,1.125946,-4.036052,-0.044421,0.413660,-0.039427,40.752268,188.420092,1223.117446,-16.882180,0
0.105208,59.040167,107.583342,-194.938826,-0.872112,-1.635663,-2.795377,4.125226,1.962980,2.800427,-4.043168,-0.033462,0.413202,-0.046895,27.406468,188.495712,1223.014059,-17.156624,0
0.106250,-5.453291,165.475034,-165.073296,-0.283992,0.015216,-3.847051,3.490893,0.301541,3.816026,-3.345830,-0.055380,0.409544,-0.020755,8.880688,188.269536,1222.156276,-17.602844,0
0.107292,-66.249094,185.710549,-111.300569,0.756528,1.772604,-4.224067,2.013270,-1.488549,4.290253,-2.043658,-0.091910,0.398308,-0.039427,-3.379351,188.345124,1221.683247,-17.705040,0
0.108333,-124.504176,190.385858,-30.493750,2.272068,3.306324,-4.089135,0.490871,-3.028689,4.218909,-0.524458,-0.128440,0.394127,-0.039427,-15.322711,188.420325,1221.428110,-17.744227,0
0.109375,-164.486490,154.276036,38.482576,3.606648,4.058983,-3.227952,-1.046453,-3.859408,3.375374,0.952049,-0.146705,0.395630,-0.046895,-28.351831,188.495772,1220.437625,-17.987227,0
0.110417,-189.768924,78.746224,90.765720,4.613238,4.584425,-1.803231,-2.856168,-4.285795,1.935908,2.684720,-0.186888,0.395956,-0.028224,-36.325381,188.269530,1219.184625,-17.703919,0
0.111458,-177.371571,10.307903,147.628410,5.665068,4.161941,-0.493598,-3.568859,-4.021141,0.643327,3.438984,-0.208806,0.403273,-0.061832,-39.062401,188.344943,1218.178476,-16.839303,0
