1-Time,2-VGERA,3-VGERB,4-VGERC,5-VN,6-IGERAN,7-IGERBN,8-IGERCN,9-IGERAT,10-IGERBT,11-IGERCT,12-IN,13-IFD,14-IFAULT,15-VFAULT,16-Speed (rad/s),17-Active Power,18-Reactive Power,19-FAULT 
0.000000,-125.343521,196.088045,-32.192614,2.238138,4.211645,-5.490045,0.796844,-3.995411,5.599621,-0.873127,-0.113828,0.443252,-0.065566,12.284998,188.345129,1605.576826,0.914694,0
0.001042,-165.643425,150.289338,33.841477,3.504858,5.312232,-4.299470,-1.378545,-5.153272,4.428743,1.215329,-0.168623,0.446257,-0.073035,8.043748,188.495881,1606.854852,-0.746855,0
0.002083,-199.512132,75.460219,85.324432,4.466208,6.075541,-2.485827,-3.691994,-5.818583,2.640952,3.478120,-0.186888,0.443317,-0.035692,2.490538,188.420475,1608.132178,-2.668496,0
0.003125,-174.808166,11.624722,147.874622,5.665068,5.440042,-0.501535,-4.863645,-5.300302,0.727260,4.605957,-0.241683,0.463699,-0.050629,-0.868532,188.495781,1608.846749,-4.780411,0
0.004167,-128.689559,-48.948931,191.725001,6.524628,4.318154,1.756589,-5.759173,-4.230659,-1.538954,5.595039,-0.234377,0.461151,-0.084238,-5.516941,188.345142,1610.066055,-5.532327,0
0.005208,-56.857503,-106.417791,197.141667,6.682968,2.305146,3.784535,-5.587530,-2.190618,-3.603727,5.442051,-0.241683,0.451679,-0.013287,-9.780811,188.495763,1611.388113,-7.230342,0
0.006250,8.520670,-165.892082,170.390720,6.151398,0.196281,5.237037,-4.789017,-0.066034,-5.118733,4.716251,-0.234377,0.459714,-0.043161,-12.483901,188.420538,1612.044652,-7.919581,0
0.007292,63.395687,-188.217592,109.514773,5.009088,-2.175305,5.796607,-2.908407,2.253364,-5.643319,2.940885,-0.194194,0.447955,-0.073035,-11.714821,188.495926,1613.190617,-9.052176,0
0.008333,124.996807,-195.876885,32.536553,3.550098,-4.120858,5.625958,-0.893467,4.275027,-5.605549,1.016090,-0.154011,0.443317,-0.106643,-7.462261,188.420477,1614.539894,-9.467735,0
0.009375,165.160602,-150.331877,-33.226705,2.339928,-5.242746,4.423477,1.315504,5.407158,-4.510212,-1.111502,-0.102869,0.445930,-0.073035,-4.747861,188.496002,1616.280338,-10.970922,0
0.010417,199.074678,-75.683971,-85.042046,1.322028,-5.906648,2.621740,3.520744,6.127605,-2.634291,-3.313810,-0.048074,0.447302,-0.069301,2.728048,188.420538,1617.530362,-11.942297,0
0.011458,174.756357,-12.162578,-147.850758,0.157098,-5.327952,0.613637,4.737170,5.543161,-0.745779,-4.473668,-0.059033,0.440769,-0.039427,5.815678,188.495834,1618.019944,-13.051199,0
0.012500,128.615065,48.797663,-191.861175,-0.736392,-4.259318,-1.604802,5.643893,4.466166,1.570796,-5.402266,-0.026156,0.454096,-0.046895,10.758148,188.420493,1618.363409,-13.710711,0
0.013542,56.828379,106.520223,-197.253220,-0.872112,-2.189506,-3.692277,5.453593,2.455531,3.631372,-5.274183,-0.000585,0.441945,-0.073035,14.727958,188.495987,1618.822024,-14.643969,0
0.014583,-8.810671,166.079080,-170.157576,-0.329232,-0.055789,-5.132873,4.666274,0.323596,5.142181,-4.573287,-0.022503,0.409348,-0.054364,17.329258,188.495902,1618.763221,-14.497103,0
0.015625,-63.697031,188.464995,-109.060038,0.824388,2.301596,-5.624977,2.781932,-1.999479,5.637391,-2.762343,-0.077298,0.449654,-0.046895,17.001268,188.495942,1618.550366,-15.078382,0
0.016667,-124.991904,196.281340,-31.995644,2.260758,4.257799,-5.497982,0.804306,-4.046871,5.624801,-0.841106,-0.124787,0.447694,-0.069301,12.477268,188.420544,1619.136120,-15.828225,0
0.017708,-165.167040,150.772574,33.607576,3.504858,5.333533,-4.279627,-1.386008,-5.142245,4.500087,1.218887,-0.172276,0.450307,-0.069301,9.072958,188.495893,1619.636892,-15.551344,0
0.018750,-199.534817,76.487095,85.189015,4.511448,6.050689,-2.473921,-3.617367,-5.847989,2.695509,3.456773,-0.219765,0.447171,-0.069301,2.456608,188.498108,1620.311144,-15.124207,0
0.019792,-175.341263,13.328129,147.862311,5.665068,5.464894,-0.469787,-4.859913,-5.359114,0.760834,4.613073,-0.252642,0.458864,-0.054364,-0.913772,188.495966,1621.295020,-15.196088,0
0.020833,-129.279369,-48.006620,192.045076,6.558558,4.346556,1.788338,-5.762905,-4.256389,-1.530560,5.602154,-0.241683,0.465201,-0.050629,-5.562181,188.420504,1621.730893,-15.366708,0
0.021875,-57.764903,-106.236578,197.178599,6.682968,2.340649,3.804378,-5.602456,-2.293539,-3.591136,5.434936,-0.270907,0.453377,-0.046895,-9.633781,188.495843,1622.104199,-14.520729,0
0.022917,8.418587,-166.157862,170.242993,6.128778,0.196281,5.300534,-4.811405,-0.077061,-5.156503,4.705577,-0.256295,0.434629,-0.054364,-12.551761,188.495933,1622.428487,-14.635619,0
0.023958,63.531797,-188.241754,108.997728,4.975158,-2.182406,5.776764,-2.930795,2.227634,-5.685286,2.951559,-0.172276,0.454553,-0.054364,-12.031501,188.495906,1622.812191,-14.112236,0
0.025000,124.656532,-196.178908,31.564015,3.572718,-4.127958,5.677550,-0.915855,4.293406,-5.634926,1.037437,-0.143052,0.443317,-0.046895,-7.892041,188.420475,1623.319785,-13.703536,0
0.026042,164.740929,-150.150664,-33.571402,2.317308,-5.271148,4.479037,1.252071,5.414509,-4.564769,-1.118618,-0.110175,0.449915,-0.069301,-4.555591,188.495902,1623.747906,-13.320884,0
0.027083,199.256158,-75.708133,-84.869697,1.355958,-5.970553,2.689206,3.539400,6.153335,-2.726618,-3.342272,-0.077298,0.451483,-0.013287,2.626258,188.495930,1624.782912,-12.705576,0
0.028125,174.937837,-13.189455,-147.961553,0.123168,-5.377656,0.645385,4.793141,5.616676,-0.737385,-4.498573,0.014027,0.460824,-0.043161,5.985328,188.495759,1625.932628,-13.019939,0
0.029167,129.477095,48.012405,-192.045834,-0.702462,-4.248668,-1.648456,5.714789,4.473517,1.579189,-5.466307,-0.026156,0.465854,-0.031958,10.588498,188.420481,1626.983539,-13.717330,0
0.030208,58.325589,106.411495,-197.265531,-0.860802,-2.246311,-3.747837,5.498370,2.492288,3.635569,-5.320435,-0.004238,0.462784,-0.046895,14.863678,188.495848,1627.927849,-13.814320,0
0.031250,-8.039381,165.982432,-170.526894,-0.397092,-0.045138,-5.196370,4.711051,0.275811,5.175755,-4.569729,-0.022503,0.456839,-0.046895,17.091748,188.420526,1628.326310,-14.956858,0
0.032292,-63.538236,188.996554,-108.542993,0.847008,2.369051,-5.724192,2.785664,-1.999479,5.721325,-2.769459,-0.040768,0.433257,-0.076769,16.741138,188.495919,1629.438245,-14.876077,0
0.033333,-124.799081,196.462553,-31.146212,2.305998,4.275550,-5.545605,0.774455,-4.076277,5.612211,-0.819759,-0.150358,0.440965,-0.039427,12.171898,188.345140,1629.442698,-15.183844,0
0.034375,-165.495973,149.624888,33.989205,3.538788,5.383237,-4.319313,-1.419590,-5.201057,4.504284,1.265139,-0.157664,0.444232,-0.050629,7.975888,188.495904,1630.013153,-15.517695,0
0.035417,-199.738982,75.121953,84.955114,4.511448,6.096843,-2.521544,-3.632293,-5.925180,2.691313,3.510141,-0.186888,0.440704,-0.039427,2.581018,188.420578,1631.003846,-15.730912,0
0.036458,-174.921591,12.856974,148.071591,5.710308,5.521698,-0.493598,-4.904690,-5.381169,0.735654,4.666441,-0.252642,0.456774,-0.039427,-0.755432,188.495852,1631.620863,-16.039683,0
0.037500,-129.812466,-47.656274,191.934281,6.558558,4.417562,1.776432,-5.811413,-4.311525,-1.555740,5.666196,-0.263601,0.467226,-0.050629,-5.516941,188.420562,1632.969075,-16.315464,0
0.038542,-58.910496,-106.236578,197.117046,6.660348,2.354850,3.836127,-5.636038,-2.275160,-3.633103,5.498977,-0.281866,0.463894,-0.043161,-9.882601,188.496199,1634.111839,-17.163635,0
0.039583,7.397762,-165.892082,170.636932,6.196638,0.164328,5.300534,-4.856182,-0.099116,-5.190076,4.744713,-0.219765,0.461804,-0.069301,-12.506521,188.420074,1634.896321,-17.360430,0
0.040625,62.998700,-188.785395,109.256250,4.986468,-2.232110,5.804544,-2.900944,2.286446,-5.693680,2.962232,-0.212459,0.449850,-0.084238,-11.782681,188.495673,1635.507801,-18.134245,0
0.041667,124.645190,-196.203070,31.822538,3.561408,-4.174112,5.645801,-0.871079,4.311784,-5.672696,0.969838,-0.168623,0.442795,-0.091706,-7.428331,188.495752,1635.917224,-19.040665,0
0.042708,165.001807,-149.522457,-33.706818,2.317308,-5.303100,4.498880,1.296847,5.418185,-4.514409,-1.154197,-0.121134,0.443970,-0.013287,-4.578211,188.495633,1635.480617,-19.623607,0
0.043750,199.346898,-74.161778,-84.697349,1.299408,-6.002505,2.645552,3.550595,6.171714,-2.659471,-3.349388,-0.051727,0.455272,-0.061832,2.818528,188.495807,1635.085754,-19.947471,0
0.044792,174.642932,-11.631018,-147.653788,0.123168,-5.381206,0.657291,4.785678,5.546836,-0.775156,-4.491457,-0.033462,0.479050,-0.061832,5.826988,188.495707,1634.063120,-19.222790,0
0.045833,128.807887,48.254023,-191.922728,-0.713772,-4.273520,-1.616707,5.688670,4.499248,1.583386,-5.484096,-0.004238,0.460432,-0.035692,10.735528,188.495645,1634.294832,-18.859790,0
0.046875,58.370959,106.230281,-197.203978,-0.826872,-2.239210,-3.704182,5.524489,2.484937,3.593602,-5.334667,-0.022503,0.464352,-0.073035,14.795818,188.495662,1634.064579,-18.588898,0
0.047917,-6.950501,166.199889,-170.551516,-0.351852,-0.052239,-5.192401,4.714782,0.327271,5.146378,-4.601750,-0.026156,0.459452,-0.065566,17.329258,188.495680,1634.170359,-18.000310,0
0.048958,-63.027823,188.549561,-109.638637,0.801768,2.283844,-5.688474,2.796858,-2.014182,5.666768,-2.808595,-0.055380,0.448543,-0.058098,16.967338,188.495785,1633.845754,-18.231595,0
0.050000,-125.059959,196.450472,-32.020265,2.249448,4.264900,-5.513857,0.796844,-4.046871,5.654178,-0.894474,-0.117481,0.444689,-0.031958,12.465958,188.495640,1634.402886,-17.211218,0
0.051042,-165.167040,150.349743,33.890720,3.504858,5.365486,-4.339156,-1.412127,-5.193705,4.483300,1.247350,-0.154011,0.444820,-0.050629,8.948548,188.495689,1634.184656,-17.371389,0
0.052083,-199.784352,74.976982,84.918182,4.477518,6.064891,-2.469953,-3.673338,-5.859016,2.670329,3.488793,-0.179582,0.446649,-0.058098,2.343508,188.420508,1633.152247,-17.338906,0
0.053125,-175.103071,11.685126,147.431440,5.653758,5.493296,-0.529315,-4.833794,-5.359114,0.756637,4.613073,-0.219765,0.444754,-0.073035,-0.891152,188.495669,1632.252037,-16.534575,0
0.054167,-128.576134,-48.248238,192.069698,6.558558,4.389159,1.752620,-5.781562,-4.249038,-1.580921,5.602154,-0.208806,0.456382,-0.054364,-5.516941,188.495797,1630.855863,-16.622107,0
0.055208,-57.617451,-105.946636,197.252463,6.694278,2.354850,3.768661,-5.609919,-2.234727,-3.616317,5.452725,-0.223418,0.454880,-0.046895,-9.667711,188.495705,1629.792646,-16.640469,0
0.056250,7.375077,-166.230347,170.464584,6.185328,0.235334,5.288629,-4.856182,-0.066034,-5.148109,4.737598,-0.227071,0.444624,-0.061832,-12.529141,188.420341,1629.345371,-16.745064,0
0.057292,62.976015,-188.024298,110.278031,4.975158,-2.143353,5.796607,-2.923332,2.249689,-5.664303,2.983579,-0.219765,0.454422,-0.024490,-12.031501,188.495653,1628.898689,-16.452135,0
0.058333,124.928752,-196.203070,32.745833,3.550098,-4.131508,5.705330,-0.908393,4.289730,-5.605549,1.005416,-0.143052,0.447694,-0.084238,-7.903351,188.495562,1628.184740,-16.325556,0
0.059375,164.877039,-150.271473,-33.349811,2.305998,-5.242746,4.427446,1.289384,5.414509,-4.459852,-1.065250,-0.099216,0.444166,-0.031958,-4.487731,188.495680,1627.623959,-15.969178,0
0.060417,199.358241,-75.200735,-84.586553,1.310718,-5.970553,2.593960,3.554326,6.131281,-2.684651,-3.367177,-0.084604,0.443774,-0.058098,2.716738,188.420291,1627.572580,-16.253611,0
0.061458,174.813069,-11.751827,-147.481440,0.168408,-5.370556,0.653323,4.744633,5.579918,-0.796139,-4.484341,-0.018850,0.439594,-0.035692,5.996638,188.495586,1627.894544,-15.905814,0
0.062500,128.512982,48.761421,-191.910417,-0.702462,-4.287721,-1.648456,5.666281,4.488220,1.520435,-5.452075,-0.022503,0.451287,-0.020755,10.543258,188.495767,1627.188067,-14.941659,0
0.063542,56.896434,106.145715,-197.462501,-0.860802,-2.203707,-3.676402,5.528221,2.484937,3.614585,-5.313319,-0.033462,0.447629,-0.017021,14.818438,188.495756,1626.937671,-14.717922,0
0.064583,-8.107436,165.922028,-170.662311,-0.329232,-0.094842,-5.140810,4.711051,0.253756,5.146378,-4.580403,-0.004238,0.464286,-0.061832,17.125678,188.420244,1626.659045,-15.342039,0
0.065625,-63.073193,188.718694,-109.503220,0.824388,2.312247,-5.664663,2.811783,-2.036236,5.691948,-2.790806,-0.066339,0.452136,-0.050629,16.741138,188.495664,1626.969780,-15.717220,0
0.066667,-124.980561,196.377987,-32.561932,2.249448,4.247148,-5.505919,0.804306,-4.068926,5.637391,-0.858895,-0.121134,0.448282,-0.039427,12.284998,188.495749,1626.845876,-16.566633,0
0.067708,-165.688795,150.591361,33.102841,3.459618,5.372586,-4.311376,-1.408396,-5.215760,4.483300,1.233119,-0.168623,0.447367,-0.058098,8.088988,188.495689,1627.240260,-16.736668,0
0.068750,-199.784352,76.402529,84.782765,4.488828,6.025838,-2.481859,-3.658412,-5.892098,2.674526,3.510141,-0.227071,0.448412,-0.046895,2.569708,188.495749,1628.000779,-17.397518,0
0.069792,-175.137098,12.675760,147.776137,5.665068,5.457793,-0.533284,-4.852451,-5.311329,0.727260,4.630862,-0.248989,0.462849,-0.043161,-0.845912,188.495712,1627.781784,-18.381271,0
0.070833,-129.188629,-48.224077,191.737311,6.502008,4.371408,1.784369,-5.759173,-4.267416,-1.547347,5.587923,-0.267254,0.471603,-0.028224,-5.528251,188.495754,1627.700358,-17.992929,0
0.071875,-57.390601,-105.934555,197.314016,6.649038,2.333548,3.824221,-5.594993,-2.212672,-3.612120,5.463398,-0.241683,0.450895,-0.084238,-9.792121,188.420365,1627.684649,-18.102491,0
0.072917,8.497985,-165.710868,170.452273,6.128778,0.199831,5.252911,-4.815137,-0.047655,-5.148109,4.741155,-0.248989,0.437634,-0.046895,-12.529141,188.495801,1627.546234,-17.964856,0
0.073958,63.202865,-188.350482,109.440909,5.009088,-2.129152,5.737078,-2.934526,2.246013,-5.622336,2.944443,-0.175929,0.444101,-0.035692,-11.714821,188.495647,1626.751141,-17.912775,0
0.075000,124.327600,-196.190989,32.388826,3.572718,-4.149260,5.649770,-0.945706,4.275027,-5.601352,1.044553,-0.150358,0.442990,-0.046895,-7.484881,188.495151,1626.515168,-17.389196,0
0.076042,164.752271,-150.645981,-32.931250,2.328618,-5.221444,4.486975,1.244608,5.396131,-4.476639,-1.026114,-0.099216,0.447041,-0.039427,-4.770481,188.420484,1626.432426,-16.966145,0
0.077083,198.949910,-76.517554,-84.525000,1.322028,-5.920849,2.653489,3.487161,6.098199,-2.739208,-3.281789,-0.040768,0.451025,-0.028224,2.660188,188.495959,1625.895687,-15.964280,0
0.078125,175.221399,-13.286102,-147.481440,0.145788,-5.320852,0.712851,4.703588,5.579918,-0.821319,-4.388279,-0.040768,0.461216,-0.035692,5.759128,188.496074,1625.203352,-15.591225,0
0.079167,129.511122,47.915757,-191.578031,-0.691152,-4.262869,-1.588927,5.640162,4.499248,1.495255,-5.423613,0.010374,0.458995,-0.005818,10.724218,188.496027,1624.947698,-15.701694,0
0.080208,58.121424,105.747045,-197.277842,-0.781632,-2.264062,-3.644654,5.464787,2.484937,3.555831,-5.274183,-0.029809,0.452855,-0.020755,14.626168,188.495991,1624.080585,-15.744794,0
0.081250,-7.948641,165.958270,-170.268372,-0.329232,-0.130345,-5.093187,4.699856,0.356677,5.100214,-4.562614,-0.007891,0.445799,-0.039427,17.351878,188.496082,1623.311218,-14.376898,0
0.082292,-63.526893,188.223377,-109.466288,0.824388,2.212839,-5.585291,2.815515,-1.929639,5.603817,-2.837058,-0.091910,0.409740,-0.087972,17.023888,188.495904,1621.999054,-12.535041,0
0.083333,-124.209271,196.559200,-31.847917,2.260758,4.186793,-5.486077,0.852814,-4.010114,5.587031,-0.873127,-0.121134,0.443970,-0.043161,12.556438,188.495895,1620.807781,-12.040190,0
0.084375,-164.543203,151.255810,33.779924,3.516168,5.287380,-4.343124,-1.285261,-5.105487,4.483300,1.129941,-0.154011,0.446583,-0.065566,9.140818,188.420452,1619.290948,-10.431675,0
0.085417,-199.251254,76.619985,84.905871,4.500138,6.000986,-2.497733,-3.609904,-5.778150,2.695509,3.396289,-0.205153,0.448543,-0.050629,2.501848,188.495933,1617.252480,-9.097020,0
0.086458,-175.817648,13.859689,147.271402,5.687688,5.500396,-0.592813,-4.755435,-5.337060,0.802801,4.566821,-0.252642,0.463307,-0.061832,-0.845912,188.495975,1617.142390,-8.245430,0
0.087500,-129.835151,-47.148876,191.737311,6.524628,4.367858,1.689123,-5.695740,-4.252713,-1.488593,5.516766,-0.245336,0.463699,-0.039427,-5.550871,188.496024,1616.070563,-8.032037,0
0.088542,-59.194058,-105.439238,197.104735,6.649038,2.344199,3.725006,-5.520366,-2.293539,-3.528186,5.424262,-0.234377,0.462719,-0.061832,-9.565921,188.420564,1615.431700,-7.193041,0
0.089583,7.159570,-166.121619,170.119887,6.094848,0.231783,5.229100,-4.811405,-0.091764,-5.068372,4.723366,-0.256295,0.455729,-0.028224,-12.551761,188.495975,1614.470757,-6.693525,0
0.090625,63.168837,-187.770599,110.130303,4.986468,-2.082998,5.685487,-2.908407,2.154119,-5.584566,2.958674,-0.223418,0.445603,-0.043161,-12.042811,188.495897,1613.633914,-5.764516,0
0.091667,124.021352,-196.311798,31.859470,3.527478,-4.028550,5.602147,-0.949438,4.208863,-5.542599,1.030321,-0.150358,0.439528,-0.035692,-7.937281,188.495969,1612.315361,-5.499437,0
0.092708,164.003666,-150.682224,-33.891477,2.317308,-5.157539,4.415540,1.188637,5.329967,-4.485032,-0.990536,-0.110175,0.444297,-0.050629,-4.657381,188.420519,1611.450513,-4.525978,0
0.093750,198.689033,-75.406111,-84.611175,1.333338,-5.895997,2.673332,3.449848,6.024684,-2.697241,-3.267558,-0.026156,0.458930,-0.054364,2.626258,188.420573,1609.999059,-4.451836,0
0.094792,175.436907,-12.887432,-147.099811,0.168408,-5.320852,0.764443,4.677468,5.521106,-0.825516,-4.420300,-0.033462,0.462457,-0.035692,5.985328,188.495933,1609.634032,-4.849393,0
0.095833,129.601862,47.565411,-191.442614,-0.668532,-4.280620,-1.537336,5.602848,4.499248,1.453288,-5.370245,-0.007891,0.462131,-0.024490,10.611118,188.495998,1608.819670,-4.373343,0
0.096875,59.380442,105.626236,-197.203978,-0.883422,-2.221459,-3.581156,5.438668,2.484937,3.518061,-5.267067,-0.015197,0.460171,-0.031958,14.739268,188.420636,1608.596514,-4.486293,0
0.097917,-6.485458,165.958270,-170.329925,-0.363162,-0.109043,-5.089218,4.711051,0.334623,5.066641,-4.548382,-0.022503,0.450764,0.009119,17.125678,188.420625,1608.140210,-5.186144,0
0.098958,-63.039166,188.295862,-109.983334,0.790458,2.251892,-5.545605,2.748350,-1.962721,5.591227,-2.769459,-0.069992,0.439202,-0.054364,16.729828,188.495884,1607.720116,-6.489871,0
0.100000,-124.095846,196.402149,-32.069508,2.249448,4.222296,-5.438454,0.804306,-3.966005,5.553457,-0.819759,-0.128440,0.436589,-0.069301,12.352858,188.496036,1606.757147,-6.952700,0
0.101042,-164.690655,150.748412,34.026136,3.493548,5.305131,-4.263753,-1.330037,-5.090784,4.437137,1.186867,-0.124787,0.439006,-0.054364,8.077678,188.420614,1606.203218,-7.686696,0
0.102083,-199.217227,75.411895,84.807387,4.522758,6.018737,-2.462016,-3.576322,-5.811231,2.687116,3.410521,-0.216112,0.443056,-0.035692,2.524468,188.495986,1606.382091,-7.571827,0
0.103125,-175.511401,12.458304,147.025190,5.687688,5.443592,-0.553127,-4.770360,-5.311329,0.769227,4.552590,-0.238030,0.470754,-0.054364,-0.778052,188.495922,1605.689567,-7.490040,0
0.104167,-129.517561,-47.644193,191.294129,6.524628,4.360757,1.693092,-5.692009,-4.267416,-1.471807,5.491861,-0.259948,0.462523,-0.039427,-5.516941,188.495987,1605.276001,-6.885562,0
0.105208,-58.910496,-105.487562,197.092425,6.637728,2.351300,3.717069,-5.535291,-2.271484,-3.570153,5.413589,-0.285519,0.456970,-0.050629,-9.633781,188.345205,1605.326675,-7.417894,0
0.106250,6.059347,-165.831677,170.366099,6.196638,0.228233,5.149728,-4.766629,-0.146900,-5.051586,4.723366,-0.245336,0.456447,-0.039427,-12.540451,188.496011,1605.144372,-7.188049,0
0.107292,62.828562,-187.698113,111.016667,4.986468,-2.079448,5.665644,-2.882287,2.143092,-5.597156,2.955116,-0.183235,0.451613,-0.035692,-11.714821,188.496047,1605.312194,-7.497875,0
0.108333,124.055380,-196.178908,32.795076,3.584028,-4.035651,5.574367,-0.945706,4.127997,-5.584566,1.001859,-0.124787,0.442468,-0.091706,-7.507501,188.495911,1605.063144,-7.326488,0
0.109375,164.139776,-151.153379,-33.571402,2.317308,-5.171740,4.431414,1.203563,5.326291,-4.434672,-1.011883,-0.106522,0.444493,-0.050629,-4.793101,188.269940,1604.752775,-8.125622,0
0.110417,198.416813,-75.454434,-84.500379,1.333338,-5.856944,2.669363,3.431191,6.032035,-2.659471,-3.256884,-0.080951,0.445146,-0.050629,2.716738,188.495893,1604.444082,-8.456772,0
0.111458,175.300797,-11.751827,-146.632008,0.111858,-5.303100,0.744600,4.595378,5.524782,-0.808729,-4.352701,-0.059033,0.442011,-0.024490,5.804368,188.495984,1603.578190,-7.824831,0
