1-Time,2-VGERA,3-VGERB,4-VGERC,5-VN,6-IGERAN,7-IGERBN,8-IGERCN,9-IGERAT,10-IGERBT,11-IGERCT,12-IN,13-IFD,14-IFAULT,15-VFAULT,16-Speed (rad/s),17-FAULT 
0.000000,-157.057153,167.504626,10.980682,3.131628,3.068456,-6.114868,2.821495,-2.962525,6.125542,-2.938159,-0.069992,0.595002,-0.009553,31.726888,188.797293,0
0.001042,-184.789566,120.171644,76.977841,4.353108,5.116966,-5.394808,0.012333,-5.072406,5.545391,-0.197194,-0.139399,0.584876,-0.005818,37.031278,188.797248,0
0.002083,-185.277294,36.088552,129.839584,5.359698,6.210452,-3.931829,-2.506902,-6.134697,4.090985,2.300130,-0.197847,0.592454,0.001650,42.539248,188.571087,0
0.003125,-159.824723,-37.713690,170.673864,6.162708,6.579681,-2.011669,-4.732291,-6.605193,2.205495,4.603302,-0.190541,0.605780,-0.013287,45.920937,188.797331,0
0.004167,-97.214120,-99.773294,182.504357,6.422838,5.631757,0.624741,-6.338646,-5.704635,-0.381011,6.221233,-0.230724,0.600946,-0.035692,33.570418,188.797268,0
0.005208,-13.926139,-145.825700,185.975948,6.445458,4.243598,2.872546,-7.047793,-4.219632,-2.657297,6.967384,-0.270907,0.586575,0.005384,16.503628,188.797326,0
0.006250,56.726297,-174.239986,143.812122,5.698998,1.967870,4.651742,-6.456184,-2.113427,-4.478326,6.396350,-0.241683,0.607740,-0.039427,-0.631022,188.571127,0
0.007292,107.529356,-199.839422,60.457008,4.092978,-0.730342,6.080432,-5.041808,0.691171,-5.960934,5.079164,-0.234377,0.602383,-0.020755,-13.445251,188.797327,0
0.008333,156.835206,-167.559246,-8.962500,2.792328,-2.910213,6.270924,-3.012316,2.771645,-6.214750,3.110999,-0.172276,0.605127,-0.024490,-27.616681,188.797307,0
0.009375,184.499565,-119.984646,-76.695455,1.525608,-4.997776,5.600392,-0.203154,4.951365,-5.614455,0.309123,-0.143052,0.588796,-0.024490,-32.400811,188.797233,0
0.010417,184.919237,-34.512251,-129.471023,0.552948,-6.069960,4.125984,2.319999,6.046738,-4.115732,-2.134904,-0.080951,0.579650,-0.039427,-37.705201,188.571093,0
0.011458,159.035651,39.072536,-170.292993,-0.227442,-6.442740,2.167726,4.564977,6.465774,-2.262472,-4.403814,-0.055380,0.590494,-0.035692,-39.899341,188.797316,0
0.012500,98.024341,99.936130,-182.320455,-0.555432,-5.562271,-0.415346,6.237937,5.657109,0.315976,-6.025552,0.017680,0.604278,-0.020755,-27.356551,188.797210,0
0.013542,15.813897,145.903970,-185.718182,-0.589362,-4.174112,-2.666962,6.947084,4.175782,2.616435,-6.855455,0.006721,0.613293,-0.046895,-13.015471,188.797340,0
0.014583,-56.222323,174.475308,-144.169887,0.213648,-1.930336,-4.480446,6.378983,2.051198,4.405233,-6.368172,0.010374,0.612378,-0.024490,5.385898,188.571038,0
0.015625,-108.046208,199.905611,-60.273106,1.763118,0.782077,-5.901517,4.976361,-0.768102,5.895899,-5.028145,-0.026156,0.602122,-0.017021,17.634628,188.797217,0
0.016667,-156.637480,167.818730,10.352841,3.142938,2.922894,-6.099628,2.935115,-2.837550,6.157772,-3.010490,-0.055380,0.592519,-0.024490,32.382868,188.721958,0
0.017708,-184.426606,119.712570,76.953220,4.375728,5.060162,-5.364329,0.125953,-4.962133,5.484958,-0.277139,-0.139399,0.573706,-0.009553,37.585468,188.797345,0
0.018750,-185.073129,36.499303,129.716478,5.382318,6.089743,-3.886111,-2.408953,-6.057507,4.123216,2.220185,-0.161317,0.586771,-0.005818,41.736238,188.571129,0
0.019792,-159.847408,-36.698894,170.760038,6.151398,6.529977,-2.057387,-4.587327,-6.568436,2.265927,4.489095,-0.219765,0.605062,0.038993,45.920937,188.797391,0
0.020833,-98.416425,-99.580000,181.802652,6.388908,5.656609,0.537114,-6.287713,-5.682580,-0.272233,6.099412,-0.241683,0.603625,-0.020755,34.407358,188.721895,0
0.021875,-14.311784,-145.475354,185.766667,6.479388,4.296852,2.746822,-6.989024,-4.289471,-2.580750,6.929315,-0.289172,0.603363,-0.039427,17.419738,188.797197,0
0.022917,57.077914,-173.635941,144.452273,5.653758,2.074378,4.529827,-6.405251,-2.197969,-4.333289,6.377315,-0.281866,0.608459,-0.035692,-0.721502,188.571078,0
0.023958,107.790234,-199.501157,60.863258,4.126908,-0.598982,5.966137,-5.112331,0.558844,-5.896473,5.082971,-0.219765,0.600097,-0.039427,-14.146471,188.797197,0
0.025000,156.313451,-168.006240,-8.531629,2.803638,-2.750450,6.183298,-3.090675,2.665048,-6.150289,3.171909,-0.201500,0.598791,-0.017021,-26.689261,188.721974,0
0.026042,184.318085,-120.479964,-76.215341,1.525608,-4.855765,5.611822,-0.367707,4.804335,-5.582224,0.465206,-0.106522,0.590560,-0.017021,-32.627011,188.797278,0
0.027083,184.953265,-35.841150,-129.163258,0.530328,-5.942150,4.164082,2.182871,5.943817,-4.176164,-1.982628,-0.084604,0.577299,-0.020755,-37.999261,188.571076,0
0.028125,158.457184,38.033578,-170.625379,-0.261372,-6.424988,2.293451,4.408260,6.417989,-2.371251,-4.297221,-0.033462,0.603559,-0.005818,-39.933271,188.721925,0
0.029167,98.738919,100.310638,-181.200190,-0.532812,-5.551620,-0.278192,6.089056,5.627703,0.110506,-5.934186,-0.011544,0.593630,-0.020755,-28.860781,188.721980,0
0.030208,15.859267,145.843565,-185.496591,-0.600672,-4.230916,-2.541237,6.853054,4.249297,2.459311,-6.783124,-0.011544,0.611268,-0.013287,-12.970231,188.797306,0
0.031250,-56.539913,172.953114,-145.573296,0.179718,-2.075897,-4.309003,6.331968,2.176174,4.231994,-6.360558,0.017680,0.613227,-0.058098,5.137078,188.571094,0
0.032291,-108.386483,199.337808,-61.541099,1.729188,0.615214,-5.787221,5.046884,-0.536530,5.762947,-5.062407,-0.029809,0.603886,-0.028224,16.707208,188.721976,0
0.033333,-155.922903,168.338209,9.614205,3.086388,2.763132,-6.053910,3.080079,-2.657438,6.048994,-3.181800,-0.066339,0.596570,-0.028224,31.987018,188.721880,0
0.034375,-184.540031,119.893784,76.534659,4.375728,4.886198,-5.383378,0.286588,-4.774670,5.472872,-0.398959,-0.132093,0.577625,-0.002084,36.861628,188.721898,0
0.035417,-185.277294,36.789245,128.867046,5.371008,6.004536,-3.969927,-2.244400,-5.961937,4.155446,2.048875,-0.201500,0.578475,-0.017021,41.894578,188.571084,0
0.036458,-158.985378,-35.418318,171.437122,6.162708,6.469622,-2.156443,-4.477625,-6.509624,2.386792,4.348240,-0.219765,0.607414,-0.050629,45.672117,188.721924,0
0.037500,-100.367335,-99.386705,180.497728,6.388908,5.674360,0.369481,-6.150585,-5.682580,-0.135253,5.969977,-0.238030,0.599575,-0.020755,34.203778,188.721875,0
0.038542,-15.491404,-145.644487,185.508145,6.456768,4.357207,2.582999,-6.957680,-4.348283,-2.447798,6.818915,-0.267254,0.602645,-0.035692,16.888168,188.646489,0
0.039583,57.565642,-172.210394,145.867993,5.698998,2.145383,4.392673,-6.440512,-2.304566,-4.212424,6.365895,-0.256295,0.615840,-0.039427,-0.585782,188.571125,0
0.040625,108.175879,-199.162891,61.232576,4.092978,-0.506674,5.863271,-5.100577,0.437544,-5.803810,5.124847,-0.216112,0.599640,-0.031958,-13.456561,188.646619,0
0.041667,155.734984,-168.549881,-8.507008,2.803638,-2.601339,6.129960,-3.188623,2.492288,-6.053597,3.293730,-0.172276,0.601730,-0.035692,-27.763711,188.721826,0
0.042708,184.431510,-120.673258,-75.772159,1.548228,-4.720855,5.577533,-0.496999,4.679359,-5.529850,0.609868,-0.143052,0.591605,-0.043161,-32.276401,188.571051,0
0.043750,185.066690,-36.952593,-129.052463,0.530328,-5.864044,4.236469,2.026153,5.892357,-4.264798,-1.872228,-0.084604,0.593695,-0.017021,-37.196251,188.571033,0
0.044792,158.128251,36.849649,-171.142425,-0.261372,-6.385935,2.373457,4.341655,6.340798,-2.443769,-4.171593,-0.062686,0.595851,-0.054364,-39.842791,188.571102,0
0.045833,99.237989,100.346881,-180.547728,-0.487572,-5.590673,-0.152467,5.991107,5.631379,0.029929,-5.808558,-0.026156,0.578409,-0.013287,-27.752401,188.722012,0
0.046875,15.950007,145.577785,-185.644319,-0.623292,-4.245117,-2.476470,6.841300,4.249297,2.366648,-6.703179,0.010374,0.597157,-0.024490,-12.777961,188.646531,0
0.047917,-56.369776,172.566525,-146.176516,0.145788,-2.097199,-4.236616,6.312378,2.220283,4.159475,-6.288227,0.006721,0.610745,-0.013287,5.510308,188.571065,0
0.048958,-108.511250,198.794168,-62.513637,1.751808,0.569060,-5.737693,5.062556,-0.514476,5.758919,-5.096669,-0.026156,0.602253,-0.024490,17.498908,188.495743,0
0.050000,-155.922903,168.628150,8.863258,3.120318,2.709878,-5.981523,3.095750,-2.628032,6.008706,-3.227483,-0.106522,0.596962,-0.043161,32.597758,188.721936,0
0.051042,-184.290496,120.521991,76.263826,4.398348,4.829394,-5.406237,0.364947,-4.759967,5.468843,-0.471290,-0.117481,0.579781,-0.005818,37.562848,188.495662,0
0.052083,-185.413404,36.535546,128.830114,5.371008,5.929980,-4.000406,-2.185631,-5.903125,4.183648,1.999385,-0.157664,0.559465,-0.035692,41.419558,188.571100,0
0.053125,-158.905980,-35.164619,171.289394,6.162708,6.462522,-2.164063,-4.434528,-6.480218,2.427080,4.287329,-0.205153,0.600358,-0.028224,45.547707,188.495698,0
0.054167,-101.025200,-99.314220,180.374622,6.400218,5.674360,0.304714,-6.103569,-5.697283,-0.094964,5.924295,-0.230724,0.601926,-0.028224,35.052028,188.646509,0
0.055208,-16.500886,-145.306221,185.458902,6.456768,4.374958,2.594428,-6.883239,-4.407095,-2.375279,6.853177,-0.263601,0.609896,-0.017021,17.600698,188.495736,0
0.056250,57.214024,-172.041262,146.532766,5.732928,2.219939,4.369814,-6.428758,-2.300890,-4.147963,6.415384,-0.230724,0.594610,-0.009553,-0.495302,188.495522,0
0.057292,108.130509,-198.897111,61.872727,4.149528,-0.442769,5.806124,-5.143674,0.397111,-5.771579,5.151495,-0.238030,0.598921,-0.009553,-14.146471,188.495736,0
0.058333,155.303969,-168.803580,-8.703977,2.814948,-2.540984,6.126150,-3.204295,2.488612,-6.021366,3.354640,-0.219765,0.594479,-0.017021,-26.858911,188.646627,0
0.059375,184.159290,-121.023604,-75.636743,1.548228,-4.688902,5.520386,-0.508753,4.631575,-5.549994,0.621289,-0.157664,0.588077,-0.031958,-32.446051,188.495709,0
0.060417,185.055347,-37.834499,-128.830872,0.564258,-5.775287,4.225040,1.971302,5.815166,-4.284943,-1.796090,-0.080951,0.591540,-0.028224,-37.795681,188.495631,0
0.061458,157.833346,35.556993,-171.413258,-0.283992,-6.322030,2.430605,4.228035,6.355501,-2.471971,-4.114490,-0.037115,0.594806,-0.020755,-39.627901,188.495700,0
0.062500,99.850484,100.298557,-180.018372,-0.476262,-5.558720,-0.125798,5.932338,5.605648,-0.006330,-5.755262,0.010374,0.598987,-0.028224,-29.279251,188.495799,0
0.063542,15.677787,145.638190,-185.435038,-0.600672,-4.269969,-2.365984,6.774695,4.289730,2.265927,-6.672724,0.024986,0.613815,-0.031958,-12.800581,188.495656,0
0.064583,-56.641996,171.612134,-147.087500,0.157098,-2.203707,-4.160419,6.296706,2.312176,4.074870,-6.322489,0.006721,0.612835,-0.054364,5.408518,188.495778,0
0.065625,-108.533935,198.359255,-63.338447,1.729188,0.494504,-5.657687,5.066474,-0.433609,5.662227,-5.092862,-0.011544,0.604996,-0.039427,16.560178,188.495776,0
0.066667,-155.457860,169.099306,8.198485,3.097698,2.546565,-5.981523,3.209371,-2.499381,6.036908,-3.307428,-0.077298,0.601012,-0.031958,32.122738,188.269579,0
0.067708,-184.313181,121.017308,75.574432,4.375728,4.758388,-5.379568,0.466814,-4.605585,5.517189,-0.581690,-0.106522,0.583374,-0.039427,36.895558,188.495807,0
0.068750,-185.719651,36.789245,128.226894,5.371008,5.929980,-4.053744,-2.091600,-5.921504,4.195734,1.854723,-0.175929,0.600816,-0.031958,41.543968,188.495685,0
0.069792,-158.168718,-35.067972,171.695644,6.219258,6.469622,-2.236450,-4.367923,-6.421406,2.483484,4.199771,-0.219765,0.585334,-0.013287,45.513777,188.495683,0
0.070833,-102.080053,-99.302139,179.808334,6.354978,5.695662,0.232327,-6.029129,-5.778150,-0.042590,5.870998,-0.238030,0.606956,-0.046895,34.577008,188.269496,0
0.071875,-17.192779,-145.475354,185.311175,6.434148,4.414011,2.502992,-6.945926,-4.432825,-2.334991,6.803688,-0.230724,0.612901,-0.017021,17.136988,188.495797,0
0.072917,56.896434,-171.473459,147.406819,5.732928,2.312247,4.331715,-6.471856,-2.400135,-4.111703,6.430612,-0.259948,0.612378,-0.024490,-0.314342,188.420330,0
0.073958,108.425414,-198.558846,62.365152,4.194768,-0.414367,5.848032,-5.229869,0.364029,-5.727262,5.204791,-0.267254,0.599836,-0.043161,-13.354771,188.495754,0
0.075000,154.770871,-169.214330,-8.765530,2.826258,-2.487730,6.129960,-3.286572,2.448179,-6.073741,3.392709,-0.183235,0.594153,-0.013287,-27.763711,188.269424,0
0.076042,183.955125,-120.081294,-75.821402,1.536918,-4.671151,5.516576,-0.477410,4.605844,-5.493590,0.621289,-0.157664,0.573379,0.005384,-32.129371,188.344923,0
0.077083,185.406965,-38.353978,-128.560038,0.530328,-5.828541,4.225040,1.943877,5.811490,-4.252712,-1.788476,-0.095563,0.589057,-0.035692,-37.037911,188.420235,0
0.078125,157.822004,34.771734,-171.659470,-0.295302,-6.343332,2.434415,4.267214,6.311392,-2.500173,-4.076421,-0.040768,0.600162,-0.024490,-39.786241,188.420298,0
0.079167,100.428951,99.924049,-180.067614,-0.521502,-5.572921,-0.118178,5.912748,5.635054,-0.010359,-5.755262,-0.000585,0.595067,-0.035692,-28.069081,188.269583,0
0.080208,15.541677,145.396572,-185.582766,-0.611982,-4.234467,-2.369794,6.790367,4.326487,2.362619,-6.672724,-0.011544,0.566324,-0.031958,-12.800581,188.194132,0
0.081250,-56.857503,171.974561,-146.828978,0.202338,-2.150453,-4.141370,6.300624,2.312176,4.123216,-6.253965,0.010374,0.604409,-0.024490,5.759128,188.420280,0
0.082292,-108.556620,198.419660,-63.141477,1.740498,0.544208,-5.676736,5.089981,-0.448312,5.706544,-5.096669,0.003068,0.601730,-0.024490,17.476288,188.344941,0
0.083333,-155.696053,169.038901,7.730682,3.063768,2.631772,-5.985333,3.189781,-2.561868,6.069138,-3.284586,-0.095563,0.604017,-0.013287,32.620378,188.269507,0
0.084375,-184.154386,121.379735,75.426705,4.364418,4.797441,-5.413857,0.415880,-4.697479,5.505103,-0.501746,-0.113828,0.585595,-0.031958,37.596778,188.194083,0
0.085417,-185.504144,36.849649,128.411553,5.371008,5.908678,-4.023265,-2.119026,-5.892098,4.207821,1.927054,-0.150358,0.578475,-0.013287,41.351698,188.344919,0
0.086458,-158.440938,-35.696179,171.153978,6.106158,6.451871,-2.221210,-4.414938,-6.428757,2.382763,4.214998,-0.223418,0.575731,-0.028224,45.434607,188.269527,0
0.087500,-101.637695,-99.205492,180.165341,6.366288,5.645958,0.319953,-6.083980,-5.730365,-0.082878,5.897646,-0.238030,0.602383,-0.043161,35.210368,188.269566,0
0.088542,-17.691849,-145.125008,185.545076,6.479388,4.374958,2.590618,-6.945926,-4.385040,-2.399452,6.780846,-0.238030,0.613489,-0.061832,17.747728,188.194152,0
0.089583,56.408707,-171.835886,147.222160,5.755548,2.266093,4.339335,-6.487527,-2.363378,-4.192280,6.426805,-0.285519,0.613946,0.005384,-0.269102,188.269509,0
0.090625,108.085139,-198.715898,62.943750,4.183458,-0.435669,5.905180,-5.167182,0.393435,-5.799781,5.162915,-0.245336,0.600946,-0.020755,-14.055991,188.268339,0
0.091667,154.680131,-169.093521,-8.740909,2.837568,-2.569386,6.122341,-3.231720,2.506991,-6.081799,3.320378,-0.216112,0.592127,-0.020755,-26.813671,188.268925,0
0.092708,183.989152,-120.371235,-75.759849,1.536918,-4.720855,5.547055,-0.465656,4.701414,-5.493590,0.541344,-0.154011,0.574947,-0.035692,-32.332951,188.193841,0
0.093750,185.350252,-38.269412,-128.436932,0.507708,-5.860494,4.205991,2.022235,5.877654,-4.268827,-1.860807,-0.088257,0.590952,-0.020755,-37.773061,188.269326,0
0.094792,158.184964,34.360983,-171.647160,-0.283992,-6.385935,2.407746,4.298558,6.399610,-2.480029,-4.125910,-0.018850,0.598987,-0.046895,-39.650521,188.193807,0
0.095833,100.825939,99.283761,-180.092235,-0.487572,-5.544519,-0.205805,5.979353,5.594621,0.009785,-5.793331,0.006721,0.597027,-0.020755,-29.392351,188.269265,0
0.096875,15.723157,145.324086,-185.619698,-0.611982,-4.195413,-2.430752,6.755105,4.234594,2.318302,-6.653689,0.003068,0.572465,-0.046895,-13.049401,188.193825,0
0.097917,-57.107038,171.600053,-146.792046,0.168408,-2.090098,-4.175659,6.288870,2.249689,4.111129,-6.269193,-0.007891,0.591474,-0.020755,5.544238,188.193753,0
0.098958,-108.182318,198.649197,-62.870644,1.729188,0.551309,-5.684356,5.039048,-0.496097,5.670284,-5.028145,-0.033462,0.596112,-0.024490,16.571488,188.193644,0
0.100000,-155.367120,169.244276,7.472159,3.086388,2.663724,-5.951044,3.127094,-2.583923,5.984533,-3.223676,-0.084604,0.599509,-0.020755,31.998328,188.193906,0
0.101042,-184.562716,121.573029,74.921970,4.330488,4.783240,-5.371949,0.353193,-4.675425,5.521218,-0.494132,-0.124787,0.582982,-0.043161,36.952108,188.187498,0
0.102083,-185.719651,37.393290,128.202273,5.359698,5.922879,-4.019455,-2.115108,-5.877395,4.175590,1.949895,-0.183235,0.571877,-0.043161,41.623138,188.192985,0
0.103125,-158.157375,-35.792826,171.264773,6.151398,6.469622,-2.171683,-4.399266,-6.392000,2.419023,4.275909,-0.212459,0.574163,-0.050629,45.592947,188.119082,0
0.104167,-101.297420,-99.133006,180.091478,6.354978,5.660159,0.342812,-6.087898,-5.693607,-0.103022,5.901453,-0.238030,0.593891,-0.043161,34.486528,188.119131,0
0.105208,-17.521711,-145.088765,185.606629,6.479388,4.339455,2.621097,-6.902829,-4.340931,-2.395424,6.796074,-0.278213,0.605192,-0.043161,17.023888,188.194520,0
0.106250,55.796212,-171.666754,147.369887,5.744238,2.227040,4.385053,-6.428758,-2.337648,-4.188251,6.411577,-0.252642,0.609308,-0.013287,-0.088142,188.194511,0
0.107292,107.620096,-198.764221,63.116099,4.217388,-0.538627,5.893750,-5.151510,0.444895,-5.799781,5.143881,-0.238030,0.598987,-0.028224,-13.117261,188.043704,0
0.108333,154.714159,-169.045198,-8.371591,2.837568,-2.661693,6.137580,-3.161198,2.569479,-6.081799,3.255661,-0.179582,0.591801,-0.020755,-27.673231,188.119163,0
0.109375,184.284057,-120.455802,-75.476705,1.548228,-4.798961,5.520386,-0.371625,4.738171,-5.525821,0.499468,-0.132093,0.574424,-0.009553,-32.151991,188.194461,0
0.110417,185.452335,-37.774095,-128.190720,0.496398,-5.885346,4.110745,2.131938,5.921763,-4.196308,-1.978821,-0.080951,0.584158,-0.050629,-37.184941,188.191494,0
0.111458,158.672691,34.481792,-171.524054,-0.295302,-6.389485,2.312500,4.412178,6.417989,-2.407510,-4.281993,-0.048074,0.600554,-0.028224,-39.944581,187.968307,0
0.112500,100.814596,99.005900,-180.547728,-0.476262,-5.548069,-0.274382,6.026369,5.554188,0.134679,-5.903731,-0.040768,0.597353,-0.058098,-28.035151,188.119129,0
0.113542,16.188200,145.191196,-185.878220,-0.589362,-4.159911,-2.537427,6.860890,4.205188,2.435138,-6.756476,0.006721,0.593957,-0.020755,-13.072021,188.119200,0
0.114583,-56.868846,172.457797,-146.114963,0.202338,-1.958738,-4.335672,6.292788,2.113686,4.252138,-6.253965,0.017680,0.610222,-0.035692,5.679958,188.194564,0
0.115625,-107.785330,199.325727,-62.119697,1.740498,0.721722,-5.764362,4.984197,-0.628424,5.795178,-5.012917,-0.044421,0.595459,-0.031958,17.408428,187.968365,0
0.116667,-155.820820,168.978496,7.742992,3.052458,2.805735,-5.996763,3.005638,-2.683168,6.057052,-3.101855,-0.080951,0.592846,-0.020755,32.439418,188.043729,0
0.117708,-184.812251,121.923375,74.921970,4.364418,4.918151,-5.387188,0.227819,-4.818779,5.505103,-0.357084,-0.113828,0.586575,-0.024490,37.675948,188.119169,0
0.118750,-185.594884,37.683232,128.534659,5.359698,6.000986,-3.981357,-2.334512,-6.006046,4.151417,2.125013,-0.183235,0.587751,-0.031958,41.555278,188.194593,0
0.119792,-159.030748,-36.227739,170.870834,6.128778,6.476723,-2.095486,-4.587327,-6.476542,2.286071,4.424378,-0.248989,0.583570,-0.028224,45.706047,187.968413,0
0.120833,-99.788868,-99.072602,181.162501,6.400218,5.617556,0.529494,-6.228943,-5.634795,-0.268204,6.015660,-0.245336,0.598137,-0.020755,34.916308,188.043723,0
0.121875,-17.136066,-144.895471,186.185228,6.513318,4.261349,2.739202,-6.996859,-4.307850,-2.560605,6.906474,-0.248989,0.599509,-0.039427,17.544148,188.119142,0
0.122917,55.274457,-172.621145,146.532766,5.698998,2.109881,4.526017,-6.436594,-2.234727,-4.365519,6.426805,-0.234377,0.610680,-0.005818,-0.223862,188.194466,0
0.123958,107.143711,-199.247458,62.919129,4.126908,-0.641585,6.011855,-5.116249,0.580898,-5.896473,5.140074,-0.227071,0.604278,-0.024490,-13.795861,187.968231,0
0.125000,155.190544,-168.779418,-7.953030,2.848878,-2.775302,6.217587,-3.102428,2.709157,-6.134173,3.160488,-0.186888,0.595851,-0.013287,-26.632711,187.968307,0
0.126042,184.261372,-120.685339,-75.365909,1.536918,-4.869966,5.573724,-0.301102,4.859471,-5.549994,0.434751,-0.157664,0.578801,-0.061832,-32.457361,188.119225,0
0.127083,185.452335,-36.783461,-128.203031,0.496398,-5.963452,4.118364,2.280819,6.017332,-4.180193,-2.104449,-0.077298,0.564168,-0.050629,-37.987951,188.194466,0
